3 3231
3.01999999955297 3052
3.03999999910593 2764
3.0599999986589 2774
3.07999999821186 2687
3.09999999776483 2568
3.11999999731779 2461
3.13999999687076 2348
3.15999999642372 2354
3.17999999597669 2310
3.19999999552965 2274
3.21999999508262 2222
3.23999999463558 2162
3.25999999418855 2265
3.27999999374151 2181
3.29999999329448 2143
3.31999999284744 2048
3.33999999240041 1963
3.35999999195337 1944
3.37999999150634 1930
3.3999999910593 1879
3.41999999061227 1879
3.43999999016523 1968
3.4599999897182 1891
3.47999998927116 1859
3.49999998882413 1811
3.51999998837709 1899
3.53999998793006 1811
3.55999998748302 1844
3.57999998703599 1836
3.59999998658895 1762
3.61999998614192 1672
3.63999998569489 1726
3.65999998524785 1731
3.67999998480082 1681
3.69999998435378 1621
3.71999998390675 1631
3.73999998345971 1556
3.75999998301268 1579
3.77999998256564 1546
3.79999998211861 1523
3.81999998167157 1574
3.83999998122454 1446
3.8599999807775 1451
3.87999998033047 1464
3.89999997988343 1423
3.9199999794364 1421
3.93999997898936 1407
3.95999997854233 1410
3.97999997809529 1409
3.99999997764826 1421
4.01999997720122 1358
4.03999997675419 1393
4.05999997630715 1342
4.07999997586012 1387
4.09999997541308 1374
4.11999997496605 1342
4.13999997451901 1352
4.15999997407198 1353
4.17999997362494 1297
4.19999997317791 1292
4.21999997273087 1230
4.23999997228384 1239
4.25999997183681 1251
4.27999997138977 1229
4.29999997094274 1208
4.3199999704957 1270
4.33999997004867 1180
4.35999996960163 1232
4.3799999691546 1207
4.39999996870756 1185
4.41999996826053 1224
4.43999996781349 1204
4.45999996736646 1203
4.47999996691942 1204
4.49999996647239 1166
4.51999996602535 1187
4.53999996557832 1202
4.55999996513128 1208
4.57999996468425 1211
4.59999996423721 1195
4.61999996379018 1219
4.63999996334314 1162
4.65999996289611 1206
4.67999996244907 1280
4.69999996200204 1237
4.719999961555 1173
4.73999996110797 1230
4.75999996066093 1261
4.7799999602139 1265
4.79999995976686 1280
4.81999995931983 1315
4.83999995887279 1343
4.85999995842576 1302
4.87999995797873 1314
4.89999995753169 1369
4.91999995708466 1408
4.93999995663762 1395
4.95999995619059 1390
4.97999995574355 1401
4.99999995529652 1455
5.01999995484948 1545
5.03999995440245 1525
5.05999995395541 1631
5.07999995350838 1658
5.09999995306134 1806
5.11999995261431 1774
5.13999995216727 1871
5.15999995172024 2000
5.1799999512732 2087
5.19999995082617 2374
5.21999995037913 2423
5.2399999499321 2478
5.25999994948506 2638
5.27999994903803 2958
5.29999994859099 3190
5.31999994814396 3485
5.33999994769692 3839
5.35999994724989 4143
5.37999994680285 4766
5.39999994635582 5641
5.41999994590878 6535
5.43999994546175 6924
5.45999994501471 6255
5.47999994456768 4953
5.49999994412065 3709
5.51999994367361 3055
5.53999994322658 2594
5.55999994277954 2377
5.57999994233251 2207
5.59999994188547 2023
5.61999994143844 1805
5.6399999409914 1701
5.65999994054437 1656
5.67999994009733 1575
5.6999999396503 1505
5.71999993920326 1436
5.73999993875623 1374
5.75999993830919 1393
5.77999993786216 1322
5.79999993741512 1241
5.81999993696809 1284
5.83999993652105 1159
5.85999993607402 1131
5.87999993562698 1082
5.89999993517995 1090
5.91999993473291 1028
5.93999993428588 1061
5.95999993383884 991
5.97999993339181 1037
5.99999993294477 941
6.01999993249774 967
6.0399999320507 1007
6.05999993160367 873
6.07999993115663 860
6.0999999307096 943
6.11999993026257 954
6.13999992981553 892
6.1599999293685 876
6.17999992892146 848
6.19999992847443 870
6.21999992802739 830
6.23999992758036 827
6.25999992713332 861
6.27999992668629 858
6.29999992623925 793
6.31999992579222 822
6.33999992534518 814
6.35999992489815 792
6.37999992445111 829
6.39999992400408 770
6.41999992355704 761
6.43999992311001 751
6.45999992266297 754
6.47999992221594 775
6.4999999217689 802
6.51999992132187 807
6.53999992087483 782
6.5599999204278 780
6.57999991998076 804
6.59999991953373 756
6.61999991908669 772
6.63999991863966 769
6.65999991819262 807
6.67999991774559 756
6.69999991729855 743
6.71999991685152 752
6.73999991640449 796
6.75999991595745 721
6.77999991551042 803
6.79999991506338 737
6.81999991461635 740
6.83999991416931 724
6.85999991372228 732
6.87999991327524 710
6.89999991282821 697
6.91999991238117 730
6.93999991193414 718
6.9599999114871 712
6.97999991104007 740
6.99999991059303 696
7.019999910146 688
7.03999990969896 737
7.05999990925193 732
7.07999990880489 706
7.09999990835786 764
7.11999990791082 680
7.13999990746379 649
7.15999990701675 712
7.17999990656972 674
7.19999990612268 687
7.21999990567565 691
7.23999990522861 678
7.25999990478158 650
7.27999990433454 712
7.29999990388751 700
7.31999990344047 640
7.33999990299344 652
7.35999990254641 693
7.37999990209937 678
7.39999990165234 741
7.4199999012053 727
7.43999990075827 696
7.45999990031123 635
7.4799998998642 700
7.49999989941716 635
7.51999989897013 656
7.53999989852309 610
7.55999989807606 681
7.57999989762902 676
7.59999989718199 713
7.61999989673495 706
7.63999989628792 728
7.65999989584088 646
7.67999989539385 671
7.69999989494681 649
7.71999989449978 711
7.73999989405274 657
7.75999989360571 672
7.77999989315867 684
7.79999989271164 641
7.8199998922646 674
7.83999989181757 662
7.85999989137053 689
7.8799998909235 648
7.89999989047646 700
7.91999989002943 692
7.9399998895824 648
7.95999988913536 682
7.97999988868833 694
7.99999988824129 664
8.01999988779426 684
8.03999988734722 695
8.05999988690019 657
8.07999988645315 676
8.09999988600612 683
8.11999988555908 655
8.13999988511205 677
8.15999988466501 653
8.17999988421798 655
8.19999988377094 681
8.21999988332391 657
8.23999988287687 639
8.25999988242984 694
8.2799998819828 644
8.29999988153577 671
8.31999988108873 659
8.3399998806417 625
8.35999988019466 663
8.37999987974763 661
8.39999987930059 651
8.41999987885356 671
8.43999987840652 723
8.45999987795949 668
8.47999987751245 650
8.49999987706542 646
8.51999987661839 612
8.53999987617135 660
8.55999987572432 677
8.57999987527728 654
8.59999987483025 685
8.61999987438321 654
8.63999987393618 651
8.65999987348914 657
8.67999987304211 682
8.69999987259507 671
8.71999987214804 678
8.739999871701 658
8.75999987125397 676
8.77999987080693 644
8.7999998703599 636
8.81999986991286 676
8.83999986946583 668
8.85999986901879 680
8.87999986857176 777
8.89999986812472 700
8.91999986767769 795
8.93999986723065 739
8.95999986678362 728
8.97999986633658 745
8.99999986588955 757
9.01999986544251 800
9.03999986499548 807
9.05999986454844 822
9.07999986410141 839
9.09999986365438 870
9.11999986320734 905
9.13999986276031 945
9.15999986231327 1008
9.17999986186624 1019
9.1999998614192 1121
9.21999986097217 1175
9.23999986052513 1315
9.2599998600781 1352
9.27999985963106 1613
9.29999985918403 1782
9.31999985873699 2089
9.33999985828996 2341
9.35999985784292 2410
9.37999985739589 2118
9.39999985694885 1650
9.41999985650182 1379
9.43999985605478 1113
9.45999985560775 964
9.47999985516071 929
9.49999985471368 832
9.51999985426664 801
9.53999985381961 820
9.55999985337257 766
9.57999985292554 777
9.5999998524785 757
9.61999985203147 722
9.63999985158443 709
9.6599998511374 697
9.67999985069037 714
9.69999985024333 739
9.7199998497963 741
9.73999984934926 694
9.75999984890223 726
9.77999984845519 697
9.79999984800816 713
9.81999984756112 697
9.83999984711409 714
9.85999984666705 735
9.87999984622002 705
9.89999984577298 698
9.91999984532595 693
9.93999984487891 683
9.95999984443188 683
9.97999984398484 747
9.99999984353781 684
10.0199998430908 729
10.0399998426437 711
10.0599998421967 727
10.0799998417497 704
10.0999998413026 720
10.1199998408556 666
10.1399998404086 695
10.1599998399615 694
10.1799998395145 660
10.1999998390675 691
10.2199998386204 656
10.2399998381734 681
10.2599998377264 711
10.2799998372793 712
10.2999998368323 703
10.3199998363853 673
10.3399998359382 735
10.3599998354912 695
10.3799998350441 739
10.3999998345971 747
10.4199998341501 697
10.439999833703 713
10.459999833256 734
10.479999832809 752
10.4999998323619 742
10.5199998319149 759
10.5399998314679 861
10.5599998310208 816
10.5799998305738 850
10.5999998301268 842
10.6199998296797 850
10.6399998292327 925
10.6599998287857 942
10.6799998283386 1033
10.6999998278916 1137
10.7199998274446 1130
10.7399998269975 1335
10.7599998265505 1470
10.7799998261034 1543
10.7999998256564 1669
10.8199998252094 1538
10.8399998247623 1377
10.8599998243153 1231
10.8799998238683 1127
10.8999998234212 1110
10.9199998229742 982
10.9399998225272 930
10.9599998220801 856
10.9799998216331 864
10.9999998211861 839
11.019999820739 852
11.039999820292 812
11.059999819845 793
11.0799998193979 747
11.0999998189509 766
11.1199998185039 738
11.1399998180568 708
11.1599998176098 772
11.1799998171628 681
11.1999998167157 663
11.2199998162687 710
11.2399998158216 756
11.2599998153746 655
11.2799998149276 679
11.2999998144805 715
11.3199998140335 684
11.3399998135865 690
11.3599998131394 667
11.3799998126924 659
11.3999998122454 679
11.4199998117983 656
11.4399998113513 704
11.4599998109043 716
11.4799998104572 681
11.4999998100102 665
11.5199998095632 674
11.5399998091161 650
11.5599998086691 702
11.5799998082221 696
11.599999807775 677
11.619999807328 677
11.639999806881 674
11.6599998064339 658
11.6799998059869 707
11.6999998055398 689
11.7199998050928 630
11.7399998046458 645
11.7599998041987 647
11.7799998037517 653
11.7999998033047 657
11.8199998028576 698
11.8399998024106 713
11.8599998019636 650
11.8799998015165 686
11.8999998010695 677
11.9199998006225 680
11.9399998001754 701
11.9599997997284 686
11.9799997992814 669
11.9999997988343 662
12.0199997983873 731
12.0399997979403 657
12.0599997974932 707
12.0799997970462 683
12.0999997965992 702
12.1199997961521 756
12.1399997957051 693
12.159999795258 729
12.179999794811 731
12.199999794364 734
12.2199997939169 771
12.2399997934699 821
12.2599997930229 815
12.2799997925758 892
12.2999997921288 770
12.3199997916818 826
12.3399997912347 785
12.3599997907877 805
12.3799997903407 745
12.3999997898936 731
12.4199997894466 734
12.4399997889996 685
12.4599997885525 660
12.4799997881055 722
12.4999997876585 692
12.5199997872114 643
12.5399997867644 779
12.5599997863173 719
12.5799997858703 680
12.5999997854233 673
12.6199997849762 690
12.6399997845292 711
12.6599997840822 701
12.6799997836351 699
12.6999997831881 711
12.7199997827411 710
12.739999782294 704
12.759999781847 683
12.7799997814 698
12.7999997809529 666
12.8199997805059 720
12.8399997800589 718
12.8599997796118 725
12.8799997791648 736
12.8999997787178 722
12.9199997782707 736
12.9399997778237 704
12.9599997773767 799
12.9799997769296 715
12.9999997764826 744
13.0199997760355 744
13.0399997755885 735
13.0599997751415 720
13.0799997746944 741
13.0999997742474 722
13.1199997738004 721
13.1399997733533 708
13.1599997729063 743
13.1799997724593 715
13.1999997720122 769
13.2199997715652 707
13.2399997711182 726
13.2599997706711 752
13.2799997702241 757
13.2999997697771 801
13.31999976933 707
13.339999768883 734
13.359999768436 708
13.3799997679889 692
13.3999997675419 759
13.4199997670949 744
13.4399997666478 757
13.4599997662008 738
13.4799997657537 732
13.4999997653067 766
13.5199997648597 733
13.5399997644126 756
13.5599997639656 808
13.5799997635186 758
13.5999997630715 751
13.6199997626245 755
13.6399997621775 813
13.6599997617304 769
13.6799997612834 752
13.6999997608364 746
13.7199997603893 748
13.7399997599423 741
13.7599997594953 767
13.7799997590482 747
13.7999997586012 765
13.8199997581542 767
13.8399997577071 785
13.8599997572601 735
13.879999756813 751
13.899999756366 720
13.919999755919 785
13.9399997554719 781
13.9599997550249 801
13.9799997545779 771
13.9999997541308 786
14.0199997536838 811
14.0399997532368 745
14.0599997527897 764
14.0799997523427 786
14.0999997518957 788
14.1199997514486 784
14.1399997510016 812
14.1599997505546 812
14.1799997501075 807
14.1999997496605 808
14.2199997492135 834
14.2399997487664 841
14.2599997483194 830
14.2799997478724 849
14.2999997474253 854
14.3199997469783 858
14.3399997465312 862
14.3599997460842 847
14.3799997456372 825
14.3999997451901 833
14.4199997447431 833
14.4399997442961 794
14.459999743849 815
14.479999743402 774
14.499999742955 760
14.5199997425079 820
14.5399997420609 809
14.5599997416139 790
14.5799997411668 820
14.5999997407198 816
14.6199997402728 800
14.6399997398257 836
14.6599997393787 853
14.6799997389317 791
14.6999997384846 810
14.7199997380376 830
14.7399997375906 810
14.7599997371435 816
14.7799997366965 836
14.7999997362494 808
14.8199997358024 751
14.8399997353554 774
14.8599997349083 812
14.8799997344613 822
14.8999997340143 801
14.9199997335672 795
14.9399997331202 880
14.9599997326732 832
14.9799997322261 860
14.9999997317791 816
15.0199997313321 796
15.039999730885 779
15.059999730438 845
15.079999729991 825
15.0999997295439 839
15.1199997290969 856
15.1399997286499 801
15.1599997282028 795
15.1799997277558 820
15.1999997273088 838
15.2199997268617 861
15.2399997264147 806
15.2599997259676 816
15.2799997255206 822
15.2999997250736 797
15.3199997246265 809
15.3399997241795 835
15.3599997237325 838
15.3799997232854 861
15.3999997228384 814
15.4199997223914 806
15.4399997219443 813
15.4599997214973 829
15.4799997210503 865
15.4999997206032 848
15.5199997201562 847
15.5399997197092 859
15.5599997192621 919
15.5799997188151 863
15.5999997183681 845
15.619999717921 883
15.639999717474 882
15.659999717027 877
15.6799997165799 939
15.6999997161329 824
15.7199997156858 870
15.7399997152388 835
15.7599997147918 919
15.7799997143447 903
15.7999997138977 897
15.8199997134507 892
15.8399997130036 883
15.8599997125566 896
15.8799997121096 917
15.8999997116625 900
15.9199997112155 924
15.9399997107685 948
15.9599997103214 884
15.9799997098744 915
15.9999997094274 883
16.0199997089803 938
16.0399997085333 999
16.0599997080863 927
16.0799997076392 966
16.0999997071922 904
16.1199997067451 1003
16.1399997062981 967
16.1599997058511 925
16.179999705404 939
16.199999704957 926
16.21999970451 989
16.2399997040629 980
16.2599997036159 906
16.2799997031689 974
16.2999997027218 967
16.3199997022748 917
16.3399997018278 906
16.3599997013807 893
16.3799997009337 969
16.3999997004867 1047
16.4199997000396 993
16.4399996995926 1020
16.4599996991456 976
16.4799996986985 1034
16.4999996982515 990
16.5199996978045 1003
16.5399996973574 1031
16.5599996969104 971
16.5799996964633 926
16.5999996960163 977
16.6199996955693 961
16.6399996951222 1014
16.6599996946752 964
16.6799996942282 1010
16.6999996937811 979
16.7199996933341 982
16.7399996928871 1008
16.75999969244 1055
16.779999691993 1045
16.799999691546 982
16.8199996910989 1071
16.8399996906519 1032
16.8599996902049 1032
16.8799996897578 1031
16.8999996893108 1059
16.9199996888638 1099
16.9399996884167 1169
16.9599996879697 1162
16.9799996875226 1186
16.9999996870756 1160
17.0199996866286 1092
17.0399996861815 1145
17.0599996857345 1059
17.0799996852875 1069
17.0999996848404 1074
17.1199996843934 1073
17.1399996839464 1121
17.1599996834993 1113
17.1799996830523 1082
17.1999996826053 1138
17.2199996821582 1098
17.2399996817112 1116
17.2599996812642 1138
17.2799996808171 1109
17.2999996803701 1075
17.3199996799231 1175
17.339999679476 1127
17.359999679029 1174
17.379999678582 1126
17.3999996781349 1087
17.4199996776879 1118
17.4399996772408 1171
17.4599996767938 1150
17.4799996763468 1210
17.4999996758997 1143
17.5199996754527 1137
17.5399996750057 1097
17.5599996745586 1067
17.5799996741116 1110
17.5999996736646 1114
17.6199996732175 1158
17.6399996727705 1152
17.6599996723235 1162
17.6799996718764 1116
17.6999996714294 1111
17.7199996709824 1123
17.7399996705353 1138
17.7599996700883 1151
17.7799996696413 1079
17.7999996691942 1133
17.8199996687472 1179
17.8399996683002 1156
17.8599996678531 1148
17.8799996674061 1125
17.899999666959 1153
17.919999666512 1184
17.939999666065 1182
17.9599996656179 1213
17.9799996651709 1144
17.9999996647239 1114
18.0199996642768 1163
18.0399996638298 1237
18.0599996633828 1202
18.0799996629357 1166
18.0999996624887 1206
18.1199996620417 1225
18.1399996615946 1172
18.1599996611476 1181
18.1799996607006 1209
18.1999996602535 1160
18.2199996598065 1167
18.2399996593595 1136
18.2599996589124 1266
18.2799996584654 1278
18.2999996580184 1204
18.3199996575713 1146
18.3399996571243 1281
18.3599996566772 1210
18.3799996562302 1184
18.3999996557832 1233
18.4199996553361 1219
18.4399996548891 1234
18.4599996544421 1169
18.479999653995 1258
18.499999653548 1283
18.519999653101 1240
18.5399996526539 1242
18.5599996522069 1202
18.5799996517599 1231
18.5999996513128 1282
18.6199996508658 1298
18.6399996504188 1323
18.6599996499717 1387
18.6799996495247 1314
18.6999996490777 1326
18.7199996486306 1326
18.7399996481836 1249
18.7599996477366 1306
18.7799996472895 1363
18.7999996468425 1378
18.8199996463954 1301
18.8399996459484 1275
18.8599996455014 1248
18.8799996450543 1315
18.8999996446073 1343
18.9199996441603 1329
18.9399996437132 1390
18.9599996432662 1315
18.9799996428192 1398
18.9999996423721 1401
19.0199996419251 1351
19.0399996414781 1294
19.059999641031 1341
19.079999640584 1332
19.099999640137 1340
19.1199996396899 1331
19.1399996392429 1266
19.1599996387959 1395
19.1799996383488 1399
19.1999996379018 1342
19.2199996374547 1362
19.2399996370077 1452
19.2599996365607 1416
19.2799996361136 1437
19.2999996356666 1418
19.3199996352196 1470
19.3399996347725 1439
19.3599996343255 1521
19.3799996338785 1522
19.3999996334314 1598
19.4199996329844 1634
19.4399996325374 1696
19.4599996320903 1772
19.4799996316433 1734
19.4999996311963 1646
19.5199996307492 1629
19.5399996303022 1600
19.5599996298552 1650
19.5799996294081 1551
19.5999996289611 1582
19.6199996285141 1565
19.639999628067 1502
19.65999962762 1515
19.6799996271729 1482
19.6999996267259 1474
19.7199996262789 1487
19.7399996258318 1498
19.7599996253848 1377
19.7799996249378 1420
19.7999996244907 1416
19.8199996240437 1431
19.8399996235967 1482
19.8599996231496 1481
19.8799996227026 1456
19.8999996222556 1479
19.9199996218085 1451
19.9399996213615 1524
19.9599996209145 1544
19.9799996204674 1492
19.9999996200204 1480
