3 1016
3.01999999955297 991
3.03999999910593 937
3.0599999986589 968
3.07999999821186 935
3.09999999776483 894
3.11999999731779 884
3.13999999687076 848
3.15999999642372 867
3.17999999597669 833
3.19999999552965 847
3.21999999508262 828
3.23999999463558 811
3.25999999418855 834
3.27999999374151 827
3.29999999329448 835
3.31999999284744 813
3.33999999240041 839
3.35999999195337 764
3.37999999150634 821
3.3999999910593 770
3.41999999061227 781
3.43999999016523 761
3.4599999897182 744
3.47999998927116 768
3.49999998882413 751
3.51999998837709 771
3.53999998793006 748
3.55999998748302 729
3.57999998703599 754
3.59999998658895 715
3.61999998614192 759
3.63999998569489 717
3.65999998524785 714
3.67999998480082 724
3.69999998435378 702
3.71999998390675 725
3.73999998345971 670
3.75999998301268 673
3.77999998256564 653
3.79999998211861 687
3.81999998167157 684
3.83999998122454 722
3.8599999807775 707
3.87999998033047 693
3.89999997988343 667
3.9199999794364 657
3.93999997898936 660
3.95999997854233 673
3.97999997809529 668
3.99999997764826 667
4.01999997720122 643
4.03999997675419 678
4.05999997630715 622
4.07999997586012 632
4.09999997541308 629
4.11999997496605 615
4.13999997451901 628
4.15999997407198 617
4.17999997362494 658
4.19999997317791 631
4.21999997273087 606
4.23999997228384 596
4.25999997183681 607
4.27999997138977 587
4.29999997094274 600
4.3199999704957 607
4.33999997004867 598
4.35999996960163 619
4.3799999691546 593
4.39999996870756 592
4.41999996826053 592
4.43999996781349 581
4.45999996736646 639
4.47999996691942 638
4.49999996647239 649
4.51999996602535 630
4.53999996557832 636
4.55999996513128 605
4.57999996468425 656
4.59999996423721 643
4.61999996379018 597
4.63999996334314 650
4.65999996289611 638
4.67999996244907 625
4.69999996200204 692
4.719999961555 641
4.73999996110797 620
4.75999996066093 624
4.7799999602139 702
4.79999995976686 680
4.81999995931983 709
4.83999995887279 703
4.85999995842576 707
4.87999995797873 727
4.89999995753169 744
4.91999995708466 698
4.93999995663762 765
4.95999995619059 754
4.97999995574355 791
4.99999995529652 783
5.01999995484948 805
5.03999995440245 829
5.05999995395541 846
5.07999995350838 849
5.09999995306134 969
5.11999995261431 923
5.13999995216727 962
5.15999995172024 1054
5.1799999512732 1079
5.19999995082617 1146
5.21999995037913 1157
5.2399999499321 1197
5.25999994948506 1196
5.27999994903803 1294
5.29999994859099 1354
5.31999994814396 1358
5.33999994769692 1419
5.35999994724989 1551
5.37999994680285 1656
5.39999994635582 1822
5.41999994590878 1919
5.43999994546175 1998
5.45999994501471 2232
5.47999994456768 2521
5.49999994412065 2704
5.51999994367361 2952
5.53999994322658 3271
5.55999994277954 3593
5.57999994233251 3777
5.59999994188547 4316
5.61999994143844 4854
5.6399999409914 5423
5.65999994054437 6504
5.67999994009733 8311
5.6999999396503 11741
5.71999993920326 17084
5.73999993875623 17877
5.75999993830919 12020
5.77999993786216 6540
5.79999993741512 2941
5.81999993696809 1562
5.83999993652105 1151
5.85999993607402 1123
5.87999993562698 1060
5.89999993517995 954
5.91999993473291 881
5.93999993428588 924
5.95999993383884 848
5.97999993339181 903
5.99999993294477 923
6.01999993249774 860
6.0399999320507 865
6.05999993160367 905
6.07999993115663 888
6.0999999307096 890
6.11999993026257 914
6.13999992981553 936
6.1599999293685 969
6.17999992892146 959
6.19999992847443 1031
6.21999992802739 1054
6.23999992758036 1072
6.25999992713332 1109
6.27999992668629 1114
6.29999992623925 1236
6.31999992579222 1223
6.33999992534518 1350
6.35999992489815 1418
6.37999992445111 1468
6.39999992400408 1650
6.41999992355704 1737
6.43999992311001 1859
6.45999992266297 2028
6.47999992221594 2183
6.4999999217689 2323
6.51999992132187 2566
6.53999992087483 2978
6.5599999204278 3416
6.57999991998076 4107
6.59999991953373 5485
6.61999991908669 6229
6.63999991863966 5087
6.65999991819262 3102
6.67999991774559 1567
6.69999991729855 934
6.71999991685152 724
6.73999991640449 696
6.75999991595745 702
6.77999991551042 704
6.79999991506338 663
6.81999991461635 645
6.83999991416931 648
6.85999991372228 614
6.87999991327524 620
6.89999991282821 617
6.91999991238117 634
6.93999991193414 562
6.9599999114871 626
6.97999991104007 583
6.99999991059303 588
7.019999910146 583
7.03999990969896 545
7.05999990925193 572
7.07999990880489 537
7.09999990835786 476
7.11999990791082 571
7.13999990746379 574
7.15999990701675 547
7.17999990656972 553
7.19999990612268 570
7.21999990567565 576
7.23999990522861 576
7.25999990478158 575
7.27999990433454 528
7.29999990388751 546
7.31999990344047 565
7.33999990299344 536
7.35999990254641 516
7.37999990209937 532
7.39999990165234 568
7.4199999012053 520
7.43999990075827 528
7.45999990031123 544
7.4799998998642 493
7.49999989941716 520
7.51999989897013 558
7.53999989852309 539
7.55999989807606 522
7.57999989762902 527
7.59999989718199 542
7.61999989673495 537
7.63999989628792 505
7.65999989584088 525
7.67999989539385 544
7.69999989494681 509
7.71999989449978 517
7.73999989405274 522
7.75999989360571 524
7.77999989315867 512
7.79999989271164 548
7.8199998922646 520
7.83999989181757 523
7.85999989137053 487
7.8799998909235 550
7.89999989047646 520
7.91999989002943 468
7.9399998895824 454
7.95999988913536 534
7.97999988868833 462
7.99999988824129 496
8.01999988779426 509
8.03999988734722 517
8.05999988690019 511
8.07999988645315 481
8.09999988600612 541
8.11999988555908 489
8.13999988511205 512
8.15999988466501 488
8.17999988421798 500
8.19999988377094 504
8.21999988332391 489
8.23999988287687 522
8.25999988242984 510
8.2799998819828 498
8.29999988153577 537
8.31999988108873 504
8.3399998806417 472
8.35999988019466 497
8.37999987974763 537
8.39999987930059 516
8.41999987885356 509
8.43999987840652 528
8.45999987795949 578
8.47999987751245 518
8.49999987706542 520
8.51999987661839 502
8.53999987617135 516
8.55999987572432 518
8.57999987527728 474
8.59999987483025 513
8.61999987438321 550
8.63999987393618 492
8.65999987348914 515
8.67999987304211 516
8.69999987259507 552
8.71999987214804 512
8.739999871701 526
8.75999987125397 572
8.77999987080693 573
8.7999998703599 579
8.81999986991286 572
8.83999986946583 625
8.85999986901879 641
8.87999986857176 602
8.89999986812472 637
8.91999986767769 710
8.93999986723065 666
8.95999986678362 678
8.97999986633658 753
8.99999986588955 703
9.01999986544251 804
9.03999986499548 816
9.05999986454844 849
9.07999986410141 939
9.09999986365438 958
9.11999986320734 1059
9.13999986276031 1136
9.15999986231327 1223
9.17999986186624 1344
9.1999998614192 1450
9.21999986097217 1603
9.23999986052513 1678
9.2599998600781 1925
9.27999985963106 2366
9.29999985918403 2861
9.31999985873699 4022
9.33999985828996 5144
9.35999985784292 5034
9.37999985739589 3571
9.39999985694885 1993
9.41999985650182 1131
9.43999985605478 702
9.45999985560775 655
9.47999985516071 616
9.49999985471368 605
9.51999985426664 518
9.53999985381961 556
9.55999985337257 522
9.57999985292554 531
9.5999998524785 530
9.61999985203147 517
9.63999985158443 522
9.6599998511374 507
9.67999985069037 561
9.69999985024333 536
9.7199998497963 509
9.73999984934926 516
9.75999984890223 517
9.77999984845519 529
9.79999984800816 507
9.81999984756112 520
9.83999984711409 512
9.85999984666705 479
9.87999984622002 519
9.89999984577298 521
9.91999984532595 522
9.93999984487891 505
9.95999984443188 506
9.97999984398484 533
9.99999984353781 500
10.0199998430908 520
10.0399998426437 527
10.0599998421967 520
10.0799998417497 471
10.0999998413026 517
10.1199998408556 457
10.1399998404086 494
10.1599998399615 499
10.1799998395145 488
10.1999998390675 515
10.2199998386204 506
10.2399998381734 500
10.2599998377264 530
10.2799998372793 507
10.2999998368323 515
10.3199998363853 563
10.3399998359382 574
10.3599998354912 552
10.3799998350441 549
10.3999998345971 555
10.4199998341501 559
10.439999833703 539
10.459999833256 589
10.479999832809 567
10.4999998323619 602
10.5199998319149 594
10.5399998314679 603
10.5599998310208 590
10.5799998305738 628
10.5999998301268 688
10.6199998296797 660
10.6399998292327 692
10.6599998287857 723
10.6799998283386 775
10.6999998278916 844
10.7199998274446 923
10.7399998269975 941
10.7599998265505 1024
10.7799998261034 1112
10.7999998256564 1230
10.8199998252094 1376
10.8399998247623 1390
10.8599998243153 1551
10.8799998238683 1907
10.8999998234212 2183
10.9199998229742 2718
10.9399998225272 3672
10.9599998220801 4402
10.9799998216331 3862
10.9999998211861 2579
11.019999820739 1414
11.039999820292 929
11.059999819845 729
11.0799998193979 672
11.0999998189509 693
11.1199998185039 684
11.1399998180568 658
11.1599998176098 662
11.1799998171628 676
11.1999998167157 756
11.2199998162687 727
11.2399998158216 772
11.2599998153746 812
11.2799998149276 844
11.2999998144805 925
11.3199998140335 959
11.3399998135865 1035
11.3599998131394 1121
11.3799998126924 1409
11.3999998122454 1759
11.4199998117983 2326
11.4399998113513 3031
11.4599998109043 2852
11.4799998104572 2162
11.4999998100102 1274
11.5199998095632 823
11.5399998091161 640
11.5599998086691 596
11.5799998082221 563
11.599999807775 572
11.619999807328 535
11.639999806881 498
11.6599998064339 526
11.6799998059869 524
11.6999998055398 513
11.7199998050928 530
11.7399998046458 520
11.7599998041987 530
11.7799998037517 531
11.7999998033047 491
11.8199998028576 514
11.8399998024106 556
11.8599998019636 496
11.8799998015165 500
11.8999998010695 522
11.9199998006225 517
11.9399998001754 543
11.9599997997284 524
11.9799997992814 487
11.9999997988343 549
12.0199997983873 539
12.0399997979403 558
12.0599997974932 499
12.0799997970462 495
12.0999997965992 475
12.1199997961521 541
12.1399997957051 508
12.159999795258 532
12.179999794811 522
12.199999794364 483
12.2199997939169 475
12.2399997934699 474
12.2599997930229 481
12.2799997925758 541
12.2999997921288 523
12.3199997916818 520
12.3399997912347 512
12.3599997907877 504
12.3799997903407 517
12.3999997898936 470
12.4199997894466 488
12.4399997889996 507
12.4599997885525 541
12.4799997881055 514
12.4999997876585 530
12.5199997872114 533
12.5399997867644 457
12.5599997863173 500
12.5799997858703 485
12.5999997854233 468
12.6199997849762 573
12.6399997845292 545
12.6599997840822 518
12.6799997836351 468
12.6999997831881 521
12.7199997827411 516
12.739999782294 536
12.759999781847 517
12.7799997814 516
12.7999997809529 498
12.8199997805059 470
12.8399997800589 514
12.8599997796118 489
12.8799997791648 506
12.8999997787178 520
12.9199997782707 565
12.9399997778237 577
12.9599997773767 521
12.9799997769296 592
12.9999997764826 562
13.0199997760355 594
13.0399997755885 665
13.0599997751415 596
13.0799997746944 614
13.0999997742474 671
13.1199997738004 681
13.1399997733533 700
13.1599997729063 777
13.1799997724593 856
13.1999997720122 1016
13.2199997715652 1140
13.2399997711182 1022
13.2599997706711 885
13.2799997702241 677
13.2999997697771 574
13.31999976933 490
13.339999768883 527
13.359999768436 538
13.3799997679889 540
13.3999997675419 560
13.4199997670949 527
13.4399997666478 548
13.4599997662008 510
13.4799997657537 527
13.4999997653067 519
13.5199997648597 544
13.5399997644126 536
13.5599997639656 531
13.5799997635186 539
13.5999997630715 543
13.6199997626245 486
13.6399997621775 512
13.6599997617304 502
13.6799997612834 513
13.6999997608364 502
13.7199997603893 496
13.7399997599423 524
13.7599997594953 532
13.7799997590482 483
13.7999997586012 550
13.8199997581542 504
13.8399997577071 562
13.8599997572601 521
13.879999756813 551
13.899999756366 520
13.919999755919 569
13.9399997554719 559
13.9599997550249 509
13.9799997545779 548
13.9999997541308 495
14.0199997536838 540
14.0399997532368 562
14.0599997527897 556
14.0799997523427 559
14.0999997518957 559
14.1199997514486 555
14.1399997510016 552
14.1599997505546 600
14.1799997501075 620
14.1999997496605 585
14.2199997492135 588
14.2399997487664 572
14.2599997483194 602
14.2799997478724 617
14.2999997474253 632
14.3199997469783 679
14.3399997465312 703
14.3599997460842 759
14.3799997456372 925
14.3999997451901 1054
14.4199997447431 1061
14.4399997442961 973
14.459999743849 789
14.479999743402 691
14.499999742955 579
14.5199997425079 561
14.5399997420609 540
14.5599997416139 557
14.5799997411668 532
14.5999997407198 573
14.6199997402728 565
14.6399997398257 551
14.6599997393787 588
14.6799997389317 552
14.6999997384846 606
14.7199997380376 572
14.7399997375906 602
14.7599997371435 671
14.7799997366965 686
14.7999997362494 714
14.8199997358024 651
14.8399997353554 593
14.8599997349083 568
14.8799997344613 578
14.8999997340143 555
14.9199997335672 556
14.9399997331202 535
14.9599997326732 573
14.9799997322261 556
14.9999997317791 557
15.0199997313321 541
15.039999730885 547
15.059999730438 530
15.079999729991 595
15.0999997295439 575
15.1199997290969 550
15.1399997286499 554
15.1599997282028 546
15.1799997277558 603
15.1999997273088 610
15.2199997268617 599
15.2399997264147 583
15.2599997259676 574
15.2799997255206 551
15.2999997250736 561
15.3199997246265 519
15.3399997241795 598
15.3599997237325 579
15.3799997232854 607
15.3999997228384 580
15.4199997223914 567
15.4399997219443 605
15.4599997214973 602
15.4799997210503 511
15.4999997206032 576
15.5199997201562 562
15.5399997197092 542
15.5599997192621 569
15.5799997188151 566
15.5999997183681 580
15.619999717921 592
15.639999717474 636
15.659999717027 568
15.6799997165799 589
15.6999997161329 605
15.7199997156858 573
15.7399997152388 573
15.7599997147918 557
15.7799997143447 584
15.7999997138977 595
15.8199997134507 587
15.8399997130036 580
15.8599997125566 607
15.8799997121096 583
15.8999997116625 574
15.9199997112155 579
15.9399997107685 551
15.9599997103214 595
15.9799997098744 555
15.9999997094274 585
16.0199997089803 595
16.0399997085333 608
16.0599997080863 549
16.0799997076392 605
16.0999997071922 604
16.1199997067451 632
16.1399997062981 610
16.1599997058511 602
16.179999705404 645
16.199999704957 666
16.21999970451 642
16.2399997040629 623
16.2599997036159 622
16.2799997031689 666
16.2999997027218 634
16.3199997022748 627
16.3399997018278 585
16.3599997013807 599
16.3799997009337 642
16.3999997004867 615
16.4199997000396 689
16.4399996995926 645
16.4599996991456 591
16.4799996986985 648
16.4999996982515 606
16.5199996978045 643
16.5399996973574 654
16.5599996969104 657
16.5799996964633 658
16.5999996960163 642
16.6199996955693 652
16.6399996951222 653
16.6599996946752 629
16.6799996942282 634
16.6999996937811 622
16.7199996933341 617
16.7399996928871 638
16.75999969244 648
16.779999691993 727
16.799999691546 676
16.8199996910989 731
16.8399996906519 710
16.8599996902049 744
16.8799996897578 771
16.8999996893108 841
16.9199996888638 841
16.9399996884167 852
16.9599996879697 784
16.9799996875226 708
16.9999996870756 718
17.0199996866286 706
17.0399996861815 747
17.0599996857345 714
17.0799996852875 740
17.0999996848404 758
17.1199996843934 866
17.1399996839464 885
17.1599996834993 986
17.1799996830523 1181
17.1999996826053 1128
17.2199996821582 1016
17.2399996817112 931
17.2599996812642 779
17.2799996808171 725
17.2999996803701 706
17.3199996799231 670
17.339999679476 686
17.359999679029 715
17.379999678582 708
17.3999996781349 686
17.4199996776879 704
17.4399996772408 672
17.4599996767938 665
17.4799996763468 695
17.4999996758997 707
17.5199996754527 719
17.5399996750057 749
17.5599996745586 730
17.5799996741116 678
17.5999996736646 717
17.6199996732175 709
17.6399996727705 748
17.6599996723235 704
17.6799996718764 719
17.6999996714294 728
17.7199996709824 720
17.7399996705353 711
17.7599996700883 781
17.7799996696413 722
17.7999996691942 745
17.8199996687472 728
17.8399996683002 709
17.8599996678531 713
17.8799996674061 683
17.899999666959 754
17.919999666512 821
17.939999666065 751
17.9599996656179 751
17.9799996651709 747
17.9999996647239 698
18.0199996642768 756
18.0399996638298 715
18.0599996633828 733
18.0799996629357 740
18.0999996624887 762
18.1199996620417 743
18.1399996615946 744
18.1599996611476 701
18.1799996607006 752
18.1999996602535 720
18.2199996598065 727
18.2399996593595 780
18.2599996589124 789
18.2799996584654 767
18.2999996580184 778
18.3199996575713 768
18.3399996571243 730
18.3599996566772 757
18.3799996562302 809
18.3999996557832 762
18.4199996553361 761
18.4399996548891 766
18.4599996544421 763
18.479999653995 815
18.499999653548 772
18.519999653101 771
18.5399996526539 742
18.5599996522069 798
18.5799996517599 784
18.5999996513128 750
18.6199996508658 754
18.6399996504188 792
18.6599996499717 784
18.6799996495247 801
18.6999996490777 779
18.7199996486306 803
18.7399996481836 823
18.7599996477366 797
18.7799996472895 770
18.7999996468425 778
18.8199996463954 798
18.8399996459484 820
18.8599996455014 858
18.8799996450543 815
18.8999996446073 837
18.9199996441603 841
18.9399996437132 802
18.9599996432662 848
18.9799996428192 856
18.9999996423721 814
19.0199996419251 765
19.0399996414781 825
19.059999641031 803
19.079999640584 807
19.099999640137 809
19.1199996396899 835
19.1399996392429 883
19.1599996387959 906
19.1799996383488 882
19.1999996379018 843
19.2199996374547 834
19.2399996370077 874
19.2599996365607 866
19.2799996361136 862
19.2999996356666 884
19.3199996352196 865
19.3399996347725 891
19.3599996343255 826
19.3799996338785 872
19.3999996334314 908
19.4199996329844 989
19.4399996325374 998
19.4599996320903 1033
19.4799996316433 1090
19.4999996311963 1205
19.5199996307492 1306
19.5399996303022 1490
19.5599996298552 1736
19.5799996294081 2082
19.5999996289611 1936
19.6199996285141 1708
19.639999628067 1640
19.65999962762 1311
19.6799996271729 1133
19.6999996267259 1095
19.7199996262789 1133
19.7399996258318 1152
19.7599996253848 1227
19.7799996249378 1375
19.7999996244907 1594
19.8199996240437 1881
19.8399996235967 2364
19.8599996231496 2921
19.8799996227026 2723
19.8999996222556 2235
19.9199996218085 1907
19.9399996213615 1356
19.9599996209145 1102
19.9799996204674 956
19.9999996200204 980
