3 1869
3.01999999955297 1683
3.03999999910593 1481
3.0599999986589 1379
3.07999999821186 1274
3.09999999776483 1221
3.11999999731779 1215
3.13999999687076 1112
3.15999999642372 1121
3.17999999597669 1067
3.19999999552965 993
3.21999999508262 1039
3.23999999463558 1022
3.25999999418855 982
3.27999999374151 928
3.29999999329448 1027
3.31999999284744 971
3.33999999240041 960
3.35999999195337 949
3.37999999150634 928
3.3999999910593 929
3.41999999061227 903
3.43999999016523 915
3.4599999897182 920
3.47999998927116 911
3.49999998882413 862
3.51999998837709 823
3.53999998793006 821
3.55999998748302 856
3.57999998703599 820
3.59999998658895 866
3.61999998614192 796
3.63999998569489 806
3.65999998524785 836
3.67999998480082 770
3.69999998435378 799
3.71999998390675 792
3.73999998345971 819
3.75999998301268 818
3.77999998256564 743
3.79999998211861 775
3.81999998167157 805
3.83999998122454 774
3.8599999807775 798
3.87999998033047 787
3.89999997988343 766
3.9199999794364 800
3.93999997898936 768
3.95999997854233 766
3.97999997809529 701
3.99999997764826 738
4.01999997720122 746
4.03999997675419 752
4.05999997630715 725
4.07999997586012 746
4.09999997541308 712
4.11999997496605 724
4.13999997451901 733
4.15999997407198 705
4.17999997362494 689
4.19999997317791 679
4.21999997273087 685
4.23999997228384 718
4.25999997183681 677
4.27999997138977 679
4.29999997094274 699
4.3199999704957 677
4.33999997004867 664
4.35999996960163 658
4.3799999691546 743
4.39999996870756 736
4.41999996826053 679
4.43999996781349 668
4.45999996736646 685
4.47999996691942 664
4.49999996647239 689
4.51999996602535 706
4.53999996557832 682
4.55999996513128 688
4.57999996468425 702
4.59999996423721 663
4.61999996379018 640
4.63999996334314 685
4.65999996289611 677
4.67999996244907 666
4.69999996200204 702
4.719999961555 669
4.73999996110797 658
4.75999996066093 670
4.7799999602139 684
4.79999995976686 703
4.81999995931983 658
4.83999995887279 704
4.85999995842576 597
4.87999995797873 652
4.89999995753169 657
4.91999995708466 677
4.93999995663762 699
4.95999995619059 705
4.97999995574355 624
4.99999995529652 681
5.01999995484948 665
5.03999995440245 709
5.05999995395541 706
5.07999995350838 649
5.09999995306134 675
5.11999995261431 695
5.13999995216727 687
5.15999995172024 657
5.1799999512732 641
5.19999995082617 669
5.21999995037913 672
5.2399999499321 710
5.25999994948506 676
5.27999994903803 658
5.29999994859099 671
5.31999994814396 697
5.33999994769692 705
5.35999994724989 656
5.37999994680285 706
5.39999994635582 613
5.41999994590878 652
5.43999994546175 662
5.45999994501471 667
5.47999994456768 642
5.49999994412065 722
5.51999994367361 707
5.53999994322658 690
5.55999994277954 667
5.57999994233251 685
5.59999994188547 693
5.61999994143844 675
5.6399999409914 653
5.65999994054437 695
5.67999994009733 661
5.6999999396503 651
5.71999993920326 677
5.73999993875623 675
5.75999993830919 631
5.77999993786216 674
5.79999993741512 696
5.81999993696809 666
5.83999993652105 655
5.85999993607402 643
5.87999993562698 644
5.89999993517995 690
5.91999993473291 678
5.93999993428588 683
5.95999993383884 681
5.97999993339181 694
5.99999993294477 695
6.01999993249774 676
6.0399999320507 699
6.05999993160367 637
6.07999993115663 628
6.0999999307096 681
6.11999993026257 637
6.13999992981553 635
6.1599999293685 691
6.17999992892146 676
6.19999992847443 617
6.21999992802739 663
6.23999992758036 697
6.25999992713332 697
6.27999992668629 687
6.29999992623925 634
6.31999992579222 663
6.33999992534518 640
6.35999992489815 702
6.37999992445111 712
6.39999992400408 688
6.41999992355704 683
6.43999992311001 702
6.45999992266297 653
6.47999992221594 672
6.4999999217689 656
6.51999992132187 675
6.53999992087483 667
6.5599999204278 691
6.57999991998076 701
6.59999991953373 712
6.61999991908669 650
6.63999991863966 703
6.65999991819262 682
6.67999991774559 683
6.69999991729855 652
6.71999991685152 652
6.73999991640449 666
6.75999991595745 656
6.77999991551042 652
6.79999991506338 655
6.81999991461635 644
6.83999991416931 646
6.85999991372228 673
6.87999991327524 664
6.89999991282821 677
6.91999991238117 676
6.93999991193414 697
6.9599999114871 636
6.97999991104007 700
6.99999991059303 661
7.019999910146 663
7.03999990969896 682
7.05999990925193 698
7.07999990880489 718
7.09999990835786 650
7.11999990791082 666
7.13999990746379 666
7.15999990701675 666
7.17999990656972 649
7.19999990612268 672
7.21999990567565 664
7.23999990522861 703
7.25999990478158 642
7.27999990433454 698
7.29999990388751 681
7.31999990344047 667
7.33999990299344 611
7.35999990254641 657
7.37999990209937 662
7.39999990165234 661
7.4199999012053 674
7.43999990075827 636
7.45999990031123 690
7.4799998998642 703
7.49999989941716 647
7.51999989897013 652
7.53999989852309 671
7.55999989807606 659
7.57999989762902 678
7.59999989718199 651
7.61999989673495 645
7.63999989628792 640
7.65999989584088 654
7.67999989539385 668
7.69999989494681 638
7.71999989449978 670
7.73999989405274 663
7.75999989360571 636
7.77999989315867 667
7.79999989271164 652
7.8199998922646 642
7.83999989181757 646
7.85999989137053 662
7.8799998909235 706
7.89999989047646 688
7.91999989002943 659
7.9399998895824 665
7.95999988913536 663
7.97999988868833 715
7.99999988824129 694
8.01999988779426 668
8.03999988734722 679
8.05999988690019 659
8.07999988645315 667
8.09999988600612 656
8.11999988555908 694
8.13999988511205 649
8.15999988466501 637
8.17999988421798 658
8.19999988377094 677
8.21999988332391 666
8.23999988287687 683
8.25999988242984 677
8.2799998819828 674
8.29999988153577 687
8.31999988108873 702
8.3399998806417 632
8.35999988019466 694
8.37999987974763 724
8.39999987930059 649
8.41999987885356 698
8.43999987840652 671
8.45999987795949 694
8.47999987751245 618
8.49999987706542 657
8.51999987661839 670
8.53999987617135 659
8.55999987572432 676
8.57999987527728 688
8.59999987483025 671
8.61999987438321 656
8.63999987393618 641
8.65999987348914 676
8.67999987304211 640
8.69999987259507 682
8.71999987214804 689
8.739999871701 669
8.75999987125397 658
8.77999987080693 633
8.7999998703599 706
8.81999986991286 647
8.83999986946583 643
8.85999986901879 641
8.87999986857176 690
8.89999986812472 687
8.91999986767769 650
8.93999986723065 638
8.95999986678362 664
8.97999986633658 656
8.99999986588955 651
9.01999986544251 685
9.03999986499548 712
9.05999986454844 677
9.07999986410141 695
9.09999986365438 636
9.11999986320734 662
9.13999986276031 652
9.15999986231327 674
9.17999986186624 637
9.1999998614192 620
9.21999986097217 650
9.23999986052513 615
9.2599998600781 715
9.27999985963106 716
9.29999985918403 677
9.31999985873699 701
9.33999985828996 656
9.35999985784292 654
9.37999985739589 652
9.39999985694885 628
9.41999985650182 686
9.43999985605478 652
9.45999985560775 666
9.47999985516071 680
9.49999985471368 677
9.51999985426664 646
9.53999985381961 671
9.55999985337257 689
9.57999985292554 636
9.5999998524785 641
9.61999985203147 669
9.63999985158443 706
9.6599998511374 660
9.67999985069037 667
9.69999985024333 676
9.7199998497963 634
9.73999984934926 643
9.75999984890223 684
9.77999984845519 684
9.79999984800816 706
9.81999984756112 669
9.83999984711409 687
9.85999984666705 676
9.87999984622002 657
9.89999984577298 660
9.91999984532595 677
9.93999984487891 711
9.95999984443188 661
9.97999984398484 667
9.99999984353781 699
10.0199998430908 603
10.0399998426437 686
10.0599998421967 658
10.0799998417497 654
10.0999998413026 724
10.1199998408556 689
10.1399998404086 659
10.1599998399615 641
10.1799998395145 673
10.1999998390675 684
10.2199998386204 679
10.2399998381734 680
10.2599998377264 659
10.2799998372793 650
10.2999998368323 647
10.3199998363853 614
10.3399998359382 659
10.3599998354912 660
10.3799998350441 636
10.3999998345971 669
10.4199998341501 699
10.439999833703 642
10.459999833256 673
10.479999832809 662
10.4999998323619 643
10.5199998319149 654
10.5399998314679 639
10.5599998310208 654
10.5799998305738 687
10.5999998301268 628
10.6199998296797 667
10.6399998292327 674
10.6599998287857 652
10.6799998283386 629
10.6999998278916 659
10.7199998274446 686
10.7399998269975 657
10.7599998265505 663
10.7799998261034 664
10.7999998256564 637
10.8199998252094 662
10.8399998247623 688
10.8599998243153 650
10.8799998238683 647
10.8999998234212 675
10.9199998229742 690
10.9399998225272 661
10.9599998220801 716
10.9799998216331 679
10.9999998211861 639
11.019999820739 657
11.039999820292 707
11.059999819845 671
11.0799998193979 651
11.0999998189509 708
11.1199998185039 702
11.1399998180568 647
11.1599998176098 678
11.1799998171628 693
11.1999998167157 648
11.2199998162687 690
11.2399998158216 667
11.2599998153746 689
11.2799998149276 709
11.2999998144805 693
11.3199998140335 708
11.3399998135865 652
11.3599998131394 673
11.3799998126924 635
11.3999998122454 661
11.4199998117983 646
11.4399998113513 677
11.4599998109043 689
11.4799998104572 676
11.4999998100102 698
11.5199998095632 697
11.5399998091161 630
11.5599998086691 708
11.5799998082221 663
11.599999807775 629
11.619999807328 642
11.639999806881 700
11.6599998064339 671
11.6799998059869 668
11.6999998055398 680
11.7199998050928 680
11.7399998046458 675
11.7599998041987 659
11.7799998037517 700
11.7999998033047 733
11.8199998028576 667
11.8399998024106 675
11.8599998019636 669
11.8799998015165 723
11.8999998010695 676
11.9199998006225 649
11.9399998001754 688
11.9599997997284 668
11.9799997992814 695
11.9999997988343 692
12.0199997983873 718
12.0399997979403 678
12.0599997974932 686
12.0799997970462 692
12.0999997965992 704
12.1199997961521 676
12.1399997957051 700
12.159999795258 687
12.179999794811 664
12.199999794364 696
12.2199997939169 711
12.2399997934699 670
12.2599997930229 657
12.2799997925758 675
12.2999997921288 676
12.3199997916818 674
12.3399997912347 723
12.3599997907877 740
12.3799997903407 687
12.3999997898936 693
12.4199997894466 705
12.4399997889996 687
12.4599997885525 703
12.4799997881055 694
12.4999997876585 651
12.5199997872114 646
12.5399997867644 701
12.5599997863173 685
12.5799997858703 669
12.5999997854233 679
12.6199997849762 723
12.6399997845292 691
12.6599997840822 658
12.6799997836351 708
12.6999997831881 652
12.7199997827411 673
12.739999782294 718
12.759999781847 687
12.7799997814 718
12.7999997809529 697
12.8199997805059 710
12.8399997800589 693
12.8599997796118 679
12.8799997791648 729
12.8999997787178 721
12.9199997782707 711
12.9399997778237 699
12.9599997773767 666
12.9799997769296 744
12.9999997764826 681
13.0199997760355 720
13.0399997755885 714
13.0599997751415 680
13.0799997746944 694
13.0999997742474 754
13.1199997738004 718
13.1399997733533 755
13.1599997729063 691
13.1799997724593 714
13.1999997720122 678
13.2199997715652 738
13.2399997711182 716
13.2599997706711 685
13.2799997702241 691
13.2999997697771 768
13.31999976933 725
13.339999768883 701
13.359999768436 742
13.3799997679889 722
13.3999997675419 739
13.4199997670949 748
13.4399997666478 679
13.4599997662008 722
13.4799997657537 742
13.4999997653067 724
13.5199997648597 707
13.5399997644126 722
13.5599997639656 729
13.5799997635186 712
13.5999997630715 732
13.6199997626245 742
13.6399997621775 687
13.6599997617304 718
13.6799997612834 714
13.6999997608364 751
13.7199997603893 737
13.7399997599423 788
13.7599997594953 734
13.7799997590482 744
13.7999997586012 768
13.8199997581542 741
13.8399997577071 750
13.8599997572601 741
13.879999756813 755
13.899999756366 749
13.919999755919 733
13.9399997554719 731
13.9599997550249 737
13.9799997545779 742
13.9999997541308 742
14.0199997536838 802
14.0399997532368 763
14.0599997527897 748
14.0799997523427 810
14.0999997518957 750
14.1199997514486 748
14.1399997510016 774
14.1599997505546 803
14.1799997501075 744
14.1999997496605 741
14.2199997492135 796
14.2399997487664 779
14.2599997483194 777
14.2799997478724 798
14.2999997474253 778
14.3199997469783 765
14.3399997465312 746
14.3599997460842 760
14.3799997456372 812
14.3999997451901 841
14.4199997447431 737
14.4399997442961 775
14.459999743849 773
14.479999743402 807
14.499999742955 833
14.5199997425079 737
14.5399997420609 753
14.5599997416139 770
14.5799997411668 802
14.5999997407198 784
14.6199997402728 733
14.6399997398257 745
14.6599997393787 795
14.6799997389317 818
14.6999997384846 830
14.7199997380376 771
14.7399997375906 791
14.7599997371435 794
14.7799997366965 822
14.7999997362494 807
14.8199997358024 826
14.8399997353554 851
14.8599997349083 815
14.8799997344613 746
14.8999997340143 819
14.9199997335672 862
14.9399997331202 807
14.9599997326732 805
14.9799997322261 769
14.9999997317791 830
15.0199997313321 818
15.039999730885 838
15.059999730438 810
15.079999729991 856
15.0999997295439 828
15.1199997290969 870
15.1399997286499 857
15.1599997282028 872
15.1799997277558 864
15.1999997273088 822
15.2199997268617 830
15.2399997264147 828
15.2599997259676 889
15.2799997255206 810
15.2999997250736 866
15.3199997246265 883
15.3399997241795 881
15.3599997237325 813
15.3799997232854 861
15.3999997228384 863
15.4199997223914 864
15.4399997219443 841
15.4599997214973 864
15.4799997210503 913
15.4999997206032 969
15.5199997201562 831
15.5399997197092 894
15.5599997192621 885
15.5799997188151 877
15.5999997183681 884
15.619999717921 930
15.639999717474 912
15.659999717027 869
15.6799997165799 898
15.6999997161329 886
15.7199997156858 948
15.7399997152388 939
15.7599997147918 893
15.7799997143447 891
15.7999997138977 869
15.8199997134507 867
15.8399997130036 984
15.8599997125566 909
15.8799997121096 931
15.8999997116625 884
15.9199997112155 907
15.9399997107685 958
15.9599997103214 919
15.9799997098744 952
15.9999997094274 935
16.0199997089803 948
16.0399997085333 933
16.0599997080863 899
16.0799997076392 931
16.0999997071922 925
16.1199997067451 959
16.1399997062981 954
16.1599997058511 932
16.179999705404 913
16.199999704957 919
16.21999970451 929
16.2399997040629 952
16.2599997036159 1011
16.2799997031689 971
16.2999997027218 1000
16.3199997022748 930
16.3399997018278 988
16.3599997013807 1001
16.3799997009337 952
16.3999997004867 994
16.4199997000396 949
16.4399996995926 969
16.4599996991456 978
16.4799996986985 958
16.4999996982515 955
16.5199996978045 970
16.5399996973574 988
16.5599996969104 955
16.5799996964633 1035
16.5999996960163 1006
16.6199996955693 1021
16.6399996951222 1020
16.6599996946752 1036
16.6799996942282 1031
16.6999996937811 982
16.7199996933341 1062
16.7399996928871 1056
16.75999969244 1061
16.779999691993 1046
16.799999691546 1042
16.8199996910989 1106
16.8399996906519 1057
16.8599996902049 1066
16.8799996897578 1150
16.8999996893108 1118
16.9199996888638 1125
16.9399996884167 1154
16.9599996879697 1206
16.9799996875226 1239
16.9999996870756 1255
17.0199996866286 1310
17.0399996861815 1377
17.0599996857345 1366
17.0799996852875 1301
17.0999996848404 1269
17.1199996843934 1230
17.1399996839464 1240
17.1599996834993 1169
17.1799996830523 1133
17.1999996826053 1169
17.2199996821582 1132
17.2399996817112 1145
17.2599996812642 1115
17.2799996808171 1079
17.2999996803701 1081
17.3199996799231 1104
17.339999679476 1129
17.359999679029 1125
17.379999678582 1147
17.3999996781349 1161
17.4199996776879 1105
17.4399996772408 1164
17.4599996767938 1170
17.4799996763468 1182
17.4999996758997 1202
17.5199996754527 1172
17.5399996750057 1181
17.5599996745586 1147
17.5799996741116 1151
17.5999996736646 1188
17.6199996732175 1219
17.6399996727705 1215
17.6599996723235 1173
17.6799996718764 1206
17.6999996714294 1142
17.7199996709824 1164
17.7399996705353 1156
17.7599996700883 1198
17.7799996696413 1213
17.7999996691942 1218
17.8199996687472 1225
17.8399996683002 1234
17.8599996678531 1228
17.8799996674061 1184
17.899999666959 1223
17.919999666512 1232
17.939999666065 1270
17.9599996656179 1243
17.9799996651709 1263
17.9999996647239 1269
18.0199996642768 1255
18.0399996638298 1227
18.0599996633828 1232
18.0799996629357 1256
18.0999996624887 1292
18.1199996620417 1333
18.1399996615946 1223
18.1599996611476 1273
18.1799996607006 1248
18.1999996602535 1267
18.2199996598065 1350
18.2399996593595 1307
18.2599996589124 1266
18.2799996584654 1297
18.2999996580184 1270
18.3199996575713 1274
18.3399996571243 1332
18.3599996566772 1263
18.3799996562302 1329
18.3999996557832 1321
18.4199996553361 1364
18.4399996548891 1312
18.4599996544421 1359
18.479999653995 1382
18.499999653548 1380
18.519999653101 1377
18.5399996526539 1356
18.5599996522069 1403
18.5799996517599 1409
18.5999996513128 1384
18.6199996508658 1321
18.6399996504188 1355
18.6599996499717 1321
18.6799996495247 1376
18.6999996490777 1402
18.7199996486306 1431
18.7399996481836 1389
18.7599996477366 1393
18.7799996472895 1389
18.7999996468425 1398
18.8199996463954 1420
18.8399996459484 1373
18.8599996455014 1403
18.8799996450543 1463
18.8999996446073 1423
18.9199996441603 1436
18.9399996437132 1423
18.9599996432662 1409
18.9799996428192 1442
18.9999996423721 1428
19.0199996419251 1464
19.0399996414781 1408
19.059999641031 1432
19.079999640584 1414
19.099999640137 1462
19.1199996396899 1444
19.1399996392429 1512
19.1599996387959 1379
19.1799996383488 1520
19.1999996379018 1459
19.2199996374547 1546
19.2399996370077 1480
19.2599996365607 1494
19.2799996361136 1476
19.2999996356666 1527
19.3199996352196 1479
19.3399996347725 1470
19.3599996343255 1567
19.3799996338785 1462
19.3999996334314 1504
19.4199996329844 1470
19.4399996325374 1576
19.4599996320903 1546
19.4799996316433 1578
19.4999996311963 1587
19.5199996307492 1562
19.5399996303022 1551
19.5599996298552 1545
19.5799996294081 1581
19.5999996289611 1580
19.6199996285141 1555
19.639999628067 1612
19.65999962762 1550
19.6799996271729 1562
19.6999996267259 1586
19.7199996262789 1586
19.7399996258318 1599
19.7599996253848 1595
19.7799996249378 1544
19.7999996244907 1535
19.8199996240437 1604
19.8399996235967 1662
19.8599996231496 1616
19.8799996227026 1661
19.8999996222556 1590
19.9199996218085 1632
19.9399996213615 1675
19.9599996209145 1558
19.9799996204674 1614
19.9999996200204 1630
