3 1050
3.01999999955297 958
3.03999999910593 854
3.0599999986589 811
3.07999999821186 721
3.09999999776483 687
3.11999999731779 688
3.13999999687076 670
3.15999999642372 612
3.17999999597669 640
3.19999999552965 609
3.21999999508262 550
3.23999999463558 619
3.25999999418855 558
3.27999999374151 550
3.29999999329448 573
3.31999999284744 583
3.33999999240041 576
3.35999999195337 542
3.37999999150634 574
3.3999999910593 556
3.41999999061227 531
3.43999999016523 502
3.4599999897182 522
3.47999998927116 533
3.49999998882413 521
3.51999998837709 541
3.53999998793006 515
3.55999998748302 506
3.57999998703599 541
3.59999998658895 528
3.61999998614192 502
3.63999998569489 515
3.65999998524785 511
3.67999998480082 478
3.69999998435378 529
3.71999998390675 536
3.73999998345971 459
3.75999998301268 508
3.77999998256564 467
3.79999998211861 463
3.81999998167157 423
3.83999998122454 468
3.8599999807775 472
3.87999998033047 475
3.89999997988343 510
3.9199999794364 444
3.93999997898936 489
3.95999997854233 510
3.97999997809529 451
3.99999997764826 451
4.01999997720122 469
4.03999997675419 462
4.05999997630715 464
4.07999997586012 504
4.09999997541308 500
4.11999997496605 464
4.13999997451901 477
4.15999997407198 504
4.17999997362494 534
4.19999997317791 457
4.21999997273087 492
4.23999997228384 449
4.25999997183681 455
4.27999997138977 442
4.29999997094274 438
4.3199999704957 433
4.33999997004867 445
4.35999996960163 466
4.3799999691546 468
4.39999996870756 454
4.41999996826053 446
4.43999996781349 440
4.45999996736646 419
4.47999996691942 432
4.49999996647239 425
4.51999996602535 445
4.53999996557832 468
4.55999996513128 452
4.57999996468425 465
4.59999996423721 429
4.61999996379018 450
4.63999996334314 462
4.65999996289611 452
4.67999996244907 463
4.69999996200204 438
4.719999961555 408
4.73999996110797 445
4.75999996066093 459
4.7799999602139 469
4.79999995976686 450
4.81999995931983 425
4.83999995887279 486
4.85999995842576 467
4.87999995797873 513
4.89999995753169 478
4.91999995708466 524
4.93999995663762 435
4.95999995619059 490
4.97999995574355 477
4.99999995529652 459
5.01999995484948 509
5.03999995440245 523
5.05999995395541 473
5.07999995350838 516
5.09999995306134 475
5.11999995261431 484
5.13999995216727 489
5.15999995172024 471
5.1799999512732 469
5.19999995082617 465
5.21999995037913 503
5.2399999499321 493
5.25999994948506 468
5.27999994903803 510
5.29999994859099 506
5.31999994814396 524
5.33999994769692 502
5.35999994724989 530
5.37999994680285 525
5.39999994635582 527
5.41999994590878 547
5.43999994546175 525
5.45999994501471 558
5.47999994456768 552
5.49999994412065 593
5.51999994367361 622
5.53999994322658 622
5.55999994277954 590
5.57999994233251 561
5.59999994188547 572
5.61999994143844 592
5.6399999409914 594
5.65999994054437 606
5.67999994009733 546
5.6999999396503 610
5.71999993920326 624
5.73999993875623 665
5.75999993830919 686
5.77999993786216 684
5.79999993741512 727
5.81999993696809 771
5.83999993652105 821
5.85999993607402 858
5.87999993562698 890
5.89999993517995 937
5.91999993473291 729
5.93999993428588 629
5.95999993383884 541
5.97999993339181 477
5.99999993294477 489
6.01999993249774 482
6.0399999320507 485
6.05999993160367 462
6.07999993115663 451
6.0999999307096 423
6.11999993026257 427
6.13999992981553 488
6.1599999293685 458
6.17999992892146 451
6.19999992847443 406
6.21999992802739 450
6.23999992758036 438
6.25999992713332 444
6.27999992668629 437
6.29999992623925 401
6.31999992579222 444
6.33999992534518 403
6.35999992489815 447
6.37999992445111 425
6.39999992400408 390
6.41999992355704 460
6.43999992311001 426
6.45999992266297 440
6.47999992221594 397
6.4999999217689 406
6.51999992132187 425
6.53999992087483 383
6.5599999204278 396
6.57999991998076 424
6.59999991953373 407
6.61999991908669 426
6.63999991863966 473
6.65999991819262 466
6.67999991774559 456
6.69999991729855 443
6.71999991685152 454
6.73999991640449 430
6.75999991595745 495
6.77999991551042 445
6.79999991506338 461
6.81999991461635 465
6.83999991416931 450
6.85999991372228 455
6.87999991327524 422
6.89999991282821 428
6.91999991238117 417
6.93999991193414 430
6.9599999114871 383
6.97999991104007 419
6.99999991059303 386
7.019999910146 408
7.03999990969896 392
7.05999990925193 392
7.07999990880489 398
7.09999990835786 405
7.11999990791082 432
7.13999990746379 407
7.15999990701675 389
7.17999990656972 427
7.19999990612268 399
7.21999990567565 360
7.23999990522861 391
7.25999990478158 393
7.27999990433454 436
7.29999990388751 422
7.31999990344047 412
7.33999990299344 418
7.35999990254641 395
7.37999990209937 386
7.39999990165234 412
7.4199999012053 402
7.43999990075827 378
7.45999990031123 386
7.4799998998642 407
7.49999989941716 408
7.51999989897013 418
7.53999989852309 386
7.55999989807606 401
7.57999989762902 410
7.59999989718199 383
7.61999989673495 399
7.63999989628792 405
7.65999989584088 444
7.67999989539385 403
7.69999989494681 427
7.71999989449978 397
7.73999989405274 408
7.75999989360571 403
7.77999989315867 400
7.79999989271164 397
7.8199998922646 381
7.83999989181757 400
7.85999989137053 387
7.8799998909235 387
7.89999989047646 429
7.91999989002943 404
7.9399998895824 421
7.95999988913536 408
7.97999988868833 377
7.99999988824129 393
8.01999988779426 372
8.03999988734722 360
8.05999988690019 416
8.07999988645315 400
8.09999988600612 389
8.11999988555908 406
8.13999988511205 423
8.15999988466501 412
8.17999988421798 394
8.19999988377094 410
8.21999988332391 431
8.23999988287687 427
8.25999988242984 408
8.2799998819828 427
8.29999988153577 401
8.31999988108873 440
8.3399998806417 368
8.35999988019466 421
8.37999987974763 416
8.39999987930059 396
8.41999987885356 390
8.43999987840652 400
8.45999987795949 392
8.47999987751245 393
8.49999987706542 390
8.51999987661839 388
8.53999987617135 425
8.55999987572432 393
8.57999987527728 423
8.59999987483025 378
8.61999987438321 388
8.63999987393618 431
8.65999987348914 387
8.67999987304211 404
8.69999987259507 431
8.71999987214804 405
8.739999871701 400
8.75999987125397 376
8.77999987080693 387
8.7999998703599 432
8.81999986991286 403
8.83999986946583 388
8.85999986901879 400
8.87999986857176 425
8.89999986812472 375
8.91999986767769 404
8.93999986723065 393
8.95999986678362 430
8.97999986633658 432
8.99999986588955 412
9.01999986544251 434
9.03999986499548 414
9.05999986454844 446
9.07999986410141 422
9.09999986365438 424
9.11999986320734 436
9.13999986276031 405
9.15999986231327 408
9.17999986186624 458
9.1999998614192 436
9.21999986097217 435
9.23999986052513 425
9.2599998600781 486
9.27999985963106 447
9.29999985918403 425
9.31999985873699 468
9.33999985828996 480
9.35999985784292 481
9.37999985739589 505
9.39999985694885 500
9.41999985650182 536
9.43999985605478 550
9.45999985560775 542
9.47999985516071 519
9.49999985471368 481
9.51999985426664 418
9.53999985381961 402
9.55999985337257 424
9.57999985292554 424
9.5999998524785 396
9.61999985203147 426
9.63999985158443 427
9.6599998511374 407
9.67999985069037 430
9.69999985024333 402
9.7199998497963 389
9.73999984934926 439
9.75999984890223 384
9.77999984845519 411
9.79999984800816 440
9.81999984756112 425
9.83999984711409 403
9.85999984666705 416
9.87999984622002 417
9.89999984577298 412
9.91999984532595 445
9.93999984487891 450
9.95999984443188 392
9.97999984398484 415
9.99999984353781 394
10.0199998430908 406
10.0399998426437 388
10.0599998421967 367
10.0799998417497 406
10.0999998413026 437
10.1199998408556 425
10.1399998404086 419
10.1599998399615 416
10.1799998395145 430
10.1999998390675 418
10.2199998386204 485
10.2399998381734 464
10.2599998377264 486
10.2799998372793 422
10.2999998368323 431
10.3199998363853 480
10.3399998359382 433
10.3599998354912 452
10.3799998350441 413
10.3999998345971 416
10.4199998341501 433
10.439999833703 401
10.459999833256 403
10.479999832809 458
10.4999998323619 402
10.5199998319149 421
10.5399998314679 427
10.5599998310208 413
10.5799998305738 419
10.5999998301268 403
10.6199998296797 459
10.6399998292327 439
10.6599998287857 381
10.6799998283386 445
10.6999998278916 408
10.7199998274446 443
10.7399998269975 423
10.7599998265505 443
10.7799998261034 423
10.7999998256564 447
10.8199998252094 428
10.8399998247623 453
10.8599998243153 423
10.8799998238683 457
10.8999998234212 488
10.9199998229742 489
10.9399998225272 432
10.9599998220801 458
10.9799998216331 486
10.9999998211861 486
11.019999820739 514
11.039999820292 479
11.059999819845 498
11.0799998193979 497
11.0999998189509 514
11.1199998185039 469
11.1399998180568 426
11.1599998176098 422
11.1799998171628 424
11.1999998167157 406
11.2199998162687 401
11.2399998158216 413
11.2599998153746 444
11.2799998149276 418
11.2999998144805 440
11.3199998140335 443
11.3399998135865 415
11.3599998131394 467
11.3799998126924 464
11.3999998122454 453
11.4199998117983 438
11.4399998113513 440
11.4599998109043 461
11.4799998104572 433
11.4999998100102 417
11.5199998095632 437
11.5399998091161 426
11.5599998086691 491
11.5799998082221 510
11.599999807775 499
11.619999807328 460
11.639999806881 477
11.6599998064339 454
11.6799998059869 450
11.6999998055398 427
11.7199998050928 422
11.7399998046458 451
11.7599998041987 456
11.7799998037517 432
11.7999998033047 435
11.8199998028576 424
11.8399998024106 422
11.8599998019636 442
11.8799998015165 423
11.8999998010695 442
11.9199998006225 414
11.9399998001754 397
11.9599997997284 458
11.9799997992814 426
11.9999997988343 462
12.0199997983873 452
12.0399997979403 444
12.0599997974932 441
12.0799997970462 474
12.0999997965992 437
12.1199997961521 436
12.1399997957051 426
12.159999795258 420
12.179999794811 454
12.199999794364 453
12.2199997939169 428
12.2399997934699 394
12.2599997930229 436
12.2799997925758 459
12.2999997921288 426
12.3199997916818 455
12.3399997912347 425
12.3599997907877 423
12.3799997903407 443
12.3999997898936 418
12.4199997894466 422
12.4399997889996 441
12.4599997885525 454
12.4799997881055 441
12.4999997876585 421
12.5199997872114 421
12.5399997867644 454
12.5599997863173 433
12.5799997858703 409
12.5999997854233 421
12.6199997849762 434
12.6399997845292 419
12.6599997840822 468
12.6799997836351 432
12.6999997831881 422
12.7199997827411 457
12.739999782294 478
12.759999781847 431
12.7799997814 463
12.7999997809529 452
12.8199997805059 451
12.8399997800589 422
12.8599997796118 421
12.8799997791648 418
12.8999997787178 435
12.9199997782707 445
12.9399997778237 489
12.9599997773767 467
12.9799997769296 433
12.9999997764826 444
13.0199997760355 431
13.0399997755885 433
13.0599997751415 451
13.0799997746944 479
13.0999997742474 484
13.1199997738004 484
13.1399997733533 479
13.1599997729063 461
13.1799997724593 467
13.1999997720122 450
13.2199997715652 460
13.2399997711182 430
13.2599997706711 450
13.2799997702241 446
13.2999997697771 480
13.31999976933 434
13.339999768883 454
13.359999768436 466
13.3799997679889 464
13.3999997675419 463
13.4199997670949 457
13.4399997666478 453
13.4599997662008 412
13.4799997657537 490
13.4999997653067 510
13.5199997648597 451
13.5399997644126 439
13.5599997639656 452
13.5799997635186 452
13.5999997630715 488
13.6199997626245 489
13.6399997621775 442
13.6599997617304 440
13.6799997612834 466
13.6999997608364 485
13.7199997603893 448
13.7399997599423 516
13.7599997594953 480
13.7799997590482 513
13.7999997586012 481
13.8199997581542 481
13.8399997577071 469
13.8599997572601 480
13.879999756813 449
13.899999756366 469
13.919999755919 457
13.9399997554719 529
13.9599997550249 486
13.9799997545779 506
13.9999997541308 480
14.0199997536838 447
14.0399997532368 458
14.0599997527897 463
14.0799997523427 469
14.0999997518957 446
14.1199997514486 481
14.1399997510016 479
14.1599997505546 486
14.1799997501075 483
14.1999997496605 492
14.2199997492135 475
14.2399997487664 480
14.2599997483194 502
14.2799997478724 515
14.2999997474253 510
14.3199997469783 529
14.3399997465312 487
14.3599997460842 467
14.3799997456372 464
14.3999997451901 538
14.4199997447431 505
14.4399997442961 472
14.459999743849 525
14.479999743402 472
14.499999742955 494
14.5199997425079 542
14.5399997420609 488
14.5599997416139 514
14.5799997411668 482
14.5999997407198 518
14.6199997402728 501
14.6399997398257 538
14.6599997393787 512
14.6799997389317 497
14.6999997384846 519
14.7199997380376 496
14.7399997375906 510
14.7599997371435 522
14.7799997366965 540
14.7999997362494 546
14.8199997358024 533
14.8399997353554 521
14.8599997349083 527
14.8799997344613 488
14.8999997340143 533
14.9199997335672 480
14.9399997331202 524
14.9599997326732 540
14.9799997322261 526
14.9999997317791 523
15.0199997313321 524
15.039999730885 561
15.059999730438 532
15.079999729991 493
15.0999997295439 519
15.1199997290969 525
15.1399997286499 504
15.1599997282028 555
15.1799997277558 552
15.1999997273088 571
15.2199997268617 529
15.2399997264147 569
15.2599997259676 550
15.2799997255206 518
15.2999997250736 537
15.3199997246265 549
15.3399997241795 589
15.3599997237325 547
15.3799997232854 516
15.3999997228384 558
15.4199997223914 554
15.4399997219443 501
15.4599997214973 524
15.4799997210503 574
15.4999997206032 542
15.5199997201562 597
15.5399997197092 573
15.5599997192621 551
15.5799997188151 559
15.5999997183681 553
15.619999717921 557
15.639999717474 568
15.659999717027 526
15.6799997165799 558
15.6999997161329 589
15.7199997156858 575
15.7399997152388 537
15.7599997147918 555
15.7799997143447 533
15.7999997138977 571
15.8199997134507 611
15.8399997130036 608
15.8599997125566 571
15.8799997121096 610
15.8999997116625 601
15.9199997112155 528
15.9399997107685 587
15.9599997103214 645
15.9799997098744 614
15.9999997094274 562
16.0199997089803 601
16.0399997085333 623
16.0599997080863 615
16.0799997076392 583
16.0999997071922 587
16.1199997067451 573
16.1399997062981 604
16.1599997058511 593
16.179999705404 618
16.199999704957 630
16.21999970451 598
16.2399997040629 596
16.2599997036159 630
16.2799997031689 608
16.2999997027218 593
16.3199997022748 605
16.3399997018278 568
16.3599997013807 663
16.3799997009337 604
16.3999997004867 653
16.4199997000396 648
16.4399996995926 646
16.4599996991456 609
16.4799996986985 619
16.4999996982515 630
16.5199996978045 612
16.5399996973574 659
16.5599996969104 639
16.5799996964633 631
16.5999996960163 661
16.6199996955693 640
16.6399996951222 636
16.6599996946752 663
16.6799996942282 673
16.6999996937811 671
16.7199996933341 571
16.7399996928871 639
16.75999969244 667
16.779999691993 669
16.799999691546 647
16.8199996910989 676
16.8399996906519 641
16.8599996902049 677
16.8799996897578 686
16.8999996893108 644
16.9199996888638 691
16.9399996884167 691
16.9599996879697 665
16.9799996875226 680
16.9999996870756 745
17.0199996866286 728
17.0399996861815 689
17.0599996857345 728
17.0799996852875 766
17.0999996848404 767
17.1199996843934 737
17.1399996839464 674
17.1599996834993 726
17.1799996830523 718
17.1999996826053 762
17.2199996821582 724
17.2399996817112 702
17.2599996812642 744
17.2799996808171 721
17.2999996803701 765
17.3199996799231 740
17.339999679476 719
17.359999679029 737
17.379999678582 780
17.3999996781349 800
17.4199996776879 760
17.4399996772408 734
17.4599996767938 713
17.4799996763468 746
17.4999996758997 745
17.5199996754527 768
17.5399996750057 712
17.5599996745586 760
17.5799996741116 714
17.5999996736646 749
17.6199996732175 784
17.6399996727705 786
17.6599996723235 774
17.6799996718764 764
17.6999996714294 746
17.7199996709824 762
17.7399996705353 767
17.7599996700883 772
17.7799996696413 775
17.7999996691942 815
17.8199996687472 825
17.8399996683002 740
17.8599996678531 829
17.8799996674061 798
17.899999666959 806
17.919999666512 790
17.939999666065 821
17.9599996656179 844
17.9799996651709 775
17.9999996647239 820
18.0199996642768 847
18.0399996638298 830
18.0599996633828 843
18.0799996629357 842
18.0999996624887 809
18.1199996620417 809
18.1399996615946 807
18.1599996611476 845
18.1799996607006 830
18.1999996602535 818
18.2199996598065 783
18.2399996593595 843
18.2599996589124 862
18.2799996584654 903
18.2999996580184 818
18.3199996575713 891
18.3399996571243 882
18.3599996566772 858
18.3799996562302 845
18.3999996557832 809
18.4199996553361 880
18.4399996548891 866
18.4599996544421 904
18.479999653995 766
18.499999653548 885
18.519999653101 836
18.5399996526539 840
18.5599996522069 877
18.5799996517599 879
18.5999996513128 913
18.6199996508658 918
18.6399996504188 870
18.6599996499717 869
18.6799996495247 857
18.6999996490777 918
18.7199996486306 902
18.7399996481836 920
18.7599996477366 877
18.7799996472895 929
18.7999996468425 903
18.8199996463954 953
18.8399996459484 856
18.8599996455014 934
18.8799996450543 939
18.8999996446073 935
18.9199996441603 965
18.9399996437132 945
18.9599996432662 959
18.9799996428192 969
18.9999996423721 895
19.0199996419251 987
19.0399996414781 970
19.059999641031 940
19.079999640584 976
19.099999640137 931
19.1199996396899 1041
19.1399996392429 1092
19.1599996387959 1007
19.1799996383488 966
19.1999996379018 981
19.2199996374547 998
19.2399996370077 1005
19.2599996365607 997
19.2799996361136 1052
19.2999996356666 1027
19.3199996352196 1021
19.3399996347725 1031
19.3599996343255 958
19.3799996338785 1000
19.3999996334314 980
19.4199996329844 1005
19.4399996325374 1017
19.4599996320903 1046
19.4799996316433 1036
19.4999996311963 1041
19.5199996307492 1046
19.5399996303022 1072
19.5599996298552 1091
19.5799996294081 1067
19.5999996289611 1058
19.6199996285141 1110
19.639999628067 1039
19.65999962762 1066
19.6799996271729 1098
19.6999996267259 1054
19.7199996262789 1033
19.7399996258318 1045
19.7599996253848 1051
19.7799996249378 1069
19.7999996244907 1081
19.8199996240437 993
19.8399996235967 1059
19.8599996231496 1070
19.8799996227026 1082
19.8999996222556 1103
19.9199996218085 1057
19.9399996213615 1147
19.9599996209145 1132
19.9799996204674 1117
19.9999996200204 1137
