3 1252
3.01999999955297 1199
3.03999999910593 1076
3.0599999986589 965
3.07999999821186 954
3.09999999776483 851
3.11999999731779 908
3.13999999687076 811
3.15999999642372 827
3.17999999597669 751
3.19999999552965 776
3.21999999508262 769
3.23999999463558 715
3.25999999418855 722
3.27999999374151 687
3.29999999329448 714
3.31999999284744 725
3.33999999240041 751
3.35999999195337 680
3.37999999150634 675
3.3999999910593 677
3.41999999061227 686
3.43999999016523 674
3.4599999897182 674
3.47999998927116 619
3.49999998882413 668
3.51999998837709 621
3.53999998793006 641
3.55999998748302 640
3.57999998703599 635
3.59999998658895 641
3.61999998614192 584
3.63999998569489 626
3.65999998524785 623
3.67999998480082 615
3.69999998435378 586
3.71999998390675 589
3.73999998345971 584
3.75999998301268 612
3.77999998256564 580
3.79999998211861 613
3.81999998167157 563
3.83999998122454 549
3.8599999807775 542
3.87999998033047 578
3.89999997988343 563
3.9199999794364 552
3.93999997898936 556
3.95999997854233 509
3.97999997809529 512
3.99999997764826 555
4.01999997720122 542
4.03999997675419 546
4.05999997630715 508
4.07999997586012 534
4.09999997541308 543
4.11999997496605 498
4.13999997451901 536
4.15999997407198 497
4.17999997362494 552
4.19999997317791 532
4.21999997273087 555
4.23999997228384 505
4.25999997183681 523
4.27999997138977 538
4.29999997094274 526
4.3199999704957 498
4.33999997004867 499
4.35999996960163 551
4.3799999691546 509
4.39999996870756 535
4.41999996826053 514
4.43999996781349 495
4.45999996736646 541
4.47999996691942 556
4.49999996647239 506
4.51999996602535 523
4.53999996557832 469
4.55999996513128 503
4.57999996468425 496
4.59999996423721 513
4.61999996379018 560
4.63999996334314 526
4.65999996289611 507
4.67999996244907 502
4.69999996200204 522
4.719999961555 526
4.73999996110797 509
4.75999996066093 486
4.7799999602139 502
4.79999995976686 491
4.81999995931983 528
4.83999995887279 499
4.85999995842576 572
4.87999995797873 515
4.89999995753169 526
4.91999995708466 498
4.93999995663762 532
4.95999995619059 537
4.97999995574355 484
4.99999995529652 518
5.01999995484948 551
5.03999995440245 548
5.05999995395541 541
5.07999995350838 496
5.09999995306134 536
5.11999995261431 510
5.13999995216727 515
5.15999995172024 517
5.1799999512732 499
5.19999995082617 512
5.21999995037913 546
5.2399999499321 569
5.25999994948506 523
5.27999994903803 516
5.29999994859099 570
5.31999994814396 577
5.33999994769692 560
5.35999994724989 562
5.37999994680285 556
5.39999994635582 586
5.41999994590878 589
5.43999994546175 601
5.45999994501471 608
5.47999994456768 712
5.49999994412065 646
5.51999994367361 645
5.53999994322658 668
5.55999994277954 600
5.57999994233251 552
5.59999994188547 546
5.61999994143844 545
5.6399999409914 524
5.65999994054437 508
5.67999994009733 506
5.6999999396503 536
5.71999993920326 537
5.73999993875623 523
5.75999993830919 507
5.77999993786216 518
5.79999993741512 488
5.81999993696809 489
5.83999993652105 488
5.85999993607402 480
5.87999993562698 492
5.89999993517995 488
5.91999993473291 449
5.93999993428588 461
5.95999993383884 436
5.97999993339181 471
5.99999993294477 471
6.01999993249774 442
6.0399999320507 451
6.05999993160367 419
6.07999993115663 455
6.0999999307096 428
6.11999993026257 444
6.13999992981553 424
6.1599999293685 411
6.17999992892146 409
6.19999992847443 428
6.21999992802739 450
6.23999992758036 429
6.25999992713332 428
6.27999992668629 410
6.29999992623925 388
6.31999992579222 422
6.33999992534518 411
6.35999992489815 439
6.37999992445111 434
6.39999992400408 415
6.41999992355704 385
6.43999992311001 431
6.45999992266297 412
6.47999992221594 398
6.4999999217689 437
6.51999992132187 450
6.53999992087483 410
6.5599999204278 445
6.57999991998076 386
6.59999991953373 411
6.61999991908669 440
6.63999991863966 411
6.65999991819262 426
6.67999991774559 445
6.69999991729855 391
6.71999991685152 428
6.73999991640449 429
6.75999991595745 383
6.77999991551042 424
6.79999991506338 420
6.81999991461635 395
6.83999991416931 404
6.85999991372228 423
6.87999991327524 421
6.89999991282821 415
6.91999991238117 410
6.93999991193414 425
6.9599999114871 394
6.97999991104007 422
6.99999991059303 404
7.019999910146 417
7.03999990969896 430
7.05999990925193 401
7.07999990880489 415
7.09999990835786 465
7.11999990791082 402
7.13999990746379 421
7.15999990701675 418
7.17999990656972 454
7.19999990612268 423
7.21999990567565 419
7.23999990522861 429
7.25999990478158 420
7.27999990433454 405
7.29999990388751 388
7.31999990344047 407
7.33999990299344 368
7.35999990254641 391
7.37999990209937 402
7.39999990165234 409
7.4199999012053 410
7.43999990075827 432
7.45999990031123 371
7.4799998998642 431
7.49999989941716 393
7.51999989897013 403
7.53999989852309 421
7.55999989807606 417
7.57999989762902 379
7.59999989718199 386
7.61999989673495 382
7.63999989628792 425
7.65999989584088 420
7.67999989539385 455
7.69999989494681 431
7.71999989449978 379
7.73999989405274 375
7.75999989360571 425
7.77999989315867 436
7.79999989271164 401
7.8199998922646 437
7.83999989181757 407
7.85999989137053 425
7.8799998909235 403
7.89999989047646 385
7.91999989002943 400
7.9399998895824 411
7.95999988913536 402
7.97999988868833 377
7.99999988824129 463
8.01999988779426 421
8.03999988734722 416
8.05999988690019 422
8.07999988645315 429
8.09999988600612 380
8.11999988555908 406
8.13999988511205 477
8.15999988466501 410
8.17999988421798 408
8.19999988377094 402
8.21999988332391 408
8.23999988287687 420
8.25999988242984 401
8.2799998819828 442
8.29999988153577 429
8.31999988108873 402
8.3399998806417 406
8.35999988019466 400
8.37999987974763 444
8.39999987930059 410
8.41999987885356 436
8.43999987840652 393
8.45999987795949 437
8.47999987751245 427
8.49999987706542 416
8.51999987661839 404
8.53999987617135 437
8.55999987572432 380
8.57999987527728 403
8.59999987483025 443
8.61999987438321 436
8.63999987393618 405
8.65999987348914 400
8.67999987304211 427
8.69999987259507 405
8.71999987214804 401
8.739999871701 402
8.75999987125397 384
8.77999987080693 444
8.7999998703599 424
8.81999986991286 401
8.83999986946583 412
8.85999986901879 405
8.87999986857176 398
8.89999986812472 440
8.91999986767769 445
8.93999986723065 397
8.95999986678362 407
8.97999986633658 441
8.99999986588955 411
9.01999986544251 395
9.03999986499548 415
9.05999986454844 393
9.07999986410141 386
9.09999986365438 430
9.11999986320734 441
9.13999986276031 412
9.15999986231327 390
9.17999986186624 398
9.1999998614192 423
9.21999986097217 443
9.23999986052513 413
9.2599998600781 406
9.27999985963106 400
9.29999985918403 451
9.31999985873699 416
9.33999985828996 439
9.35999985784292 469
9.37999985739589 450
9.39999985694885 441
9.41999985650182 493
9.43999985605478 434
9.45999985560775 457
9.47999985516071 475
9.49999985471368 442
9.51999985426664 415
9.53999985381961 416
9.55999985337257 416
9.57999985292554 453
9.5999998524785 424
9.61999985203147 415
9.63999985158443 436
9.6599998511374 396
9.67999985069037 419
9.69999985024333 437
9.7199998497963 462
9.73999984934926 422
9.75999984890223 407
9.77999984845519 415
9.79999984800816 457
9.81999984756112 426
9.83999984711409 418
9.85999984666705 417
9.87999984622002 414
9.89999984577298 415
9.91999984532595 437
9.93999984487891 471
9.95999984443188 392
9.97999984398484 409
9.99999984353781 427
10.0199998430908 396
10.0399998426437 434
10.0599998421967 416
10.0799998417497 439
10.0999998413026 419
10.1199998408556 413
10.1399998404086 426
10.1599998399615 439
10.1799998395145 429
10.1999998390675 428
10.2199998386204 401
10.2399998381734 394
10.2599998377264 426
10.2799998372793 414
10.2999998368323 438
10.3199998363853 459
10.3399998359382 430
10.3599998354912 418
10.3799998350441 453
10.3999998345971 420
10.4199998341501 449
10.439999833703 394
10.459999833256 397
10.479999832809 425
10.4999998323619 415
10.5199998319149 411
10.5399998314679 429
10.5599998310208 421
10.5799998305738 409
10.5999998301268 436
10.6199998296797 449
10.6399998292327 434
10.6599998287857 396
10.6799998283386 420
10.6999998278916 445
10.7199998274446 390
10.7399998269975 436
10.7599998265505 401
10.7799998261034 446
10.7999998256564 413
10.8199998252094 439
10.8399998247623 456
10.8599998243153 438
10.8799998238683 430
10.8999998234212 470
10.9199998229742 438
10.9399998225272 422
10.9599998220801 427
10.9799998216331 424
10.9999998211861 421
11.019999820739 401
11.039999820292 455
11.059999819845 418
11.0799998193979 455
11.0999998189509 410
11.1199998185039 394
11.1399998180568 415
11.1599998176098 401
11.1799998171628 426
11.1999998167157 459
11.2199998162687 419
11.2399998158216 392
11.2599998153746 451
11.2799998149276 429
11.2999998144805 424
11.3199998140335 420
11.3399998135865 430
11.3599998131394 384
11.3799998126924 432
11.3999998122454 412
11.4199998117983 400
11.4399998113513 402
11.4599998109043 424
11.4799998104572 427
11.4999998100102 447
11.5199998095632 432
11.5399998091161 421
11.5599998086691 412
11.5799998082221 440
11.599999807775 472
11.619999807328 407
11.639999806881 421
11.6599998064339 405
11.6799998059869 436
11.6999998055398 452
11.7199998050928 431
11.7399998046458 482
11.7599998041987 412
11.7799998037517 450
11.7999998033047 421
11.8199998028576 405
11.8399998024106 431
11.8599998019636 399
11.8799998015165 475
11.8999998010695 431
11.9199998006225 408
11.9399998001754 406
11.9599997997284 405
11.9799997992814 454
11.9999997988343 405
12.0199997983873 433
12.0399997979403 448
12.0599997974932 424
12.0799997970462 416
12.0999997965992 433
12.1199997961521 446
12.1399997957051 442
12.159999795258 414
12.179999794811 436
12.199999794364 415
12.2199997939169 415
12.2399997934699 451
12.2599997930229 424
12.2799997925758 437
12.2999997921288 424
12.3199997916818 407
12.3399997912347 452
12.3599997907877 441
12.3799997903407 445
12.3999997898936 476
12.4199997894466 409
12.4399997889996 418
12.4599997885525 462
12.4799997881055 431
12.4999997876585 426
12.5199997872114 440
12.5399997867644 426
12.5599997863173 422
12.5799997858703 456
12.5999997854233 494
12.6199997849762 427
12.6399997845292 427
12.6599997840822 464
12.6799997836351 464
12.6999997831881 451
12.7199997827411 449
12.739999782294 430
12.759999781847 452
12.7799997814 465
12.7999997809529 445
12.8199997805059 388
12.8399997800589 444
12.8599997796118 416
12.8799997791648 440
12.8999997787178 429
12.9199997782707 438
12.9399997778237 437
12.9599997773767 468
12.9799997769296 480
12.9999997764826 450
13.0199997760355 440
13.0399997755885 479
13.0599997751415 427
13.0799997746944 420
13.0999997742474 426
13.1199997738004 428
13.1399997733533 427
13.1599997729063 470
13.1799997724593 418
13.1999997720122 401
13.2199997715652 420
13.2399997711182 497
13.2599997706711 447
13.2799997702241 444
13.2999997697771 484
13.31999976933 444
13.339999768883 462
13.359999768436 478
13.3799997679889 477
13.3999997675419 470
13.4199997670949 481
13.4399997666478 423
13.4599997662008 456
13.4799997657537 484
13.4999997653067 437
13.5199997648597 453
13.5399997644126 451
13.5599997639656 447
13.5799997635186 439
13.5999997630715 483
13.6199997626245 479
13.6399997621775 480
13.6599997617304 495
13.6799997612834 467
13.6999997608364 446
13.7199997603893 467
13.7399997599423 463
13.7599997594953 464
13.7799997590482 434
13.7999997586012 472
13.8199997581542 453
13.8399997577071 474
13.8599997572601 447
13.879999756813 502
13.899999756366 473
13.919999755919 476
13.9399997554719 448
13.9599997550249 452
13.9799997545779 450
13.9999997541308 481
14.0199997536838 455
14.0399997532368 460
14.0599997527897 502
14.0799997523427 473
14.0999997518957 506
14.1199997514486 499
14.1399997510016 451
14.1599997505546 473
14.1799997501075 487
14.1999997496605 479
14.2199997492135 521
14.2399997487664 477
14.2599997483194 488
14.2799997478724 495
14.2999997474253 457
14.3199997469783 457
14.3399997465312 467
14.3599997460842 466
14.3799997456372 485
14.3999997451901 498
14.4199997447431 460
14.4399997442961 471
14.459999743849 472
14.479999743402 505
14.499999742955 477
14.5199997425079 486
14.5399997420609 498
14.5599997416139 471
14.5799997411668 494
14.5999997407198 472
14.6199997402728 494
14.6399997398257 502
14.6599997393787 472
14.6799997389317 461
14.6999997384846 493
14.7199997380376 489
14.7399997375906 476
14.7599997371435 493
14.7799997366965 483
14.7999997362494 514
14.8199997358024 504
14.8399997353554 504
14.8599997349083 517
14.8799997344613 517
14.8999997340143 503
14.9199997335672 474
14.9399997331202 502
14.9599997326732 510
14.9799997322261 506
14.9999997317791 543
15.0199997313321 535
15.039999730885 531
15.059999730438 529
15.079999729991 538
15.0999997295439 501
15.1199997290969 560
15.1399997286499 483
15.1599997282028 514
15.1799997277558 541
15.1999997273088 529
15.2199997268617 554
15.2399997264147 551
15.2599997259676 509
15.2799997255206 517
15.2999997250736 558
15.3199997246265 529
15.3399997241795 527
15.3599997237325 506
15.3799997232854 539
15.3999997228384 523
15.4199997223914 539
15.4399997219443 546
15.4599997214973 545
15.4799997210503 517
15.4999997206032 554
15.5199997201562 519
15.5399997197092 545
15.5599997192621 549
15.5799997188151 520
15.5999997183681 498
15.619999717921 553
15.639999717474 520
15.659999717027 555
15.6799997165799 574
15.6999997161329 532
15.7199997156858 517
15.7399997152388 557
15.7599997147918 515
15.7799997143447 527
15.7999997138977 563
15.8199997134507 587
15.8399997130036 579
15.8599997125566 563
15.8799997121096 538
15.8999997116625 595
15.9199997112155 599
15.9399997107685 571
15.9599997103214 579
15.9799997098744 526
15.9999997094274 612
16.0199997089803 577
16.0399997085333 594
16.0599997080863 596
16.0799997076392 584
16.0999997071922 580
16.1199997067451 587
16.1399997062981 558
16.1599997058511 602
16.179999705404 596
16.199999704957 599
16.21999970451 612
16.2399997040629 591
16.2599997036159 626
16.2799997031689 611
16.2999997027218 585
16.3199997022748 629
16.3399997018278 596
16.3599997013807 609
16.3799997009337 590
16.3999997004867 656
16.4199997000396 605
16.4399996995926 610
16.4599996991456 601
16.4799996986985 563
16.4999996982515 661
16.5199996978045 679
16.5399996973574 661
16.5599996969104 587
16.5799996964633 650
16.5999996960163 633
16.6199996955693 640
16.6399996951222 684
16.6599996946752 606
16.6799996942282 625
16.6999996937811 610
16.7199996933341 655
16.7399996928871 665
16.75999969244 618
16.779999691993 662
16.799999691546 645
16.8199996910989 673
16.8399996906519 664
16.8599996902049 703
16.8799996897578 663
16.8999996893108 681
16.9199996888638 700
16.9399996884167 742
16.9599996879697 792
16.9799996875226 719
16.9999996870756 771
17.0199996866286 840
17.0399996861815 864
17.0599996857345 849
17.0799996852875 879
17.0999996848404 834
17.1199996843934 883
17.1399996839464 801
17.1599996834993 790
17.1799996830523 709
17.1999996826053 766
17.2199996821582 693
17.2399996817112 712
17.2599996812642 688
17.2799996808171 715
17.2999996803701 730
17.3199996799231 749
17.339999679476 712
17.359999679029 740
17.379999678582 737
17.3999996781349 753
17.4199996776879 750
17.4399996772408 713
17.4599996767938 699
17.4799996763468 715
17.4999996758997 715
17.5199996754527 719
17.5399996750057 735
17.5599996745586 705
17.5799996741116 687
17.5999996736646 737
17.6199996732175 744
17.6399996727705 758
17.6599996723235 725
17.6799996718764 739
17.6999996714294 719
17.7199996709824 746
17.7399996705353 774
17.7599996700883 757
17.7799996696413 769
17.7999996691942 777
17.8199996687472 730
17.8399996683002 774
17.8599996678531 800
17.8799996674061 788
17.899999666959 723
17.919999666512 776
17.939999666065 795
17.9599996656179 772
17.9799996651709 790
17.9999996647239 774
18.0199996642768 784
18.0399996638298 786
18.0599996633828 780
18.0799996629357 800
18.0999996624887 772
18.1199996620417 771
18.1399996615946 833
18.1599996611476 820
18.1799996607006 809
18.1999996602535 846
18.2199996598065 805
18.2399996593595 842
18.2599996589124 843
18.2799996584654 824
18.2999996580184 847
18.3199996575713 846
18.3399996571243 866
18.3599996566772 821
18.3799996562302 877
18.3999996557832 835
18.4199996553361 792
18.4399996548891 844
18.4599996544421 827
18.479999653995 801
18.499999653548 848
18.519999653101 876
18.5399996526539 777
18.5599996522069 843
18.5799996517599 848
18.5999996513128 854
18.6199996508658 873
18.6399996504188 864
18.6599996499717 875
18.6799996495247 879
18.6999996490777 893
18.7199996486306 874
18.7399996481836 850
18.7599996477366 911
18.7799996472895 906
18.7999996468425 887
18.8199996463954 912
18.8399996459484 931
18.8599996455014 896
18.8799996450543 906
18.8999996446073 913
18.9199996441603 865
18.9399996437132 929
18.9599996432662 914
18.9799996428192 917
18.9999996423721 925
19.0199996419251 925
19.0399996414781 840
19.059999641031 927
19.079999640584 927
19.099999640137 899
19.1199996396899 926
19.1399996392429 943
19.1599996387959 936
19.1799996383488 984
19.1999996379018 991
19.2199996374547 907
19.2399996370077 945
19.2599996365607 965
19.2799996361136 987
19.2999996356666 940
19.3199996352196 1016
19.3399996347725 922
19.3599996343255 933
19.3799996338785 1016
19.3999996334314 1005
19.4199996329844 964
19.4399996325374 988
19.4599996320903 950
19.4799996316433 1019
19.4999996311963 1049
19.5199996307492 952
19.5399996303022 1030
19.5599996298552 988
19.5799996294081 1023
19.5999996289611 989
19.6199996285141 1026
19.639999628067 981
19.65999962762 1023
19.6799996271729 970
19.6999996267259 1044
19.7199996262789 1008
19.7399996258318 1069
19.7599996253848 1043
19.7799996249378 1017
19.7999996244907 1010
19.8199996240437 1000
19.8399996235967 1087
19.8599996231496 1006
19.8799996227026 993
19.8999996222556 999
19.9199996218085 1006
19.9399996213615 1028
19.9599996209145 1062
19.9799996204674 1107
19.9999996200204 1046
