3 1865
3.01999999955297 1769
3.03999999910593 1645
3.0599999986589 1570
3.07999999821186 1418
3.09999999776483 1333
3.11999999731779 1224
3.13999999687076 1252
3.15999999642372 1108
3.17999999597669 1167
3.19999999552965 1072
3.21999999508262 1056
3.23999999463558 1062
3.25999999418855 1064
3.27999999374151 1010
3.29999999329448 979
3.31999999284744 956
3.33999999240041 960
3.35999999195337 941
3.37999999150634 961
3.3999999910593 921
3.41999999061227 937
3.43999999016523 920
3.4599999897182 829
3.47999998927116 850
3.49999998882413 848
3.51999998837709 818
3.53999998793006 813
3.55999998748302 820
3.57999998703599 795
3.59999998658895 807
3.61999998614192 796
3.63999998569489 798
3.65999998524785 782
3.67999998480082 804
3.69999998435378 798
3.71999998390675 724
3.73999998345971 770
3.75999998301268 768
3.77999998256564 764
3.79999998211861 719
3.81999998167157 738
3.83999998122454 744
3.8599999807775 664
3.87999998033047 693
3.89999997988343 708
3.9199999794364 662
3.93999997898936 711
3.95999997854233 760
3.97999997809529 670
3.99999997764826 678
4.01999997720122 648
4.03999997675419 629
4.05999997630715 676
4.07999997586012 623
4.09999997541308 645
4.11999997496605 601
4.13999997451901 630
4.15999997407198 645
4.17999997362494 638
4.19999997317791 682
4.21999997273087 581
4.23999997228384 600
4.25999997183681 630
4.27999997138977 598
4.29999997094274 618
4.3199999704957 632
4.33999997004867 606
4.35999996960163 618
4.3799999691546 623
4.39999996870756 617
4.41999996826053 583
4.43999996781349 603
4.45999996736646 615
4.47999996691942 542
4.49999996647239 580
4.51999996602535 569
4.53999996557832 601
4.55999996513128 565
4.57999996468425 578
4.59999996423721 573
4.61999996379018 568
4.63999996334314 550
4.65999996289611 531
4.67999996244907 547
4.69999996200204 557
4.719999961555 543
4.73999996110797 597
4.75999996066093 559
4.7799999602139 532
4.79999995976686 550
4.81999995931983 532
4.83999995887279 546
4.85999995842576 572
4.87999995797873 592
4.89999995753169 546
4.91999995708466 590
4.93999995663762 569
4.95999995619059 559
4.97999995574355 522
4.99999995529652 565
5.01999995484948 530
5.03999995440245 562
5.05999995395541 506
5.07999995350838 544
5.09999995306134 533
5.11999995261431 549
5.13999995216727 551
5.15999995172024 597
5.1799999512732 588
5.19999995082617 559
5.21999995037913 590
5.2399999499321 529
5.25999994948506 544
5.27999994903803 539
5.29999994859099 546
5.31999994814396 532
5.33999994769692 545
5.35999994724989 543
5.37999994680285 520
5.39999994635582 543
5.41999994590878 542
5.43999994546175 545
5.45999994501471 500
5.47999994456768 566
5.49999994412065 499
5.51999994367361 518
5.53999994322658 517
5.55999994277954 525
5.57999994233251 549
5.59999994188547 557
5.61999994143844 544
5.6399999409914 591
5.65999994054437 595
5.67999994009733 570
5.6999999396503 550
5.71999993920326 557
5.73999993875623 542
5.75999993830919 506
5.77999993786216 538
5.79999993741512 545
5.81999993696809 553
5.83999993652105 553
5.85999993607402 542
5.87999993562698 571
5.89999993517995 512
5.91999993473291 538
5.93999993428588 520
5.95999993383884 521
5.97999993339181 553
5.99999993294477 504
6.01999993249774 550
6.0399999320507 502
6.05999993160367 477
6.07999993115663 495
6.0999999307096 539
6.11999993026257 531
6.13999992981553 507
6.1599999293685 554
6.17999992892146 550
6.19999992847443 539
6.21999992802739 501
6.23999992758036 539
6.25999992713332 517
6.27999992668629 493
6.29999992623925 520
6.31999992579222 514
6.33999992534518 503
6.35999992489815 518
6.37999992445111 509
6.39999992400408 577
6.41999992355704 539
6.43999992311001 531
6.45999992266297 525
6.47999992221594 538
6.4999999217689 523
6.51999992132187 488
6.53999992087483 511
6.5599999204278 504
6.57999991998076 530
6.59999991953373 538
6.61999991908669 510
6.63999991863966 514
6.65999991819262 514
6.67999991774559 534
6.69999991729855 538
6.71999991685152 528
6.73999991640449 513
6.75999991595745 507
6.77999991551042 545
6.79999991506338 525
6.81999991461635 521
6.83999991416931 554
6.85999991372228 524
6.87999991327524 533
6.89999991282821 519
6.91999991238117 518
6.93999991193414 516
6.9599999114871 528
6.97999991104007 547
6.99999991059303 511
7.019999910146 516
7.03999990969896 495
7.05999990925193 541
7.07999990880489 515
7.09999990835786 518
7.11999990791082 516
7.13999990746379 535
7.15999990701675 483
7.17999990656972 532
7.19999990612268 506
7.21999990567565 580
7.23999990522861 510
7.25999990478158 502
7.27999990433454 521
7.29999990388751 481
7.31999990344047 513
7.33999990299344 508
7.35999990254641 515
7.37999990209937 510
7.39999990165234 539
7.4199999012053 508
7.43999990075827 588
7.45999990031123 481
7.4799998998642 513
7.49999989941716 562
7.51999989897013 549
7.53999989852309 536
7.55999989807606 504
7.57999989762902 522
7.59999989718199 542
7.61999989673495 569
7.63999989628792 530
7.65999989584088 535
7.67999989539385 532
7.69999989494681 551
7.71999989449978 539
7.73999989405274 527
7.75999989360571 510
7.77999989315867 522
7.79999989271164 499
7.8199998922646 549
7.83999989181757 520
7.85999989137053 492
7.8799998909235 506
7.89999989047646 515
7.91999989002943 509
7.9399998895824 606
7.95999988913536 515
7.97999988868833 547
7.99999988824129 530
8.01999988779426 509
8.03999988734722 534
8.05999988690019 520
8.07999988645315 524
8.09999988600612 521
8.11999988555908 519
8.13999988511205 500
8.15999988466501 524
8.17999988421798 510
8.19999988377094 558
8.21999988332391 487
8.23999988287687 481
8.25999988242984 523
8.2799998819828 531
8.29999988153577 541
8.31999988108873 524
8.3399998806417 488
8.35999988019466 507
8.37999987974763 481
8.39999987930059 491
8.41999987885356 466
8.43999987840652 523
8.45999987795949 528
8.47999987751245 516
8.49999987706542 524
8.51999987661839 519
8.53999987617135 526
8.55999987572432 545
8.57999987527728 536
8.59999987483025 494
8.61999987438321 583
8.63999987393618 492
8.65999987348914 509
8.67999987304211 500
8.69999987259507 485
8.71999987214804 497
8.739999871701 510
8.75999987125397 523
8.77999987080693 482
8.7999998703599 537
8.81999986991286 523
8.83999986946583 509
8.85999986901879 526
8.87999986857176 482
8.89999986812472 508
8.91999986767769 505
8.93999986723065 532
8.95999986678362 520
8.97999986633658 498
8.99999986588955 512
9.01999986544251 513
9.03999986499548 554
9.05999986454844 504
9.07999986410141 525
9.09999986365438 551
9.11999986320734 514
9.13999986276031 517
9.15999986231327 558
9.17999986186624 499
9.1999998614192 477
9.21999986097217 501
9.23999986052513 482
9.2599998600781 495
9.27999985963106 511
9.29999985918403 478
9.31999985873699 518
9.33999985828996 545
9.35999985784292 503
9.37999985739589 459
9.39999985694885 472
9.41999985650182 518
9.43999985605478 503
9.45999985560775 494
9.47999985516071 483
9.49999985471368 478
9.51999985426664 511
9.53999985381961 508
9.55999985337257 513
9.57999985292554 493
9.5999998524785 501
9.61999985203147 487
9.63999985158443 499
9.6599998511374 506
9.67999985069037 485
9.69999985024333 485
9.7199998497963 491
9.73999984934926 504
9.75999984890223 500
9.77999984845519 518
9.79999984800816 514
9.81999984756112 472
9.83999984711409 474
9.85999984666705 462
9.87999984622002 475
9.89999984577298 503
9.91999984532595 541
9.93999984487891 494
9.95999984443188 457
9.97999984398484 540
9.99999984353781 502
10.0199998430908 501
10.0399998426437 487
10.0599998421967 488
10.0799998417497 460
10.0999998413026 447
10.1199998408556 494
10.1399998404086 490
10.1599998399615 495
10.1799998395145 515
10.1999998390675 463
10.2199998386204 475
10.2399998381734 498
10.2599998377264 462
10.2799998372793 490
10.2999998368323 465
10.3199998363853 497
10.3399998359382 484
10.3599998354912 482
10.3799998350441 477
10.3999998345971 479
10.4199998341501 491
10.439999833703 494
10.459999833256 455
10.479999832809 494
10.4999998323619 522
10.5199998319149 484
10.5399998314679 518
10.5599998310208 493
10.5799998305738 474
10.5999998301268 494
10.6199998296797 504
10.6399998292327 514
10.6599998287857 452
10.6799998283386 486
10.6999998278916 438
10.7199998274446 473
10.7399998269975 448
10.7599998265505 461
10.7799998261034 435
10.7999998256564 488
10.8199998252094 460
10.8399998247623 458
10.8599998243153 446
10.8799998238683 467
10.8999998234212 460
10.9199998229742 462
10.9399998225272 479
10.9599998220801 464
10.9799998216331 511
10.9999998211861 468
11.019999820739 457
11.039999820292 499
11.059999819845 477
11.0799998193979 449
11.0999998189509 511
11.1199998185039 460
11.1399998180568 489
11.1599998176098 495
11.1799998171628 443
11.1999998167157 443
11.2199998162687 486
11.2399998158216 494
11.2599998153746 494
11.2799998149276 496
11.2999998144805 482
11.3199998140335 473
11.3399998135865 485
11.3599998131394 472
11.3799998126924 469
11.3999998122454 470
11.4199998117983 485
11.4399998113513 483
11.4599998109043 487
11.4799998104572 498
11.4999998100102 464
11.5199998095632 509
11.5399998091161 496
11.5599998086691 454
11.5799998082221 502
11.599999807775 518
11.619999807328 453
11.639999806881 457
11.6599998064339 479
11.6799998059869 505
11.6999998055398 480
11.7199998050928 473
11.7399998046458 483
11.7599998041987 502
11.7799998037517 455
11.7999998033047 464
11.8199998028576 472
11.8399998024106 467
11.8599998019636 468
11.8799998015165 500
11.8999998010695 495
11.9199998006225 500
11.9399998001754 508
11.9599997997284 464
11.9799997992814 475
11.9999997988343 497
12.0199997983873 512
12.0399997979403 467
12.0599997974932 463
12.0799997970462 461
12.0999997965992 501
12.1199997961521 504
12.1399997957051 472
12.159999795258 460
12.179999794811 456
12.199999794364 510
12.2199997939169 499
12.2399997934699 473
12.2599997930229 514
12.2799997925758 499
12.2999997921288 526
12.3199997916818 502
12.3399997912347 446
12.3599997907877 451
12.3799997903407 492
12.3999997898936 491
12.4199997894466 491
12.4399997889996 468
12.4599997885525 476
12.4799997881055 460
12.4999997876585 439
12.5199997872114 477
12.5399997867644 484
12.5599997863173 508
12.5799997858703 509
12.5999997854233 466
12.6199997849762 524
12.6399997845292 461
12.6599997840822 467
12.6799997836351 436
12.6999997831881 499
12.7199997827411 538
12.739999782294 527
12.759999781847 510
12.7799997814 483
12.7999997809529 435
12.8199997805059 490
12.8399997800589 530
12.8599997796118 481
12.8799997791648 495
12.8999997787178 519
12.9199997782707 469
12.9399997778237 509
12.9599997773767 494
12.9799997769296 524
12.9999997764826 500
13.0199997760355 477
13.0399997755885 501
13.0599997751415 514
13.0799997746944 527
13.0999997742474 527
13.1199997738004 481
13.1399997733533 487
13.1599997729063 500
13.1799997724593 530
13.1999997720122 486
13.2199997715652 480
13.2399997711182 543
13.2599997706711 512
13.2799997702241 528
13.2999997697771 495
13.31999976933 533
13.339999768883 484
13.359999768436 518
13.3799997679889 508
13.3999997675419 507
13.4199997670949 499
13.4399997666478 531
13.4599997662008 494
13.4799997657537 506
13.4999997653067 503
13.5199997648597 507
13.5399997644126 532
13.5599997639656 474
13.5799997635186 507
13.5999997630715 520
13.6199997626245 523
13.6399997621775 498
13.6599997617304 534
13.6799997612834 452
13.6999997608364 514
13.7199997603893 553
13.7399997599423 528
13.7599997594953 472
13.7799997590482 496
13.7999997586012 532
13.8199997581542 496
13.8399997577071 534
13.8599997572601 505
13.879999756813 529
13.899999756366 532
13.919999755919 471
13.9399997554719 493
13.9599997550249 547
13.9799997545779 515
13.9999997541308 520
14.0199997536838 503
14.0399997532368 521
14.0599997527897 539
14.0799997523427 532
14.0999997518957 513
14.1199997514486 531
14.1399997510016 547
14.1599997505546 548
14.1799997501075 529
14.1999997496605 523
14.2199997492135 544
14.2399997487664 548
14.2599997483194 525
14.2799997478724 530
14.2999997474253 496
14.3199997469783 516
14.3399997465312 532
14.3599997460842 516
14.3799997456372 557
14.3999997451901 522
14.4199997447431 512
14.4399997442961 533
14.459999743849 554
14.479999743402 566
14.499999742955 519
14.5199997425079 493
14.5399997420609 520
14.5599997416139 575
14.5799997411668 577
14.5999997407198 595
14.6199997402728 490
14.6399997398257 590
14.6599997393787 529
14.6799997389317 549
14.6999997384846 555
14.7199997380376 517
14.7399997375906 593
14.7599997371435 578
14.7799997366965 568
14.7999997362494 525
14.8199997358024 523
14.8399997353554 544
14.8599997349083 540
14.8799997344613 597
14.8999997340143 565
14.9199997335672 554
14.9399997331202 618
14.9599997326732 530
14.9799997322261 581
14.9999997317791 582
15.0199997313321 561
15.039999730885 562
15.059999730438 585
15.079999729991 524
15.0999997295439 556
15.1199997290969 563
15.1399997286499 579
15.1599997282028 574
15.1799997277558 580
15.1999997273088 562
15.2199997268617 569
15.2399997264147 584
15.2599997259676 584
15.2799997255206 550
15.2999997250736 546
15.3199997246265 608
15.3399997241795 580
15.3599997237325 571
15.3799997232854 611
15.3999997228384 596
15.4199997223914 574
15.4399997219443 560
15.4599997214973 595
15.4799997210503 577
15.4999997206032 589
15.5199997201562 579
15.5399997197092 590
15.5599997192621 584
15.5799997188151 580
15.5999997183681 581
15.619999717921 588
15.639999717474 582
15.659999717027 649
15.6799997165799 637
15.6999997161329 658
15.7199997156858 610
15.7399997152388 606
15.7599997147918 612
15.7799997143447 607
15.7999997138977 606
15.8199997134507 604
15.8399997130036 588
15.8599997125566 607
15.8799997121096 634
15.8999997116625 621
15.9199997112155 616
15.9399997107685 583
15.9599997103214 607
15.9799997098744 638
15.9999997094274 637
16.0199997089803 613
16.0399997085333 638
16.0599997080863 627
16.0799997076392 626
16.0999997071922 684
16.1199997067451 602
16.1399997062981 641
16.1599997058511 614
16.179999705404 596
16.199999704957 646
16.21999970451 638
16.2399997040629 603
16.2599997036159 635
16.2799997031689 630
16.2999997027218 652
16.3199997022748 649
16.3399997018278 621
16.3599997013807 656
16.3799997009337 657
16.3999997004867 666
16.4199997000396 631
16.4399996995926 639
16.4599996991456 634
16.4799996986985 630
16.4999996982515 688
16.5199996978045 657
16.5399996973574 677
16.5599996969104 691
16.5799996964633 670
16.5999996960163 659
16.6199996955693 682
16.6399996951222 713
16.6599996946752 640
16.6799996942282 660
16.6999996937811 722
16.7199996933341 701
16.7399996928871 687
16.75999969244 726
16.779999691993 699
16.799999691546 705
16.8199996910989 729
16.8399996906519 768
16.8599996902049 763
16.8799996897578 741
16.8999996893108 778
16.9199996888638 758
16.9399996884167 815
16.9599996879697 822
16.9799996875226 896
16.9999996870756 947
17.0199996866286 897
17.0399996861815 918
17.0599996857345 850
17.0799996852875 858
17.0999996848404 823
17.1199996843934 786
17.1399996839464 794
17.1599996834993 738
17.1799996830523 730
17.1999996826053 724
17.2199996821582 772
17.2399996817112 768
17.2599996812642 741
17.2799996808171 722
17.2999996803701 710
17.3199996799231 738
17.339999679476 765
17.359999679029 734
17.379999678582 792
17.3999996781349 729
17.4199996776879 715
17.4399996772408 724
17.4599996767938 748
17.4799996763468 740
17.4999996758997 740
17.5199996754527 746
17.5399996750057 788
17.5599996745586 742
17.5799996741116 767
17.5999996736646 813
17.6199996732175 770
17.6399996727705 782
17.6599996723235 793
17.6799996718764 761
17.6999996714294 768
17.7199996709824 730
17.7399996705353 776
17.7599996700883 813
17.7799996696413 767
17.7999996691942 790
17.8199996687472 777
17.8399996683002 776
17.8599996678531 752
17.8799996674061 802
17.899999666959 775
17.919999666512 860
17.939999666065 820
17.9599996656179 865
17.9799996651709 819
17.9999996647239 847
18.0199996642768 783
18.0399996638298 854
18.0599996633828 839
18.0799996629357 852
18.0999996624887 823
18.1199996620417 875
18.1399996615946 796
18.1599996611476 816
18.1799996607006 782
18.1999996602535 810
18.2199996598065 877
18.2399996593595 861
18.2599996589124 862
18.2799996584654 840
18.2999996580184 851
18.3199996575713 855
18.3399996571243 870
18.3599996566772 881
18.3799996562302 898
18.3999996557832 861
18.4199996553361 878
18.4399996548891 834
18.4599996544421 892
18.479999653995 889
18.499999653548 934
18.519999653101 900
18.5399996526539 885
18.5599996522069 815
18.5799996517599 877
18.5999996513128 874
18.6199996508658 886
18.6399996504188 893
18.6599996499717 875
18.6799996495247 902
18.6999996490777 863
18.7199996486306 845
18.7399996481836 902
18.7599996477366 886
18.7799996472895 970
18.7999996468425 897
18.8199996463954 889
18.8399996459484 909
18.8599996455014 921
18.8799996450543 947
18.8999996446073 884
18.9199996441603 936
18.9399996437132 995
18.9599996432662 936
18.9799996428192 933
18.9999996423721 930
19.0199996419251 934
19.0399996414781 960
19.059999641031 966
19.079999640584 929
19.099999640137 914
19.1199996396899 907
19.1399996392429 937
19.1599996387959 930
19.1799996383488 978
19.1999996379018 946
19.2199996374547 912
19.2399996370077 960
19.2599996365607 985
19.2799996361136 952
19.2999996356666 920
19.3199996352196 1019
19.3399996347725 970
19.3599996343255 1003
19.3799996338785 988
19.3999996334314 1030
19.4199996329844 952
19.4399996325374 1026
19.4599996320903 1021
19.4799996316433 999
19.4999996311963 982
19.5199996307492 987
19.5399996303022 1024
19.5599996298552 952
19.5799996294081 978
19.5999996289611 976
19.6199996285141 946
19.639999628067 1011
19.65999962762 1057
19.6799996271729 1001
19.6999996267259 1078
19.7199996262789 1015
19.7399996258318 1064
19.7599996253848 1062
19.7799996249378 963
19.7999996244907 981
19.8199996240437 1022
19.8399996235967 1060
19.8599996231496 989
19.8799996227026 1022
19.8999996222556 1034
19.9199996218085 1053
19.9399996213615 1014
19.9599996209145 1008
19.9799996204674 1039
19.9999996200204 1023
