3 1804
3.01999999955297 1621
3.03999999910593 1590
3.0599999986589 1473
3.07999999821186 1360
3.09999999776483 1290
3.11999999731779 1216
3.13999999687076 1207
3.15999999642372 1227
3.17999999597669 1183
3.19999999552965 1133
3.21999999508262 1097
3.23999999463558 1109
3.25999999418855 1110
3.27999999374151 1114
3.29999999329448 1124
3.31999999284744 1103
3.33999999240041 1038
3.35999999195337 1035
3.37999999150634 1059
3.3999999910593 1081
3.41999999061227 1022
3.43999999016523 1057
3.4599999897182 1017
3.47999998927116 1072
3.49999998882413 1049
3.51999998837709 1034
3.53999998793006 1029
3.55999998748302 1080
3.57999998703599 999
3.59999998658895 1075
3.61999998614192 1045
3.63999998569489 1060
3.65999998524785 1007
3.67999998480082 1059
3.69999998435378 992
3.71999998390675 1091
3.73999998345971 1073
3.75999998301268 991
3.77999998256564 1032
3.79999998211861 1065
3.81999998167157 1065
3.83999998122454 1123
3.8599999807775 1103
3.87999998033047 1083
3.89999997988343 1091
3.9199999794364 1139
3.93999997898936 1154
3.95999997854233 1177
3.97999997809529 1188
3.99999997764826 1195
4.01999997720122 1192
4.03999997675419 1258
4.05999997630715 1332
4.07999997586012 1410
4.09999997541308 1357
4.11999997496605 1343
4.13999997451901 1292
4.15999997407198 1231
4.17999997362494 1161
4.19999997317791 1044
4.21999997273087 1098
4.23999997228384 1050
4.25999997183681 1030
4.27999997138977 1006
4.29999997094274 973
4.3199999704957 973
4.33999997004867 968
4.35999996960163 983
4.3799999691546 940
4.39999996870756 964
4.41999996826053 1000
4.43999996781349 938
4.45999996736646 971
4.47999996691942 948
4.49999996647239 980
4.51999996602535 976
4.53999996557832 937
4.55999996513128 996
4.57999996468425 1043
4.59999996423721 1001
4.61999996379018 1005
4.63999996334314 1000
4.65999996289611 989
4.67999996244907 948
4.69999996200204 992
4.719999961555 1020
4.73999996110797 1096
4.75999996066093 1056
4.7799999602139 1089
4.79999995976686 1033
4.81999995931983 1118
4.83999995887279 1110
4.85999995842576 1153
4.87999995797873 1196
4.89999995753169 1169
4.91999995708466 1218
4.93999995663762 1194
4.95999995619059 1254
4.97999995574355 1302
4.99999995529652 1277
5.01999995484948 1298
5.03999995440245 1366
5.05999995395541 1440
5.07999995350838 1448
5.09999995306134 1463
5.11999995261431 1470
5.13999995216727 1590
5.15999995172024 1717
5.1799999512732 1753
5.19999995082617 1883
5.21999995037913 1844
5.2399999499321 2020
5.25999994948506 2104
5.27999994903803 2171
5.29999994859099 2331
5.31999994814396 2422
5.33999994769692 2571
5.35999994724989 2744
5.37999994680285 2972
5.39999994635582 3175
5.41999994590878 3124
5.43999994546175 3209
5.45999994501471 3065
5.47999994456768 3024
5.49999994412065 2963
5.51999994367361 2950
5.53999994322658 2993
5.55999994277954 3086
5.57999994233251 3164
5.59999994188547 3339
5.61999994143844 3419
5.6399999409914 3758
5.65999994054437 3883
5.67999994009733 4230
5.6999999396503 4675
5.71999993920326 4878
5.73999993875623 5410
5.75999993830919 5812
5.77999993786216 5827
5.79999993741512 5561
5.81999993696809 4765
5.83999993652105 3919
5.85999993607402 3142
5.87999993562698 2470
5.89999993517995 2068
5.91999993473291 1723
5.93999993428588 1491
5.95999993383884 1430
5.97999993339181 1335
5.99999993294477 1279
6.01999993249774 1216
6.0399999320507 1152
6.05999993160367 1077
6.07999993115663 1084
6.0999999307096 1133
6.11999993026257 1115
6.13999992981553 1035
6.1599999293685 989
6.17999992892146 1062
6.19999992847443 1011
6.21999992802739 1044
6.23999992758036 992
6.25999992713332 995
6.27999992668629 954
6.29999992623925 1001
6.31999992579222 982
6.33999992534518 998
6.35999992489815 1068
6.37999992445111 1030
6.39999992400408 1015
6.41999992355704 1040
6.43999992311001 1033
6.45999992266297 1101
6.47999992221594 1072
6.4999999217689 1112
6.51999992132187 1113
6.53999992087483 1135
6.5599999204278 1217
6.57999991998076 1173
6.59999991953373 1227
6.61999991908669 1265
6.63999991863966 1300
6.65999991819262 1367
6.67999991774559 1357
6.69999991729855 1346
6.71999991685152 1306
6.73999991640449 1276
6.75999991595745 1219
6.77999991551042 1226
6.79999991506338 1070
6.81999991461635 1023
6.83999991416931 964
6.85999991372228 900
6.87999991327524 904
6.89999991282821 833
6.91999991238117 811
6.93999991193414 729
6.9599999114871 732
6.97999991104007 771
6.99999991059303 777
7.019999910146 705
7.03999990969896 689
7.05999990925193 734
7.07999990880489 675
7.09999990835786 711
7.11999990791082 695
7.13999990746379 676
7.15999990701675 694
7.17999990656972 727
7.19999990612268 716
7.21999990567565 726
7.23999990522861 758
7.25999990478158 718
7.27999990433454 702
7.29999990388751 666
7.31999990344047 668
7.33999990299344 715
7.35999990254641 681
7.37999990209937 699
7.39999990165234 726
7.4199999012053 689
7.43999990075827 674
7.45999990031123 714
7.4799998998642 653
7.49999989941716 675
7.51999989897013 694
7.53999989852309 707
7.55999989807606 740
7.57999989762902 682
7.59999989718199 659
7.61999989673495 694
7.63999989628792 704
7.65999989584088 700
7.67999989539385 713
7.69999989494681 653
7.71999989449978 652
7.73999989405274 688
7.75999989360571 682
7.77999989315867 651
7.79999989271164 682
7.8199998922646 699
7.83999989181757 663
7.85999989137053 646
7.8799998909235 713
7.89999989047646 686
7.91999989002943 644
7.9399998895824 670
7.95999988913536 678
7.97999988868833 708
7.99999988824129 654
8.01999988779426 654
8.03999988734722 715
8.05999988690019 661
8.07999988645315 711
8.09999988600612 700
8.11999988555908 737
8.13999988511205 717
8.15999988466501 711
8.17999988421798 703
8.19999988377094 676
8.21999988332391 679
8.23999988287687 707
8.25999988242984 631
8.2799998819828 667
8.29999988153577 670
8.31999988108873 701
8.3399998806417 660
8.35999988019466 670
8.37999987974763 614
8.39999987930059 700
8.41999987885356 661
8.43999987840652 701
8.45999987795949 681
8.47999987751245 697
8.49999987706542 703
8.51999987661839 615
8.53999987617135 663
8.55999987572432 688
8.57999987527728 667
8.59999987483025 669
8.61999987438321 685
8.63999987393618 627
8.65999987348914 681
8.67999987304211 664
8.69999987259507 662
8.71999987214804 654
8.739999871701 670
8.75999987125397 650
8.77999987080693 682
8.7999998703599 710
8.81999986991286 685
8.83999986946583 725
8.85999986901879 692
8.87999986857176 700
8.89999986812472 736
8.91999986767769 657
8.93999986723065 717
8.95999986678362 781
8.97999986633658 788
8.99999986588955 825
9.01999986544251 779
9.03999986499548 814
9.05999986454844 822
9.07999986410141 860
9.09999986365438 862
9.11999986320734 961
9.13999986276031 919
9.15999986231327 1035
9.17999986186624 1033
9.1999998614192 1047
9.21999986097217 1192
9.23999986052513 1316
9.2599998600781 1379
9.27999985963106 1505
9.29999985918403 1585
9.31999985873699 1735
9.33999985828996 1777
9.35999985784292 1678
9.37999985739589 1585
9.39999985694885 1405
9.41999985650182 1268
9.43999985605478 1102
9.45999985560775 980
9.47999985516071 869
9.49999985471368 822
9.51999985426664 834
9.53999985381961 778
9.55999985337257 721
9.57999985292554 738
9.5999998524785 755
9.61999985203147 683
9.63999985158443 700
9.6599998511374 742
9.67999985069037 655
9.69999985024333 682
9.7199998497963 674
9.73999984934926 671
9.75999984890223 698
9.77999984845519 676
9.79999984800816 697
9.81999984756112 697
9.83999984711409 702
9.85999984666705 712
9.87999984622002 658
9.89999984577298 675
9.91999984532595 688
9.93999984487891 681
9.95999984443188 722
9.97999984398484 731
9.99999984353781 689
10.0199998430908 739
10.0399998426437 738
10.0599998421967 714
10.0799998417497 777
10.0999998413026 838
10.1199998408556 836
10.1399998404086 849
10.1599998399615 847
10.1799998395145 837
10.1999998390675 800
10.2199998386204 829
10.2399998381734 744
10.2599998377264 756
10.2799998372793 751
10.2999998368323 722
10.3199998363853 706
10.3399998359382 654
10.3599998354912 643
10.3799998350441 677
10.3999998345971 639
10.4199998341501 682
10.439999833703 652
10.459999833256 665
10.479999832809 647
10.4999998323619 663
10.5199998319149 714
10.5399998314679 696
10.5599998310208 732
10.5799998305738 743
10.5999998301268 711
10.6199998296797 736
10.6399998292327 740
10.6599998287857 802
10.6799998283386 803
10.6999998278916 856
10.7199998274446 887
10.7399998269975 949
10.7599998265505 990
10.7799998261034 919
10.7999998256564 979
10.8199998252094 997
10.8399998247623 1038
10.8599998243153 1006
10.8799998238683 1071
10.8999998234212 1126
10.9199998229742 1209
10.9399998225272 1253
10.9599998220801 1285
10.9799998216331 1217
10.9999998211861 1117
11.019999820739 1073
11.039999820292 952
11.059999819845 900
11.0799998193979 819
11.0999998189509 800
11.1199998185039 749
11.1399998180568 771
11.1599998176098 767
11.1799998171628 699
11.1999998167157 718
11.2199998162687 719
11.2399998158216 682
11.2599998153746 683
11.2799998149276 679
11.2999998144805 701
11.3199998140335 709
11.3399998135865 714
11.3599998131394 726
11.3799998126924 749
11.3999998122454 755
11.4199998117983 781
11.4399998113513 823
11.4599998109043 881
11.4799998104572 814
11.4999998100102 884
11.5199998095632 855
11.5399998091161 882
11.5599998086691 740
11.5799998082221 801
11.599999807775 714
11.619999807328 680
11.639999806881 651
11.6599998064339 672
11.6799998059869 655
11.6999998055398 614
11.7199998050928 639
11.7399998046458 659
11.7599998041987 627
11.7799998037517 609
11.7999998033047 619
11.8199998028576 572
11.8399998024106 599
11.8599998019636 607
11.8799998015165 622
11.8999998010695 583
11.9199998006225 597
11.9399998001754 635
11.9599997997284 624
11.9799997992814 631
11.9999997988343 628
12.0199997983873 664
12.0399997979403 617
12.0599997974932 617
12.0799997970462 629
12.0999997965992 604
12.1199997961521 631
12.1399997957051 651
12.159999795258 649
12.179999794811 695
12.199999794364 688
12.2199997939169 677
12.2399997934699 658
12.2599997930229 697
12.2799997925758 657
12.2999997921288 629
12.3199997916818 635
12.3399997912347 649
12.3599997907877 637
12.3799997903407 609
12.3999997898936 583
12.4199997894466 622
12.4399997889996 624
12.4599997885525 559
12.4799997881055 616
12.4999997876585 568
12.5199997872114 598
12.5399997867644 559
12.5599997863173 579
12.5799997858703 575
12.5999997854233 623
12.6199997849762 588
12.6399997845292 586
12.6599997840822 590
12.6799997836351 580
12.6999997831881 575
12.7199997827411 587
12.739999782294 570
12.759999781847 574
12.7799997814 568
12.7999997809529 569
12.8199997805059 589
12.8399997800589 576
12.8599997796118 607
12.8799997791648 575
12.8999997787178 554
12.9199997782707 595
12.9399997778237 589
12.9599997773767 580
12.9799997769296 573
12.9999997764826 602
13.0199997760355 564
13.0399997755885 597
13.0599997751415 593
13.0799997746944 565
13.0999997742474 569
13.1199997738004 591
13.1399997733533 572
13.1599997729063 619
13.1799997724593 590
13.1999997720122 607
13.2199997715652 549
13.2399997711182 559
13.2599997706711 628
13.2799997702241 650
13.2999997697771 622
13.31999976933 613
13.339999768883 602
13.359999768436 635
13.3799997679889 618
13.3999997675419 609
13.4199997670949 593
13.4399997666478 611
13.4599997662008 585
13.4799997657537 572
13.4999997653067 603
13.5199997648597 644
13.5399997644126 616
13.5599997639656 611
13.5799997635186 558
13.5999997630715 565
13.6199997626245 567
13.6399997621775 545
13.6599997617304 539
13.6799997612834 578
13.6999997608364 566
13.7199997603893 556
13.7399997599423 592
13.7599997594953 620
13.7799997590482 563
13.7999997586012 597
13.8199997581542 598
13.8399997577071 567
13.8599997572601 585
13.879999756813 614
13.899999756366 562
13.919999755919 618
13.9399997554719 535
13.9599997550249 566
13.9799997545779 570
13.9999997541308 562
14.0199997536838 575
14.0399997532368 583
14.0599997527897 573
14.0799997523427 593
14.0999997518957 561
14.1199997514486 603
14.1399997510016 637
14.1599997505546 593
14.1799997501075 630
14.1999997496605 596
14.2199997492135 594
14.2399997487664 602
14.2599997483194 575
14.2799997478724 591
14.2999997474253 585
14.3199997469783 621
14.3399997465312 636
14.3599997460842 617
14.3799997456372 591
14.3999997451901 660
14.4199997447431 641
14.4399997442961 637
14.459999743849 641
14.479999743402 663
14.499999742955 617
14.5199997425079 621
14.5399997420609 638
14.5599997416139 607
14.5799997411668 613
14.5999997407198 602
14.6199997402728 628
14.6399997398257 608
14.6599997393787 613
14.6799997389317 582
14.6999997384846 609
14.7199997380376 648
14.7399997375906 586
14.7599997371435 633
14.7799997366965 628
14.7999997362494 648
14.8199997358024 617
14.8399997353554 622
14.8599997349083 612
14.8799997344613 632
14.8999997340143 594
14.9199997335672 579
14.9399997331202 553
14.9599997326732 589
14.9799997322261 617
14.9999997317791 563
15.0199997313321 624
15.039999730885 608
15.059999730438 589
15.079999729991 598
15.0999997295439 603
15.1199997290969 606
15.1399997286499 616
15.1599997282028 609
15.1799997277558 634
15.1999997273088 653
15.2199997268617 624
15.2399997264147 624
15.2599997259676 642
15.2799997255206 577
15.2999997250736 595
15.3199997246265 610
15.3399997241795 616
15.3599997237325 626
15.3799997232854 658
15.3999997228384 612
15.4199997223914 624
15.4399997219443 644
15.4599997214973 600
15.4799997210503 617
15.4999997206032 636
15.5199997201562 603
15.5399997197092 567
15.5599997192621 586
15.5799997188151 638
15.5999997183681 613
15.619999717921 618
15.639999717474 600
15.659999717027 650
15.6799997165799 604
15.6999997161329 649
15.7199997156858 646
15.7399997152388 589
15.7599997147918 599
15.7799997143447 671
15.7999997138977 634
15.8199997134507 638
15.8399997130036 581
15.8599997125566 599
15.8799997121096 609
15.8999997116625 645
15.9199997112155 653
15.9399997107685 652
15.9599997103214 613
15.9799997098744 635
15.9999997094274 601
16.0199997089803 677
16.0399997085333 693
16.0599997080863 680
16.0799997076392 656
16.0999997071922 661
16.1199997067451 671
16.1399997062981 665
16.1599997058511 673
16.179999705404 666
16.199999704957 675
16.21999970451 698
16.2399997040629 652
16.2599997036159 665
16.2799997031689 692
16.2999997027218 714
16.3199997022748 714
16.3399997018278 662
16.3599997013807 729
16.3799997009337 715
16.3999997004867 681
16.4199997000396 690
16.4399996995926 632
16.4599996991456 636
16.4799996986985 681
16.4999996982515 705
16.5199996978045 689
16.5399996973574 699
16.5599996969104 662
16.5799996964633 656
16.5999996960163 703
16.6199996955693 741
16.6399996951222 717
16.6599996946752 715
16.6799996942282 719
16.6999996937811 669
16.7199996933341 673
16.7399996928871 647
16.75999969244 726
16.779999691993 739
16.799999691546 725
16.8199996910989 728
16.8399996906519 648
16.8599996902049 693
16.8799996897578 670
16.8999996893108 731
16.9199996888638 742
16.9399996884167 733
16.9599996879697 729
16.9799996875226 741
16.9999996870756 740
17.0199996866286 761
17.0399996861815 727
17.0599996857345 734
17.0799996852875 782
17.0999996848404 719
17.1199996843934 728
17.1399996839464 729
17.1599996834993 710
17.1799996830523 759
17.1999996826053 745
17.2199996821582 797
17.2399996817112 768
17.2599996812642 785
17.2799996808171 760
17.2999996803701 755
17.3199996799231 789
17.339999679476 773
17.359999679029 818
17.379999678582 760
17.3999996781349 756
17.4199996776879 752
17.4399996772408 733
17.4599996767938 760
17.4799996763468 743
17.4999996758997 812
17.5199996754527 807
17.5399996750057 759
17.5599996745586 764
17.5799996741116 756
17.5999996736646 793
17.6199996732175 791
17.6399996727705 802
17.6599996723235 796
17.6799996718764 775
17.6999996714294 770
17.7199996709824 781
17.7399996705353 771
17.7599996700883 827
17.7799996696413 766
17.7999996691942 776
17.8199996687472 784
17.8399996683002 842
17.8599996678531 773
17.8799996674061 803
17.899999666959 788
17.919999666512 820
17.939999666065 785
17.9599996656179 792
17.9799996651709 835
17.9999996647239 772
18.0199996642768 827
18.0399996638298 809
18.0599996633828 840
18.0799996629357 824
18.0999996624887 793
18.1199996620417 808
18.1399996615946 771
18.1599996611476 782
18.1799996607006 833
18.1999996602535 821
18.2199996598065 839
18.2399996593595 865
18.2599996589124 817
18.2799996584654 836
18.2999996580184 852
18.3199996575713 866
18.3399996571243 896
18.3599996566772 806
18.3799996562302 876
18.3999996557832 832
18.4199996553361 853
18.4399996548891 853
18.4599996544421 874
18.479999653995 900
18.499999653548 812
18.519999653101 883
18.5399996526539 880
18.5599996522069 881
18.5799996517599 910
18.5999996513128 892
18.6199996508658 886
18.6399996504188 930
18.6599996499717 915
18.6799996495247 927
18.6999996490777 911
18.7199996486306 923
18.7399996481836 886
18.7599996477366 911
18.7799996472895 953
18.7999996468425 960
18.8199996463954 894
18.8399996459484 905
18.8599996455014 912
18.8799996450543 864
18.8999996446073 975
18.9199996441603 960
18.9399996437132 1001
18.9599996432662 972
18.9799996428192 941
18.9999996423721 973
19.0199996419251 959
19.0399996414781 947
19.059999641031 949
19.079999640584 1042
19.099999640137 950
19.1199996396899 975
19.1399996392429 1008
19.1599996387959 1035
19.1799996383488 995
19.1999996379018 989
19.2199996374547 927
19.2399996370077 979
19.2599996365607 979
19.2799996361136 960
19.2999996356666 1026
19.3199996352196 974
19.3399996347725 938
19.3599996343255 976
19.3799996338785 1004
19.3999996334314 1087
19.4199996329844 1031
19.4399996325374 999
19.4599996320903 1110
19.4799996316433 1058
19.4999996311963 1060
19.5199996307492 1058
19.5399996303022 1107
19.5599996298552 1071
19.5799996294081 1089
19.5999996289611 1021
19.6199996285141 1041
19.639999628067 972
19.65999962762 988
19.6799996271729 1062
19.6999996267259 995
19.7199996262789 998
19.7399996258318 967
19.7599996253848 1059
19.7799996249378 1027
19.7999996244907 1079
19.8199996240437 1058
19.8399996235967 1041
19.8599996231496 1093
19.8799996227026 1107
19.8999996222556 1103
19.9199996218085 1069
19.9399996213615 1046
19.9599996209145 1037
19.9799996204674 1044
19.9999996200204 1069
