3 2031
3.01999999955297 1805
3.03999999910593 1653
3.0599999986589 1584
3.07999999821186 1512
3.09999999776483 1445
3.11999999731779 1371
3.13999999687076 1373
3.15999999642372 1245
3.17999999597669 1229
3.19999999552965 1261
3.21999999508262 1213
3.23999999463558 1242
3.25999999418855 1195
3.27999999374151 1170
3.29999999329448 1203
3.31999999284744 1099
3.33999999240041 1123
3.35999999195337 1085
3.37999999150634 1171
3.3999999910593 1065
3.41999999061227 1046
3.43999999016523 1029
3.4599999897182 1018
3.47999998927116 993
3.49999998882413 1037
3.51999998837709 996
3.53999998793006 1020
3.55999998748302 938
3.57999998703599 961
3.59999998658895 941
3.61999998614192 945
3.63999998569489 931
3.65999998524785 946
3.67999998480082 1000
3.69999998435378 909
3.71999998390675 919
3.73999998345971 961
3.75999998301268 908
3.77999998256564 901
3.79999998211861 928
3.81999998167157 867
3.83999998122454 859
3.8599999807775 894
3.87999998033047 873
3.89999997988343 862
3.9199999794364 827
3.93999997898936 840
3.95999997854233 847
3.97999997809529 844
3.99999997764826 828
4.01999997720122 852
4.03999997675419 852
4.05999997630715 794
4.07999997586012 807
4.09999997541308 749
4.11999997496605 804
4.13999997451901 839
4.15999997407198 829
4.17999997362494 788
4.19999997317791 862
4.21999997273087 843
4.23999997228384 808
4.25999997183681 800
4.27999997138977 781
4.29999997094274 772
4.3199999704957 782
4.33999997004867 795
4.35999996960163 814
4.3799999691546 780
4.39999996870756 779
4.41999996826053 825
4.43999996781349 807
4.45999996736646 772
4.47999996691942 813
4.49999996647239 817
4.51999996602535 855
4.53999996557832 816
4.55999996513128 851
4.57999996468425 820
4.59999996423721 807
4.61999996379018 810
4.63999996334314 823
4.65999996289611 785
4.67999996244907 845
4.69999996200204 850
4.719999961555 796
4.73999996110797 888
4.75999996066093 886
4.7799999602139 852
4.79999995976686 858
4.81999995931983 899
4.83999995887279 859
4.85999995842576 906
4.87999995797873 869
4.89999995753169 901
4.91999995708466 884
4.93999995663762 923
4.95999995619059 939
4.97999995574355 904
4.99999995529652 897
5.01999995484948 919
5.03999995440245 973
5.05999995395541 957
5.07999995350838 1003
5.09999995306134 956
5.11999995261431 976
5.13999995216727 960
5.15999995172024 1023
5.1799999512732 959
5.19999995082617 1010
5.21999995037913 1026
5.2399999499321 995
5.25999994948506 1077
5.27999994903803 1074
5.29999994859099 1069
5.31999994814396 1101
5.33999994769692 1054
5.35999994724989 1051
5.37999994680285 1046
5.39999994635582 1049
5.41999994590878 1061
5.43999994546175 1079
5.45999994501471 1045
5.47999994456768 1123
5.49999994412065 1013
5.51999994367361 1048
5.53999994322658 1086
5.55999994277954 1058
5.57999994233251 1010
5.59999994188547 1073
5.61999994143844 1018
5.6399999409914 995
5.65999994054437 998
5.67999994009733 1004
5.6999999396503 1059
5.71999993920326 985
5.73999993875623 974
5.75999993830919 953
5.77999993786216 898
5.79999993741512 948
5.81999993696809 956
5.83999993652105 944
5.85999993607402 883
5.87999993562698 826
5.89999993517995 865
5.91999993473291 770
5.93999993428588 812
5.95999993383884 783
5.97999993339181 793
5.99999993294477 758
6.01999993249774 730
6.0399999320507 769
6.05999993160367 758
6.07999993115663 711
6.0999999307096 725
6.11999993026257 730
6.13999992981553 677
6.1599999293685 672
6.17999992892146 739
6.19999992847443 711
6.21999992802739 696
6.23999992758036 659
6.25999992713332 633
6.27999992668629 651
6.29999992623925 645
6.31999992579222 641
6.33999992534518 625
6.35999992489815 706
6.37999992445111 617
6.39999992400408 636
6.41999992355704 652
6.43999992311001 673
6.45999992266297 646
6.47999992221594 611
6.4999999217689 589
6.51999992132187 615
6.53999992087483 603
6.5599999204278 599
6.57999991998076 601
6.59999991953373 600
6.61999991908669 612
6.63999991863966 587
6.65999991819262 579
6.67999991774559 556
6.69999991729855 567
6.71999991685152 577
6.73999991640449 601
6.75999991595745 569
6.77999991551042 598
6.79999991506338 600
6.81999991461635 590
6.83999991416931 546
6.85999991372228 589
6.87999991327524 536
6.89999991282821 497
6.91999991238117 547
6.93999991193414 600
6.9599999114871 561
6.97999991104007 562
6.99999991059303 551
7.019999910146 550
7.03999990969896 574
7.05999990925193 544
7.07999990880489 538
7.09999990835786 553
7.11999990791082 568
7.13999990746379 502
7.15999990701675 562
7.17999990656972 561
7.19999990612268 529
7.21999990567565 551
7.23999990522861 504
7.25999990478158 585
7.27999990433454 573
7.29999990388751 553
7.31999990344047 592
7.33999990299344 544
7.35999990254641 531
7.37999990209937 520
7.39999990165234 540
7.4199999012053 530
7.43999990075827 534
7.45999990031123 520
7.4799998998642 536
7.49999989941716 558
7.51999989897013 553
7.53999989852309 525
7.55999989807606 487
7.57999989762902 511
7.59999989718199 494
7.61999989673495 551
7.63999989628792 530
7.65999989584088 484
7.67999989539385 532
7.69999989494681 559
7.71999989449978 563
7.73999989405274 547
7.75999989360571 525
7.77999989315867 547
7.79999989271164 515
7.8199998922646 561
7.83999989181757 508
7.85999989137053 571
7.8799998909235 504
7.89999989047646 538
7.91999989002943 547
7.9399998895824 507
7.95999988913536 552
7.97999988868833 509
7.99999988824129 490
8.01999988779426 542
8.03999988734722 506
8.05999988690019 548
8.07999988645315 561
8.09999988600612 541
8.11999988555908 511
8.13999988511205 532
8.15999988466501 512
8.17999988421798 552
8.19999988377094 536
8.21999988332391 543
8.23999988287687 525
8.25999988242984 542
8.2799998819828 501
8.29999988153577 578
8.31999988108873 497
8.3399998806417 539
8.35999988019466 524
8.37999987974763 532
8.39999987930059 530
8.41999987885356 574
8.43999987840652 547
8.45999987795949 522
8.47999987751245 551
8.49999987706542 546
8.51999987661839 551
8.53999987617135 498
8.55999987572432 544
8.57999987527728 536
8.59999987483025 515
8.61999987438321 529
8.63999987393618 539
8.65999987348914 486
8.67999987304211 539
8.69999987259507 538
8.71999987214804 558
8.739999871701 573
8.75999987125397 532
8.77999987080693 565
8.7999998703599 573
8.81999986991286 488
8.83999986946583 557
8.85999986901879 530
8.87999986857176 595
8.89999986812472 554
8.91999986767769 545
8.93999986723065 586
8.95999986678362 534
8.97999986633658 560
8.99999986588955 552
9.01999986544251 581
9.03999986499548 563
9.05999986454844 579
9.07999986410141 576
9.09999986365438 557
9.11999986320734 605
9.13999986276031 548
9.15999986231327 546
9.17999986186624 583
9.1999998614192 595
9.21999986097217 585
9.23999986052513 575
9.2599998600781 601
9.27999985963106 625
9.29999985918403 583
9.31999985873699 618
9.33999985828996 589
9.35999985784292 613
9.37999985739589 558
9.39999985694885 574
9.41999985650182 565
9.43999985605478 597
9.45999985560775 599
9.47999985516071 571
9.49999985471368 604
9.51999985426664 589
9.53999985381961 546
9.55999985337257 584
9.57999985292554 579
9.5999998524785 539
9.61999985203147 589
9.63999985158443 574
9.6599998511374 560
9.67999985069037 560
9.69999985024333 592
9.7199998497963 558
9.73999984934926 617
9.75999984890223 566
9.77999984845519 580
9.79999984800816 501
9.81999984756112 530
9.83999984711409 581
9.85999984666705 557
9.87999984622002 554
9.89999984577298 538
9.91999984532595 590
9.93999984487891 532
9.95999984443188 566
9.97999984398484 564
9.99999984353781 538
10.0199998430908 536
10.0399998426437 512
10.0599998421967 523
10.0799998417497 554
10.0999998413026 527
10.1199998408556 552
10.1399998404086 577
10.1599998399615 536
10.1799998395145 510
10.1999998390675 552
10.2199998386204 548
10.2399998381734 551
10.2599998377264 545
10.2799998372793 523
10.2999998368323 527
10.3199998363853 540
10.3399998359382 513
10.3599998354912 537
10.3799998350441 506
10.3999998345971 537
10.4199998341501 526
10.439999833703 585
10.459999833256 544
10.479999832809 542
10.4999998323619 539
10.5199998319149 530
10.5399998314679 556
10.5599998310208 526
10.5799998305738 546
10.5999998301268 565
10.6199998296797 530
10.6399998292327 541
10.6599998287857 493
10.6799998283386 570
10.6999998278916 549
10.7199998274446 523
10.7399998269975 575
10.7599998265505 576
10.7799998261034 569
10.7999998256564 532
10.8199998252094 563
10.8399998247623 538
10.8599998243153 551
10.8799998238683 516
10.8999998234212 520
10.9199998229742 536
10.9399998225272 568
10.9599998220801 534
10.9799998216331 568
10.9999998211861 561
11.019999820739 542
11.039999820292 521
11.059999819845 524
11.0799998193979 484
11.0999998189509 518
11.1199998185039 564
11.1399998180568 574
11.1599998176098 535
11.1799998171628 573
11.1999998167157 545
11.2199998162687 480
11.2399998158216 511
11.2599998153746 492
11.2799998149276 536
11.2999998144805 534
11.3199998140335 543
11.3399998135865 518
11.3599998131394 508
11.3799998126924 497
11.3999998122454 519
11.4199998117983 498
11.4399998113513 502
11.4599998109043 568
11.4799998104572 557
11.4999998100102 601
11.5199998095632 524
11.5399998091161 518
11.5599998086691 490
11.5799998082221 518
11.599999807775 492
11.619999807328 516
11.639999806881 468
11.6599998064339 484
11.6799998059869 520
11.6999998055398 543
11.7199998050928 498
11.7399998046458 519
11.7599998041987 522
11.7799998037517 546
11.7999998033047 546
11.8199998028576 523
11.8399998024106 485
11.8599998019636 518
11.8799998015165 496
11.8999998010695 546
11.9199998006225 541
11.9399998001754 542
11.9599997997284 520
11.9799997992814 520
11.9999997988343 547
12.0199997983873 495
12.0399997979403 493
12.0599997974932 535
12.0799997970462 526
12.0999997965992 501
12.1199997961521 520
12.1399997957051 517
12.159999795258 541
12.179999794811 495
12.199999794364 550
12.2199997939169 523
12.2399997934699 520
12.2599997930229 530
12.2799997925758 507
12.2999997921288 471
12.3199997916818 512
12.3399997912347 555
12.3599997907877 532
12.3799997903407 500
12.3999997898936 535
12.4199997894466 504
12.4399997889996 518
12.4599997885525 504
12.4799997881055 536
12.4999997876585 510
12.5199997872114 522
12.5399997867644 549
12.5599997863173 494
12.5799997858703 538
12.5999997854233 506
12.6199997849762 512
12.6399997845292 509
12.6599997840822 527
12.6799997836351 528
12.6999997831881 534
12.7199997827411 504
12.739999782294 519
12.759999781847 542
12.7799997814 542
12.7999997809529 534
12.8199997805059 565
12.8399997800589 546
12.8599997796118 486
12.8799997791648 527
12.8999997787178 527
12.9199997782707 523
12.9399997778237 561
12.9599997773767 516
12.9799997769296 517
12.9999997764826 553
13.0199997760355 517
13.0399997755885 522
13.0599997751415 528
13.0799997746944 517
13.0999997742474 532
13.1199997738004 578
13.1399997733533 539
13.1599997729063 526
13.1799997724593 553
13.1999997720122 523
13.2199997715652 549
13.2399997711182 521
13.2599997706711 553
13.2799997702241 551
13.2999997697771 534
13.31999976933 546
13.339999768883 550
13.359999768436 552
13.3799997679889 528
13.3999997675419 580
13.4199997670949 532
13.4399997666478 597
13.4599997662008 574
13.4799997657537 549
13.4999997653067 599
13.5199997648597 598
13.5399997644126 568
13.5599997639656 528
13.5799997635186 549
13.5999997630715 567
13.6199997626245 563
13.6399997621775 572
13.6599997617304 526
13.6799997612834 556
13.6999997608364 582
13.7199997603893 539
13.7399997599423 539
13.7599997594953 537
13.7799997590482 515
13.7999997586012 554
13.8199997581542 536
13.8399997577071 542
13.8599997572601 605
13.879999756813 599
13.899999756366 591
13.919999755919 567
13.9399997554719 552
13.9599997550249 515
13.9799997545779 551
13.9999997541308 561
14.0199997536838 556
14.0399997532368 572
14.0599997527897 568
14.0799997523427 587
14.0999997518957 568
14.1199997514486 582
14.1399997510016 584
14.1599997505546 572
14.1799997501075 587
14.1999997496605 609
14.2199997492135 602
14.2399997487664 615
14.2599997483194 574
14.2799997478724 544
14.2999997474253 572
14.3199997469783 574
14.3399997465312 586
14.3599997460842 609
14.3799997456372 582
14.3999997451901 585
14.4199997447431 587
14.4399997442961 592
14.459999743849 586
14.479999743402 623
14.499999742955 575
14.5199997425079 587
14.5399997420609 579
14.5599997416139 610
14.5799997411668 618
14.5999997407198 567
14.6199997402728 601
14.6399997398257 594
14.6599997393787 581
14.6799997389317 597
14.6999997384846 593
14.7199997380376 601
14.7399997375906 588
14.7599997371435 599
14.7799997366965 595
14.7999997362494 619
14.8199997358024 645
14.8399997353554 568
14.8599997349083 621
14.8799997344613 610
14.8999997340143 620
14.9199997335672 657
14.9399997331202 635
14.9599997326732 599
14.9799997322261 645
14.9999997317791 629
15.0199997313321 625
15.039999730885 603
15.059999730438 589
15.079999729991 588
15.0999997295439 633
15.1199997290969 656
15.1399997286499 620
15.1599997282028 607
15.1799997277558 674
15.1999997273088 646
15.2199997268617 624
15.2399997264147 633
15.2599997259676 644
15.2799997255206 623
15.2999997250736 649
15.3199997246265 621
15.3399997241795 632
15.3599997237325 669
15.3799997232854 659
15.3999997228384 632
15.4199997223914 658
15.4399997219443 679
15.4599997214973 657
15.4799997210503 640
15.4999997206032 661
15.5199997201562 680
15.5399997197092 690
15.5599997192621 660
15.5799997188151 654
15.5999997183681 690
15.619999717921 648
15.639999717474 677
15.659999717027 632
15.6799997165799 663
15.6999997161329 632
15.7199997156858 646
15.7399997152388 658
15.7599997147918 659
15.7799997143447 651
15.7999997138977 689
15.8199997134507 683
15.8399997130036 712
15.8599997125566 694
15.8799997121096 668
15.8999997116625 696
15.9199997112155 668
15.9399997107685 713
15.9599997103214 674
15.9799997098744 672
15.9999997094274 699
16.0199997089803 702
16.0399997085333 688
16.0599997080863 672
16.0799997076392 667
16.0999997071922 721
16.1199997067451 713
16.1399997062981 654
16.1599997058511 699
16.179999705404 718
16.199999704957 696
16.21999970451 717
16.2399997040629 711
16.2599997036159 748
16.2799997031689 733
16.2999997027218 693
16.3199997022748 700
16.3399997018278 730
16.3599997013807 738
16.3799997009337 746
16.3999997004867 737
16.4199997000396 718
16.4399996995926 735
16.4599996991456 734
16.4799996986985 758
16.4999996982515 707
16.5199996978045 733
16.5399996973574 747
16.5599996969104 761
16.5799996964633 793
16.5999996960163 724
16.6199996955693 739
16.6399996951222 770
16.6599996946752 769
16.6799996942282 723
16.6999996937811 767
16.7199996933341 784
16.7399996928871 800
16.75999969244 756
16.779999691993 801
16.799999691546 802
16.8199996910989 741
16.8399996906519 784
16.8599996902049 787
16.8799996897578 807
16.8999996893108 811
16.9199996888638 807
16.9399996884167 778
16.9599996879697 809
16.9799996875226 774
16.9999996870756 725
17.0199996866286 802
17.0399996861815 766
17.0599996857345 791
17.0799996852875 795
17.0999996848404 790
17.1199996843934 801
17.1399996839464 775
17.1599996834993 804
17.1799996830523 770
17.1999996826053 779
17.2199996821582 830
17.2399996817112 796
17.2599996812642 771
17.2799996808171 848
17.2999996803701 767
17.3199996799231 842
17.339999679476 821
17.359999679029 874
17.379999678582 870
17.3999996781349 851
17.4199996776879 815
17.4399996772408 875
17.4599996767938 830
17.4799996763468 818
17.4999996758997 828
17.5199996754527 838
17.5399996750057 863
17.5599996745586 855
17.5799996741116 792
17.5999996736646 886
17.6199996732175 847
17.6399996727705 887
17.6599996723235 882
17.6799996718764 838
17.6999996714294 937
17.7199996709824 805
17.7399996705353 782
17.7599996700883 887
17.7799996696413 874
17.7999996691942 840
17.8199996687472 874
17.8399996683002 887
17.8599996678531 910
17.8799996674061 834
17.899999666959 853
17.919999666512 838
17.939999666065 916
17.9599996656179 879
17.9799996651709 891
17.9999996647239 871
18.0199996642768 898
18.0399996638298 875
18.0599996633828 886
18.0799996629357 920
18.0999996624887 875
18.1199996620417 861
18.1399996615946 911
18.1599996611476 896
18.1799996607006 949
18.1999996602535 922
18.2199996598065 900
18.2399996593595 910
18.2599996589124 933
18.2799996584654 910
18.2999996580184 926
18.3199996575713 962
18.3399996571243 1004
18.3599996566772 930
18.3799996562302 977
18.3999996557832 969
18.4199996553361 935
18.4399996548891 972
18.4599996544421 983
18.479999653995 952
18.499999653548 956
18.519999653101 904
18.5399996526539 911
18.5599996522069 970
18.5799996517599 941
18.5999996513128 983
18.6199996508658 921
18.6399996504188 948
18.6599996499717 950
18.6799996495247 1010
18.6999996490777 962
18.7199996486306 1017
18.7399996481836 1011
18.7599996477366 1011
18.7799996472895 987
18.7999996468425 1053
18.8199996463954 1031
18.8399996459484 1098
18.8599996455014 1006
18.8799996450543 986
18.8999996446073 1003
18.9199996441603 1002
18.9399996437132 971
18.9599996432662 1039
18.9799996428192 1027
18.9999996423721 1049
19.0199996419251 1004
19.0399996414781 1060
19.059999641031 1096
19.079999640584 1015
19.099999640137 1017
19.1199996396899 992
19.1399996392429 1044
19.1599996387959 1015
19.1799996383488 1067
19.1999996379018 1053
19.2199996374547 1028
19.2399996370077 1042
19.2599996365607 1067
19.2799996361136 1113
19.2999996356666 1083
19.3199996352196 1070
19.3399996347725 1131
19.3599996343255 1067
19.3799996338785 1080
19.3999996334314 1070
19.4199996329844 1119
19.4399996325374 1063
19.4599996320903 1019
19.4799996316433 1071
19.4999996311963 1109
19.5199996307492 1089
19.5399996303022 1056
19.5599996298552 1082
19.5799996294081 1154
19.5999996289611 1147
19.6199996285141 1135
19.639999628067 1068
19.65999962762 1076
19.6799996271729 1101
19.6999996267259 1098
19.7199996262789 1044
19.7399996258318 1083
19.7599996253848 1132
19.7799996249378 1100
19.7999996244907 1062
19.8199996240437 1129
19.8399996235967 1119
19.8599996231496 1113
19.8799996227026 1117
19.8999996222556 1089
19.9199996218085 1108
19.9399996213615 1143
19.9599996209145 1100
19.9799996204674 1129
19.9999996200204 1127
