3 1754
3.01999999955297 1482
3.03999999910593 1362
3.0599999986589 1247
3.07999999821186 1196
3.09999999776483 1111
3.11999999731779 1046
3.13999999687076 996
3.15999999642372 906
3.17999999597669 960
3.19999999552965 859
3.21999999508262 922
3.23999999463558 905
3.25999999418855 849
3.27999999374151 859
3.29999999329448 835
3.31999999284744 820
3.33999999240041 796
3.35999999195337 826
3.37999999150634 821
3.3999999910593 742
3.41999999061227 802
3.43999999016523 829
3.4599999897182 827
3.47999998927116 762
3.49999998882413 780
3.51999998837709 746
3.53999998793006 675
3.55999998748302 715
3.57999998703599 715
3.59999998658895 737
3.61999998614192 717
3.63999998569489 747
3.65999998524785 669
3.67999998480082 705
3.69999998435378 700
3.71999998390675 708
3.73999998345971 711
3.75999998301268 674
3.77999998256564 668
3.79999998211861 680
3.81999998167157 703
3.83999998122454 733
3.8599999807775 677
3.87999998033047 677
3.89999997988343 663
3.9199999794364 677
3.93999997898936 646
3.95999997854233 660
3.97999997809529 609
3.99999997764826 714
4.01999997720122 679
4.03999997675419 660
4.05999997630715 724
4.07999997586012 649
4.09999997541308 613
4.11999997496605 633
4.13999997451901 603
4.15999997407198 653
4.17999997362494 612
4.19999997317791 612
4.21999997273087 603
4.23999997228384 614
4.25999997183681 628
4.27999997138977 626
4.29999997094274 589
4.3199999704957 606
4.33999997004867 594
4.35999996960163 607
4.3799999691546 592
4.39999996870756 590
4.41999996826053 601
4.43999996781349 589
4.45999996736646 585
4.47999996691942 548
4.49999996647239 585
4.51999996602535 572
4.53999996557832 593
4.55999996513128 603
4.57999996468425 565
4.59999996423721 577
4.61999996379018 587
4.63999996334314 581
4.65999996289611 571
4.67999996244907 601
4.69999996200204 596
4.719999961555 599
4.73999996110797 612
4.75999996066093 579
4.7799999602139 607
4.79999995976686 614
4.81999995931983 639
4.83999995887279 603
4.85999995842576 672
4.87999995797873 623
4.89999995753169 625
4.91999995708466 645
4.93999995663762 656
4.95999995619059 679
4.97999995574355 659
4.99999995529652 711
5.01999995484948 671
5.03999995440245 651
5.05999995395541 688
5.07999995350838 716
5.09999995306134 732
5.11999995261431 762
5.13999995216727 818
5.15999995172024 791
5.1799999512732 791
5.19999995082617 790
5.21999995037913 802
5.2399999499321 820
5.25999994948506 850
5.27999994903803 933
5.29999994859099 925
5.31999994814396 921
5.33999994769692 1019
5.35999994724989 1039
5.37999994680285 999
5.39999994635582 1157
5.41999994590878 1119
5.43999994546175 1114
5.45999994501471 1230
5.47999994456768 1164
5.49999994412065 1221
5.51999994367361 1217
5.53999994322658 1263
5.55999994277954 1323
5.57999994233251 1244
5.59999994188547 1338
5.61999994143844 1347
5.6399999409914 1318
5.65999994054437 1361
5.67999994009733 1398
5.6999999396503 1428
5.71999993920326 1517
5.73999993875623 1488
5.75999993830919 1591
5.77999993786216 1557
5.79999993741512 1520
5.81999993696809 1608
5.83999993652105 1566
5.85999993607402 1478
5.87999993562698 1308
5.89999993517995 1207
5.91999993473291 1098
5.93999993428588 1055
5.95999993383884 970
5.97999993339181 918
5.99999993294477 788
6.01999993249774 778
6.0399999320507 767
6.05999993160367 768
6.07999993115663 751
6.0999999307096 703
6.11999993026257 744
6.13999992981553 698
6.1599999293685 703
6.17999992892146 668
6.19999992847443 709
6.21999992802739 623
6.23999992758036 652
6.25999992713332 645
6.27999992668629 610
6.29999992623925 663
6.31999992579222 644
6.33999992534518 669
6.35999992489815 634
6.37999992445111 626
6.39999992400408 638
6.41999992355704 657
6.43999992311001 646
6.45999992266297 700
6.47999992221594 629
6.4999999217689 642
6.51999992132187 671
6.53999992087483 662
6.5599999204278 691
6.57999991998076 673
6.59999991953373 696
6.61999991908669 677
6.63999991863966 712
6.65999991819262 694
6.67999991774559 670
6.69999991729855 677
6.71999991685152 650
6.73999991640449 672
6.75999991595745 604
6.77999991551042 605
6.79999991506338 589
6.81999991461635 560
6.83999991416931 522
6.85999991372228 592
6.87999991327524 551
6.89999991282821 516
6.91999991238117 572
6.93999991193414 530
6.9599999114871 522
6.97999991104007 543
6.99999991059303 511
7.019999910146 538
7.03999990969896 511
7.05999990925193 495
7.07999990880489 544
7.09999990835786 517
7.11999990791082 517
7.13999990746379 550
7.15999990701675 513
7.17999990656972 482
7.19999990612268 533
7.21999990567565 468
7.23999990522861 498
7.25999990478158 494
7.27999990433454 499
7.29999990388751 482
7.31999990344047 510
7.33999990299344 470
7.35999990254641 499
7.37999990209937 517
7.39999990165234 511
7.4199999012053 493
7.43999990075827 518
7.45999990031123 503
7.4799998998642 469
7.49999989941716 494
7.51999989897013 497
7.53999989852309 466
7.55999989807606 498
7.57999989762902 516
7.59999989718199 498
7.61999989673495 471
7.63999989628792 514
7.65999989584088 511
7.67999989539385 509
7.69999989494681 479
7.71999989449978 526
7.73999989405274 477
7.75999989360571 490
7.77999989315867 500
7.79999989271164 522
7.8199998922646 502
7.83999989181757 471
7.85999989137053 498
7.8799998909235 444
7.89999989047646 498
7.91999989002943 550
7.9399998895824 502
7.95999988913536 456
7.97999988868833 493
7.99999988824129 499
8.01999988779426 496
8.03999988734722 535
8.05999988690019 568
8.07999988645315 501
8.09999988600612 492
8.11999988555908 520
8.13999988511205 533
8.15999988466501 502
8.17999988421798 486
8.19999988377094 491
8.21999988332391 520
8.23999988287687 508
8.25999988242984 535
8.2799998819828 520
8.29999988153577 522
8.31999988108873 520
8.3399998806417 533
8.35999988019466 487
8.37999987974763 497
8.39999987930059 514
8.41999987885356 496
8.43999987840652 512
8.45999987795949 485
8.47999987751245 511
8.49999987706542 477
8.51999987661839 466
8.53999987617135 491
8.55999987572432 507
8.57999987527728 511
8.59999987483025 508
8.61999987438321 510
8.63999987393618 522
8.65999987348914 553
8.67999987304211 537
8.69999987259507 526
8.71999987214804 562
8.739999871701 538
8.75999987125397 544
8.77999987080693 495
8.7999998703599 530
8.81999986991286 547
8.83999986946583 552
8.85999986901879 497
8.87999986857176 534
8.89999986812472 514
8.91999986767769 504
8.93999986723065 550
8.95999986678362 534
8.97999986633658 554
8.99999986588955 572
9.01999986544251 612
9.03999986499548 569
9.05999986454844 592
9.07999986410141 629
9.09999986365438 638
9.11999986320734 612
9.13999986276031 630
9.15999986231327 671
9.17999986186624 635
9.1999998614192 660
9.21999986097217 649
9.23999986052513 720
9.2599998600781 663
9.27999985963106 727
9.29999985918403 747
9.31999985873699 828
9.33999985828996 884
9.35999985784292 858
9.37999985739589 890
9.39999985694885 911
9.41999985650182 902
9.43999985605478 832
9.45999985560775 806
9.47999985516071 735
9.49999985471368 705
9.51999985426664 667
9.53999985381961 667
9.55999985337257 660
9.57999985292554 604
9.5999998524785 599
9.61999985203147 604
9.63999985158443 588
9.6599998511374 556
9.67999985069037 569
9.69999985024333 578
9.7199998497963 600
9.73999984934926 598
9.75999984890223 580
9.77999984845519 525
9.79999984800816 563
9.81999984756112 613
9.83999984711409 548
9.85999984666705 512
9.87999984622002 525
9.89999984577298 575
9.91999984532595 549
9.93999984487891 547
9.95999984443188 544
9.97999984398484 573
9.99999984353781 555
10.0199998430908 581
10.0399998426437 585
10.0599998421967 545
10.0799998417497 614
10.0999998413026 556
10.1199998408556 559
10.1399998404086 596
10.1599998399615 601
10.1799998395145 606
10.1999998390675 590
10.2199998386204 592
10.2399998381734 604
10.2599998377264 562
10.2799998372793 590
10.2999998368323 579
10.3199998363853 570
10.3399998359382 565
10.3599998354912 554
10.3799998350441 586
10.3999998345971 512
10.4199998341501 596
10.439999833703 540
10.459999833256 551
10.479999832809 536
10.4999998323619 524
10.5199998319149 593
10.5399998314679 582
10.5599998310208 587
10.5799998305738 601
10.5999998301268 543
10.6199998296797 567
10.6399998292327 573
10.6599998287857 584
10.6799998283386 627
10.6999998278916 615
10.7199998274446 620
10.7399998269975 658
10.7599998265505 632
10.7799998261034 707
10.7999998256564 671
10.8199998252094 663
10.8399998247623 663
10.8599998243153 721
10.8799998238683 772
10.8999998234212 778
10.9199998229742 753
10.9399998225272 707
10.9599998220801 842
10.9799998216331 788
10.9999998211861 798
11.019999820739 804
11.039999820292 771
11.059999819845 659
11.0799998193979 708
11.0999998189509 663
11.1199998185039 636
11.1399998180568 606
11.1599998176098 619
11.1799998171628 606
11.1999998167157 623
11.2199998162687 607
11.2399998158216 543
11.2599998153746 588
11.2799998149276 602
11.2999998144805 628
11.3199998140335 611
11.3399998135865 600
11.3599998131394 597
11.3799998126924 616
11.3999998122454 570
11.4199998117983 611
11.4399998113513 621
11.4599998109043 603
11.4799998104572 623
11.4999998100102 599
11.5199998095632 620
11.5399998091161 620
11.5599998086691 605
11.5799998082221 604
11.599999807775 589
11.619999807328 617
11.639999806881 589
11.6599998064339 579
11.6799998059869 538
11.6999998055398 588
11.7199998050928 560
11.7399998046458 583
11.7599998041987 544
11.7799998037517 517
11.7999998033047 537
11.8199998028576 552
11.8399998024106 572
11.8599998019636 516
11.8799998015165 554
11.8999998010695 529
11.9199998006225 538
11.9399998001754 561
11.9599997997284 560
11.9799997992814 548
11.9999997988343 517
12.0199997983873 544
12.0399997979403 553
12.0599997974932 544
12.0799997970462 528
12.0999997965992 550
12.1199997961521 552
12.1399997957051 554
12.159999795258 556
12.179999794811 531
12.199999794364 526
12.2199997939169 570
12.2399997934699 576
12.2599997930229 558
12.2799997925758 546
12.2999997921288 563
12.3199997916818 526
12.3399997912347 586
12.3599997907877 550
12.3799997903407 562
12.3999997898936 520
12.4199997894466 534
12.4399997889996 563
12.4599997885525 553
12.4799997881055 553
12.4999997876585 506
12.5199997872114 517
12.5399997867644 535
12.5599997863173 525
12.5799997858703 478
12.5999997854233 553
12.6199997849762 568
12.6399997845292 528
12.6599997840822 491
12.6799997836351 546
12.6999997831881 564
12.7199997827411 496
12.739999782294 521
12.759999781847 537
12.7799997814 553
12.7999997809529 514
12.8199997805059 519
12.8399997800589 537
12.8599997796118 553
12.8799997791648 513
12.8999997787178 565
12.9199997782707 529
12.9399997778237 544
12.9599997773767 532
12.9799997769296 518
12.9999997764826 518
13.0199997760355 562
13.0399997755885 574
13.0599997751415 524
13.0799997746944 529
13.0999997742474 572
13.1199997738004 565
13.1399997733533 563
13.1599997729063 545
13.1799997724593 536
13.1999997720122 589
13.2199997715652 552
13.2399997711182 536
13.2599997706711 549
13.2799997702241 563
13.2999997697771 587
13.31999976933 577
13.339999768883 550
13.359999768436 562
13.3799997679889 538
13.3999997675419 511
13.4199997670949 564
13.4399997666478 607
13.4599997662008 535
13.4799997657537 567
13.4999997653067 538
13.5199997648597 552
13.5399997644126 556
13.5599997639656 552
13.5799997635186 579
13.5999997630715 562
13.6199997626245 571
13.6399997621775 568
13.6599997617304 593
13.6799997612834 606
13.6999997608364 568
13.7199997603893 593
13.7399997599423 557
13.7599997594953 543
13.7799997590482 559
13.7999997586012 570
13.8199997581542 583
13.8399997577071 578
13.8599997572601 555
13.879999756813 565
13.899999756366 600
13.919999755919 599
13.9399997554719 593
13.9599997550249 645
13.9799997545779 571
13.9999997541308 622
14.0199997536838 606
14.0399997532368 603
14.0599997527897 622
14.0799997523427 576
14.0999997518957 569
14.1199997514486 569
14.1399997510016 596
14.1599997505546 645
14.1799997501075 615
14.1999997496605 646
14.2199997492135 570
14.2399997487664 605
14.2599997483194 596
14.2799997478724 621
14.2999997474253 629
14.3199997469783 598
14.3399997465312 613
14.3599997460842 594
14.3799997456372 665
14.3999997451901 658
14.4199997447431 667
14.4399997442961 631
14.459999743849 636
14.479999743402 665
14.499999742955 652
14.5199997425079 667
14.5399997420609 642
14.5599997416139 582
14.5799997411668 629
14.5999997407198 660
14.6199997402728 696
14.6399997398257 659
14.6599997393787 631
14.6799997389317 603
14.6999997384846 653
14.7199997380376 644
14.7399997375906 607
14.7599997371435 638
14.7799997366965 633
14.7999997362494 613
14.8199997358024 679
14.8399997353554 641
14.8599997349083 655
14.8799997344613 640
14.8999997340143 639
14.9199997335672 633
14.9399997331202 662
14.9599997326732 664
14.9799997322261 638
14.9999997317791 652
15.0199997313321 668
15.039999730885 609
15.059999730438 661
15.079999729991 647
15.0999997295439 630
15.1199997290969 652
15.1399997286499 632
15.1599997282028 661
15.1799997277558 640
15.1999997273088 648
15.2199997268617 665
15.2399997264147 641
15.2599997259676 642
15.2799997255206 668
15.2999997250736 667
15.3199997246265 662
15.3399997241795 670
15.3599997237325 642
15.3799997232854 690
15.3999997228384 672
15.4199997223914 686
15.4399997219443 667
15.4599997214973 657
15.4799997210503 698
15.4999997206032 657
15.5199997201562 654
15.5399997197092 643
15.5599997192621 664
15.5799997188151 653
15.5999997183681 695
15.619999717921 628
15.639999717474 689
15.659999717027 695
15.6799997165799 713
15.6999997161329 679
15.7199997156858 667
15.7399997152388 704
15.7599997147918 643
15.7799997143447 719
15.7999997138977 668
15.8199997134507 719
15.8399997130036 745
15.8599997125566 680
15.8799997121096 716
15.8999997116625 709
15.9199997112155 701
15.9399997107685 699
15.9599997103214 696
15.9799997098744 654
15.9999997094274 703
16.0199997089803 655
16.0399997085333 745
16.0599997080863 737
16.0799997076392 703
16.0999997071922 737
16.1199997067451 721
16.1399997062981 741
16.1599997058511 700
16.179999705404 728
16.199999704957 718
16.21999970451 752
16.2399997040629 769
16.2599997036159 781
16.2799997031689 748
16.2999997027218 704
16.3199997022748 725
16.3399997018278 770
16.3599997013807 743
16.3799997009337 762
16.3999997004867 746
16.4199997000396 789
16.4399996995926 767
16.4599996991456 753
16.4799996986985 762
16.4999996982515 742
16.5199996978045 839
16.5399996973574 749
16.5599996969104 727
16.5799996964633 758
16.5999996960163 790
16.6199996955693 769
16.6399996951222 775
16.6599996946752 771
16.6799996942282 751
16.6999996937811 757
16.7199996933341 779
16.7399996928871 735
16.75999969244 745
16.779999691993 784
16.799999691546 832
16.8199996910989 805
16.8399996906519 797
16.8599996902049 758
16.8799996897578 750
16.8999996893108 791
16.9199996888638 831
16.9399996884167 823
16.9599996879697 738
16.9799996875226 824
16.9999996870756 830
17.0199996866286 819
17.0399996861815 816
17.0599996857345 808
17.0799996852875 787
17.0999996848404 795
17.1199996843934 865
17.1399996839464 901
17.1599996834993 812
17.1799996830523 862
17.1999996826053 801
17.2199996821582 821
17.2399996817112 826
17.2599996812642 866
17.2799996808171 807
17.2999996803701 827
17.3199996799231 839
17.339999679476 893
17.359999679029 823
17.379999678582 837
17.3999996781349 863
17.4199996776879 896
17.4399996772408 909
17.4599996767938 816
17.4799996763468 917
17.4999996758997 844
17.5199996754527 872
17.5399996750057 873
17.5599996745586 862
17.5799996741116 898
17.5999996736646 908
17.6199996732175 884
17.6399996727705 907
17.6599996723235 860
17.6799996718764 929
17.6999996714294 888
17.7199996709824 943
17.7399996705353 856
17.7599996700883 914
17.7799996696413 901
17.7999996691942 852
17.8199996687472 893
17.8399996683002 896
17.8599996678531 902
17.8799996674061 898
17.899999666959 957
17.919999666512 926
17.939999666065 958
17.9599996656179 985
17.9799996651709 943
17.9999996647239 899
18.0199996642768 983
18.0399996638298 967
18.0599996633828 959
18.0799996629357 969
18.0999996624887 936
18.1199996620417 971
18.1399996615946 984
18.1599996611476 907
18.1799996607006 959
18.1999996602535 1006
18.2199996598065 930
18.2399996593595 980
18.2599996589124 965
18.2799996584654 979
18.2999996580184 946
18.3199996575713 950
18.3399996571243 971
18.3599996566772 1000
18.3799996562302 959
18.3999996557832 931
18.4199996553361 1011
18.4399996548891 986
18.4599996544421 1043
18.479999653995 1016
18.499999653548 975
18.519999653101 1027
18.5399996526539 986
18.5599996522069 968
18.5799996517599 1057
18.5999996513128 1011
18.6199996508658 998
18.6399996504188 1045
18.6599996499717 1026
18.6799996495247 1050
18.6999996490777 1075
18.7199996486306 1088
18.7399996481836 1075
18.7599996477366 1028
18.7799996472895 1094
18.7999996468425 994
18.8199996463954 1075
18.8399996459484 1085
18.8599996455014 1102
18.8799996450543 1086
18.8999996446073 1090
18.9199996441603 1015
18.9399996437132 1092
18.9599996432662 1137
18.9799996428192 1085
18.9999996423721 1079
19.0199996419251 1150
19.0399996414781 1079
19.059999641031 1141
19.079999640584 1154
19.099999640137 1138
19.1199996396899 1106
19.1399996392429 1137
19.1599996387959 1105
19.1799996383488 1085
19.1999996379018 1103
19.2199996374547 1109
19.2399996370077 1192
19.2599996365607 1166
19.2799996361136 1147
19.2999996356666 1060
19.3199996352196 1121
19.3399996347725 1162
19.3599996343255 1177
19.3799996338785 1167
19.3999996334314 1216
19.4199996329844 1195
19.4399996325374 1249
19.4599996320903 1223
19.4799996316433 1176
19.4999996311963 1308
19.5199996307492 1332
19.5399996303022 1282
19.5599996298552 1276
19.5799996294081 1306
19.5999996289611 1291
19.6199996285141 1199
19.639999628067 1269
19.65999962762 1290
19.6799996271729 1320
19.6999996267259 1263
19.7199996262789 1232
19.7399996258318 1256
19.7599996253848 1212
19.7799996249378 1230
19.7999996244907 1228
19.8199996240437 1212
19.8399996235967 1256
19.8599996231496 1197
19.8799996227026 1247
19.8999996222556 1224
19.9199996218085 1296
19.9399996213615 1247
19.9599996209145 1189
19.9799996204674 1252
19.9999996200204 1187
