3 1470
3.01999999955297 1321
3.03999999910593 1188
3.0599999986589 1053
3.07999999821186 974
3.09999999776483 896
3.11999999731779 825
3.13999999687076 816
3.15999999642372 770
3.17999999597669 733
3.19999999552965 781
3.21999999508262 710
3.23999999463558 751
3.25999999418855 736
3.27999999374151 698
3.29999999329448 694
3.31999999284744 638
3.33999999240041 654
3.35999999195337 644
3.37999999150634 631
3.3999999910593 640
3.41999999061227 629
3.43999999016523 627
3.4599999897182 608
3.47999998927116 585
3.49999998882413 621
3.51999998837709 580
3.53999998793006 591
3.55999998748302 576
3.57999998703599 589
3.59999998658895 561
3.61999998614192 601
3.63999998569489 568
3.65999998524785 565
3.67999998480082 579
3.69999998435378 547
3.71999998390675 554
3.73999998345971 537
3.75999998301268 564
3.77999998256564 549
3.79999998211861 534
3.81999998167157 561
3.83999998122454 499
3.8599999807775 548
3.87999998033047 548
3.89999997988343 544
3.9199999794364 526
3.93999997898936 526
3.95999997854233 556
3.97999997809529 515
3.99999997764826 545
4.01999997720122 564
4.03999997675419 558
4.05999997630715 529
4.07999997586012 527
4.09999997541308 569
4.11999997496605 498
4.13999997451901 537
4.15999997407198 526
4.17999997362494 519
4.19999997317791 524
4.21999997273087 502
4.23999997228384 540
4.25999997183681 504
4.27999997138977 529
4.29999997094274 541
4.3199999704957 497
4.33999997004867 478
4.35999996960163 471
4.3799999691546 481
4.39999996870756 516
4.41999996826053 493
4.43999996781349 513
4.45999996736646 500
4.47999996691942 484
4.49999996647239 541
4.51999996602535 511
4.53999996557832 451
4.55999996513128 469
4.57999996468425 479
4.59999996423721 488
4.61999996379018 505
4.63999996334314 479
4.65999996289611 517
4.67999996244907 479
4.69999996200204 458
4.719999961555 507
4.73999996110797 480
4.75999996066093 492
4.7799999602139 524
4.79999995976686 489
4.81999995931983 505
4.83999995887279 509
4.85999995842576 473
4.87999995797873 481
4.89999995753169 496
4.91999995708466 493
4.93999995663762 502
4.95999995619059 487
4.97999995574355 538
4.99999995529652 504
5.01999995484948 524
5.03999995440245 509
5.05999995395541 555
5.07999995350838 566
5.09999995306134 545
5.11999995261431 567
5.13999995216727 556
5.15999995172024 553
5.1799999512732 597
5.19999995082617 579
5.21999995037913 568
5.2399999499321 579
5.25999994948506 607
5.27999994903803 582
5.29999994859099 600
5.31999994814396 638
5.33999994769692 607
5.35999994724989 642
5.37999994680285 614
5.39999994635582 686
5.41999994590878 726
5.43999994546175 717
5.45999994501471 735
5.47999994456768 751
5.49999994412065 796
5.51999994367361 840
5.53999994322658 799
5.55999994277954 881
5.57999994233251 844
5.59999994188547 911
5.61999994143844 918
5.6399999409914 963
5.65999994054437 948
5.67999994009733 1004
5.6999999396503 992
5.71999993920326 944
5.73999993875623 991
5.75999993830919 1007
5.77999993786216 1088
5.79999993741512 1083
5.81999993696809 1128
5.83999993652105 1155
5.85999993607402 1178
5.87999993562698 1212
5.89999993517995 1269
5.91999993473291 1294
5.93999993428588 1290
5.95999993383884 1349
5.97999993339181 1292
5.99999993294477 1208
6.01999993249774 1098
6.0399999320507 1026
6.05999993160367 903
6.07999993115663 889
6.0999999307096 778
6.11999993026257 735
6.13999992981553 704
6.1599999293685 661
6.17999992892146 635
6.19999992847443 641
6.21999992802739 605
6.23999992758036 601
6.25999992713332 573
6.27999992668629 518
6.29999992623925 571
6.31999992579222 590
6.33999992534518 568
6.35999992489815 518
6.37999992445111 557
6.39999992400408 558
6.41999992355704 585
6.43999992311001 547
6.45999992266297 517
6.47999992221594 557
6.4999999217689 570
6.51999992132187 551
6.53999992087483 566
6.5599999204278 551
6.57999991998076 578
6.59999991953373 583
6.61999991908669 558
6.63999991863966 550
6.65999991819262 572
6.67999991774559 646
6.69999991729855 608
6.71999991685152 608
6.73999991640449 671
6.75999991595745 642
6.77999991551042 634
6.79999991506338 626
6.81999991461635 657
6.83999991416931 686
6.85999991372228 694
6.87999991327524 602
6.89999991282821 571
6.91999991238117 581
6.93999991193414 520
6.9599999114871 541
6.97999991104007 532
6.99999991059303 495
7.019999910146 519
7.03999990969896 521
7.05999990925193 520
7.07999990880489 516
7.09999990835786 491
7.11999990791082 487
7.13999990746379 490
7.15999990701675 459
7.17999990656972 463
7.19999990612268 438
7.21999990567565 482
7.23999990522861 490
7.25999990478158 473
7.27999990433454 437
7.29999990388751 480
7.31999990344047 474
7.33999990299344 468
7.35999990254641 467
7.37999990209937 458
7.39999990165234 504
7.4199999012053 484
7.43999990075827 457
7.45999990031123 451
7.4799998998642 471
7.49999989941716 454
7.51999989897013 495
7.53999989852309 458
7.55999989807606 470
7.57999989762902 472
7.59999989718199 468
7.61999989673495 438
7.63999989628792 459
7.65999989584088 467
7.67999989539385 465
7.69999989494681 485
7.71999989449978 474
7.73999989405274 443
7.75999989360571 476
7.77999989315867 447
7.79999989271164 438
7.8199998922646 455
7.83999989181757 482
7.85999989137053 444
7.8799998909235 454
7.89999989047646 448
7.91999989002943 438
7.9399998895824 480
7.95999988913536 456
7.97999988868833 476
7.99999988824129 483
8.01999988779426 457
8.03999988734722 501
8.05999988690019 485
8.07999988645315 454
8.09999988600612 448
8.11999988555908 451
8.13999988511205 463
8.15999988466501 471
8.17999988421798 455
8.19999988377094 471
8.21999988332391 453
8.23999988287687 465
8.25999988242984 462
8.2799998819828 496
8.29999988153577 451
8.31999988108873 473
8.3399998806417 475
8.35999988019466 484
8.37999987974763 460
8.39999987930059 439
8.41999987885356 516
8.43999987840652 500
8.45999987795949 448
8.47999987751245 444
8.49999987706542 499
8.51999987661839 429
8.53999987617135 487
8.55999987572432 443
8.57999987527728 443
8.59999987483025 483
8.61999987438321 460
8.63999987393618 502
8.65999987348914 464
8.67999987304211 467
8.69999987259507 432
8.71999987214804 434
8.739999871701 484
8.75999987125397 455
8.77999987080693 457
8.7999998703599 437
8.81999986991286 504
8.83999986946583 469
8.85999986901879 503
8.87999986857176 460
8.89999986812472 425
8.91999986767769 466
8.93999986723065 491
8.95999986678362 497
8.97999986633658 461
8.99999986588955 469
9.01999986544251 507
9.03999986499548 505
9.05999986454844 490
9.07999986410141 509
9.09999986365438 510
9.11999986320734 487
9.13999986276031 482
9.15999986231327 486
9.17999986186624 507
9.1999998614192 527
9.21999986097217 511
9.23999986052513 528
9.2599998600781 544
9.27999985963106 524
9.29999985918403 561
9.31999985873699 578
9.33999985828996 584
9.35999985784292 575
9.37999985739589 607
9.39999985694885 596
9.41999985650182 657
9.43999985605478 658
9.45999985560775 648
9.47999985516071 673
9.49999985471368 679
9.51999985426664 734
9.53999985381961 747
9.55999985337257 749
9.57999985292554 761
9.5999998524785 759
9.61999985203147 652
9.63999985158443 621
9.6599998511374 586
9.67999985069037 522
9.69999985024333 533
9.7199998497963 550
9.73999984934926 529
9.75999984890223 524
9.77999984845519 520
9.79999984800816 500
9.81999984756112 522
9.83999984711409 496
9.85999984666705 501
9.87999984622002 489
9.89999984577298 482
9.91999984532595 511
9.93999984487891 503
9.95999984443188 511
9.97999984398484 526
9.99999984353781 484
10.0199998430908 466
10.0399998426437 500
10.0599998421967 520
10.0799998417497 492
10.0999998413026 549
10.1199998408556 475
10.1399998404086 561
10.1599998399615 509
10.1799998395145 456
10.1999998390675 510
10.2199998386204 503
10.2399998381734 548
10.2599998377264 539
10.2799998372793 544
10.2999998368323 549
10.3199998363853 523
10.3399998359382 562
10.3599998354912 535
10.3799998350441 524
10.3999998345971 505
10.4199998341501 502
10.439999833703 518
10.459999833256 523
10.479999832809 499
10.4999998323619 502
10.5199998319149 507
10.5399998314679 493
10.5599998310208 537
10.5799998305738 537
10.5999998301268 541
10.6199998296797 523
10.6399998292327 510
10.6599998287857 489
10.6799998283386 509
10.6999998278916 507
10.7199998274446 540
10.7399998269975 530
10.7599998265505 547
10.7799998261034 493
10.7999998256564 531
10.8199998252094 587
10.8399998247623 501
10.8599998243153 526
10.8799998238683 614
10.8999998234212 567
10.9199998229742 554
10.9399998225272 619
10.9599998220801 572
10.9799998216331 613
10.9999998211861 586
11.019999820739 643
11.039999820292 593
11.059999819845 633
11.0799998193979 664
11.0999998189509 648
11.1199998185039 668
11.1399998180568 681
11.1599998176098 705
11.1799998171628 724
11.1999998167157 689
11.2199998162687 742
11.2399998158216 633
11.2599998153746 600
11.2799998149276 566
11.2999998144805 591
11.3199998140335 552
11.3399998135865 559
11.3599998131394 554
11.3799998126924 564
11.3999998122454 534
11.4199998117983 542
11.4399998113513 552
11.4599998109043 515
11.4799998104572 509
11.4999998100102 553
11.5199998095632 543
11.5399998091161 572
11.5599998086691 525
11.5799998082221 561
11.599999807775 563
11.619999807328 531
11.639999806881 571
11.6599998064339 572
11.6799998059869 623
11.6999998055398 588
11.7199998050928 581
11.7399998046458 589
11.7599998041987 560
11.7799998037517 539
11.7999998033047 494
11.8199998028576 498
11.8399998024106 522
11.8599998019636 524
11.8799998015165 519
11.8999998010695 510
11.9199998006225 517
11.9399998001754 536
11.9599997997284 534
11.9799997992814 539
11.9999997988343 514
12.0199997983873 531
12.0399997979403 519
12.0599997974932 491
12.0799997970462 524
12.0999997965992 513
12.1199997961521 528
12.1399997957051 493
12.159999795258 519
12.179999794811 513
12.199999794364 498
12.2199997939169 512
12.2399997934699 500
12.2599997930229 539
12.2799997925758 514
12.2999997921288 525
12.3199997916818 525
12.3399997912347 523
12.3599997907877 532
12.3799997903407 524
12.3999997898936 490
12.4199997894466 539
12.4399997889996 553
12.4599997885525 534
12.4799997881055 558
12.4999997876585 544
12.5199997872114 543
12.5399997867644 575
12.5599997863173 549
12.5799997858703 510
12.5999997854233 549
12.6199997849762 557
12.6399997845292 519
12.6599997840822 508
12.6799997836351 517
12.6999997831881 541
12.7199997827411 526
12.739999782294 519
12.759999781847 567
12.7799997814 520
12.7999997809529 529
12.8199997805059 529
12.8399997800589 532
12.8599997796118 522
12.8799997791648 521
12.8999997787178 507
12.9199997782707 519
12.9399997778237 536
12.9599997773767 521
12.9799997769296 520
12.9999997764826 526
13.0199997760355 524
13.0399997755885 536
13.0599997751415 525
13.0799997746944 511
13.0999997742474 539
13.1199997738004 535
13.1399997733533 534
13.1599997729063 573
13.1799997724593 543
13.1999997720122 523
13.2199997715652 543
13.2399997711182 562
13.2599997706711 576
13.2799997702241 563
13.2999997697771 568
13.31999976933 565
13.339999768883 619
13.359999768436 563
13.3799997679889 609
13.3999997675419 594
13.4199997670949 553
13.4399997666478 546
13.4599997662008 606
13.4799997657537 575
13.4999997653067 602
13.5199997648597 554
13.5399997644126 554
13.5599997639656 555
13.5799997635186 551
13.5999997630715 547
13.6199997626245 542
13.6399997621775 562
13.6599997617304 583
13.6799997612834 574
13.6999997608364 569
13.7199997603893 533
13.7399997599423 624
13.7599997594953 584
13.7799997590482 622
13.7999997586012 556
13.8199997581542 559
13.8399997577071 585
13.8599997572601 598
13.879999756813 607
13.899999756366 526
13.919999755919 578
13.9399997554719 618
13.9599997550249 589
13.9799997545779 607
13.9999997541308 537
14.0199997536838 551
14.0399997532368 605
14.0599997527897 629
14.0799997523427 563
14.0999997518957 575
14.1199997514486 562
14.1399997510016 572
14.1599997505546 566
14.1799997501075 570
14.1999997496605 582
14.2199997492135 661
14.2399997487664 655
14.2599997483194 622
14.2799997478724 598
14.2999997474253 594
14.3199997469783 635
14.3399997465312 606
14.3599997460842 645
14.3799997456372 626
14.3999997451901 621
14.4199997447431 616
14.4399997442961 619
14.459999743849 615
14.479999743402 569
14.499999742955 593
14.5199997425079 639
14.5399997420609 623
14.5599997416139 688
14.5799997411668 691
14.5999997407198 618
14.6199997402728 712
14.6399997398257 671
14.6599997393787 659
14.6799997389317 695
14.6999997384846 640
14.7199997380376 665
14.7399997375906 691
14.7599997371435 632
14.7799997366965 672
14.7999997362494 634
14.8199997358024 653
14.8399997353554 663
14.8599997349083 649
14.8799997344613 652
14.8999997340143 660
14.9199997335672 693
14.9399997331202 628
14.9599997326732 701
14.9799997322261 701
14.9999997317791 678
15.0199997313321 683
15.039999730885 708
15.059999730438 700
15.079999729991 690
15.0999997295439 679
15.1199997290969 662
15.1399997286499 691
15.1599997282028 682
15.1799997277558 701
15.1999997273088 686
15.2199997268617 680
15.2399997264147 694
15.2599997259676 735
15.2799997255206 692
15.2999997250736 692
15.3199997246265 695
15.3399997241795 695
15.3599997237325 736
15.3799997232854 747
15.3999997228384 695
15.4199997223914 698
15.4399997219443 751
15.4599997214973 719
15.4799997210503 727
15.4999997206032 666
15.5199997201562 702
15.5399997197092 720
15.5599997192621 720
15.5799997188151 687
15.5999997183681 770
15.619999717921 746
15.639999717474 735
15.659999717027 747
15.6799997165799 738
15.6999997161329 723
15.7199997156858 746
15.7399997152388 760
15.7599997147918 787
15.7799997143447 746
15.7999997138977 766
15.8199997134507 732
15.8399997130036 813
15.8599997125566 796
15.8799997121096 719
15.8999997116625 723
15.9199997112155 823
15.9399997107685 728
15.9599997103214 793
15.9799997098744 754
15.9999997094274 810
16.0199997089803 760
16.0399997085333 814
16.0599997080863 776
16.0799997076392 805
16.0999997071922 798
16.1199997067451 760
16.1399997062981 792
16.1599997058511 769
16.179999705404 799
16.199999704957 778
16.21999970451 822
16.2399997040629 816
16.2599997036159 800
16.2799997031689 805
16.2999997027218 817
16.3199997022748 826
16.3399997018278 840
16.3599997013807 774
16.3799997009337 835
16.3999997004867 873
16.4199997000396 843
16.4399996995926 850
16.4599996991456 796
16.4799996986985 852
16.4999996982515 864
16.5199996978045 883
16.5399996973574 875
16.5599996969104 952
16.5799996964633 878
16.5999996960163 871
16.6199996955693 855
16.6399996951222 873
16.6599996946752 889
16.6799996942282 856
16.6999996937811 866
16.7199996933341 887
16.7399996928871 883
16.75999969244 901
16.779999691993 847
16.799999691546 868
16.8199996910989 881
16.8399996906519 954
16.8599996902049 870
16.8799996897578 904
16.8999996893108 880
16.9199996888638 964
16.9399996884167 906
16.9599996879697 945
16.9799996875226 961
16.9999996870756 950
17.0199996866286 930
17.0399996861815 929
17.0599996857345 943
17.0799996852875 877
17.0999996848404 932
17.1199996843934 954
17.1399996839464 901
17.1599996834993 960
17.1799996830523 955
17.1999996826053 904
17.2199996821582 966
17.2399996817112 991
17.2599996812642 974
17.2799996808171 1029
17.2999996803701 1038
17.3199996799231 1030
17.339999679476 1022
17.359999679029 974
17.379999678582 1003
17.3999996781349 997
17.4199996776879 1037
17.4399996772408 1005
17.4599996767938 967
17.4799996763468 986
17.4999996758997 1033
17.5199996754527 1025
17.5399996750057 1028
17.5599996745586 1083
17.5799996741116 987
17.5999996736646 1070
17.6199996732175 1042
17.6399996727705 1024
17.6599996723235 1076
17.6799996718764 1041
17.6999996714294 1057
17.7199996709824 1048
17.7399996705353 1042
17.7599996700883 1068
17.7799996696413 1057
17.7999996691942 1109
17.8199996687472 1090
17.8399996683002 1088
17.8599996678531 1083
17.8799996674061 1036
17.899999666959 1053
17.919999666512 1059
17.939999666065 1124
17.9599996656179 1107
17.9799996651709 1107
17.9999996647239 1099
18.0199996642768 1182
18.0399996638298 1056
18.0599996633828 1121
18.0799996629357 1089
18.0999996624887 1153
18.1199996620417 1109
18.1399996615946 1096
18.1599996611476 1146
18.1799996607006 1146
18.1999996602535 1248
18.2199996598065 1128
18.2399996593595 1154
18.2599996589124 1099
18.2799996584654 1122
18.2999996580184 1167
18.3199996575713 1224
18.3399996571243 1273
18.3599996566772 1176
18.3799996562302 1214
18.3999996557832 1202
18.4199996553361 1212
18.4399996548891 1180
18.4599996544421 1158
18.479999653995 1247
18.499999653548 1166
18.519999653101 1183
18.5399996526539 1223
18.5599996522069 1217
18.5799996517599 1226
18.5999996513128 1232
18.6199996508658 1259
18.6399996504188 1234
18.6599996499717 1231
18.6799996495247 1267
18.6999996490777 1263
18.7199996486306 1251
18.7399996481836 1295
18.7599996477366 1353
18.7799996472895 1281
18.7999996468425 1279
18.8199996463954 1357
18.8399996459484 1294
18.8599996455014 1262
18.8799996450543 1361
18.8999996446073 1267
18.9199996441603 1363
18.9399996437132 1326
18.9599996432662 1304
18.9799996428192 1323
18.9999996423721 1248
19.0199996419251 1349
19.0399996414781 1331
19.059999641031 1373
19.079999640584 1324
19.099999640137 1377
19.1199996396899 1326
19.1399996392429 1358
19.1599996387959 1346
19.1799996383488 1360
19.1999996379018 1342
19.2199996374547 1411
19.2399996370077 1389
19.2599996365607 1444
19.2799996361136 1382
19.2999996356666 1418
19.3199996352196 1441
19.3399996347725 1438
19.3599996343255 1400
19.3799996338785 1463
19.3999996334314 1533
19.4199996329844 1364
19.4399996325374 1409
19.4599996320903 1476
19.4799996316433 1407
19.4999996311963 1472
19.5199996307492 1490
19.5399996303022 1469
19.5599996298552 1503
19.5799996294081 1464
19.5999996289611 1529
19.6199996285141 1475
19.639999628067 1514
19.65999962762 1555
19.6799996271729 1559
19.6999996267259 1574
19.7199996262789 1524
19.7399996258318 1532
19.7599996253848 1612
19.7799996249378 1538
19.7999996244907 1576
19.8199996240437 1624
19.8399996235967 1640
19.8599996231496 1573
19.8799996227026 1590
19.8999996222556 1613
19.9199996218085 1538
19.9399996213615 1508
19.9599996209145 1556
19.9799996204674 1515
19.9999996200204 1566
