3 1849
3.01999999955297 1771
3.03999999910593 1683
3.0599999986589 1567
3.07999999821186 1429
3.09999999776483 1381
3.11999999731779 1318
3.13999999687076 1257
3.15999999642372 1249
3.17999999597669 1206
3.19999999552965 1255
3.21999999508262 1290
3.23999999463558 1205
3.25999999418855 1199
3.27999999374151 1236
3.29999999329448 1241
3.31999999284744 1141
3.33999999240041 1139
3.35999999195337 1117
3.37999999150634 1101
3.3999999910593 1147
3.41999999061227 1073
3.43999999016523 1063
3.4599999897182 1130
3.47999998927116 1092
3.49999998882413 1125
3.51999998837709 1082
3.53999998793006 1010
3.55999998748302 1076
3.57999998703599 1037
3.59999998658895 1043
3.61999998614192 1038
3.63999998569489 1005
3.65999998524785 1019
3.67999998480082 1010
3.69999998435378 1017
3.71999998390675 1077
3.73999998345971 1015
3.75999998301268 1005
3.77999998256564 1011
3.79999998211861 1005
3.81999998167157 1044
3.83999998122454 1039
3.8599999807775 1014
3.87999998033047 968
3.89999997988343 982
3.9199999794364 984
3.93999997898936 981
3.95999997854233 929
3.97999997809529 1012
3.99999997764826 1050
4.01999997720122 952
4.03999997675419 989
4.05999997630715 1037
4.07999997586012 988
4.09999997541308 983
4.11999997496605 993
4.13999997451901 964
4.15999997407198 1033
4.17999997362494 1018
4.19999997317791 952
4.21999997273087 981
4.23999997228384 1019
4.25999997183681 939
4.27999997138977 1032
4.29999997094274 1043
4.3199999704957 971
4.33999997004867 954
4.35999996960163 984
4.3799999691546 997
4.39999996870756 1020
4.41999996826053 956
4.43999996781349 984
4.45999996736646 992
4.47999996691942 944
4.49999996647239 957
4.51999996602535 1023
4.53999996557832 966
4.55999996513128 978
4.57999996468425 980
4.59999996423721 1058
4.61999996379018 988
4.63999996334314 1031
4.65999996289611 996
4.67999996244907 1015
4.69999996200204 1007
4.719999961555 954
4.73999996110797 1000
4.75999996066093 969
4.7799999602139 985
4.79999995976686 986
4.81999995931983 980
4.83999995887279 1020
4.85999995842576 1070
4.87999995797873 1020
4.89999995753169 974
4.91999995708466 1036
4.93999995663762 1009
4.95999995619059 977
4.97999995574355 1012
4.99999995529652 970
5.01999995484948 991
5.03999995440245 991
5.05999995395541 994
5.07999995350838 1028
5.09999995306134 1010
5.11999995261431 995
5.13999995216727 956
5.15999995172024 992
5.1799999512732 981
5.19999995082617 1057
5.21999995037913 1022
5.2399999499321 965
5.25999994948506 987
5.27999994903803 1029
5.29999994859099 1021
5.31999994814396 1026
5.33999994769692 1007
5.35999994724989 988
5.37999994680285 1019
5.39999994635582 1004
5.41999994590878 915
5.43999994546175 928
5.45999994501471 1019
5.47999994456768 964
5.49999994412065 947
5.51999994367361 952
5.53999994322658 938
5.55999994277954 952
5.57999994233251 955
5.59999994188547 964
5.61999994143844 952
5.6399999409914 905
5.65999994054437 927
5.67999994009733 872
5.6999999396503 887
5.71999993920326 934
5.73999993875623 867
5.75999993830919 893
5.77999993786216 872
5.79999993741512 843
5.81999993696809 907
5.83999993652105 867
5.85999993607402 871
5.87999993562698 793
5.89999993517995 851
5.91999993473291 823
5.93999993428588 844
5.95999993383884 791
5.97999993339181 790
5.99999993294477 801
6.01999993249774 851
6.0399999320507 811
6.05999993160367 784
6.07999993115663 780
6.0999999307096 771
6.11999993026257 787
6.13999992981553 772
6.1599999293685 766
6.17999992892146 721
6.19999992847443 725
6.21999992802739 751
6.23999992758036 675
6.25999992713332 703
6.27999992668629 728
6.29999992623925 699
6.31999992579222 712
6.33999992534518 762
6.35999992489815 738
6.37999992445111 663
6.39999992400408 683
6.41999992355704 717
6.43999992311001 640
6.45999992266297 662
6.47999992221594 745
6.4999999217689 682
6.51999992132187 684
6.53999992087483 650
6.5599999204278 683
6.57999991998076 670
6.59999991953373 658
6.61999991908669 668
6.63999991863966 635
6.65999991819262 666
6.67999991774559 703
6.69999991729855 686
6.71999991685152 626
6.73999991640449 672
6.75999991595745 677
6.77999991551042 677
6.79999991506338 635
6.81999991461635 709
6.83999991416931 676
6.85999991372228 633
6.87999991327524 617
6.89999991282821 613
6.91999991238117 614
6.93999991193414 641
6.9599999114871 635
6.97999991104007 626
6.99999991059303 615
7.019999910146 659
7.03999990969896 632
7.05999990925193 632
7.07999990880489 578
7.09999990835786 610
7.11999990791082 605
7.13999990746379 623
7.15999990701675 651
7.17999990656972 616
7.19999990612268 640
7.21999990567565 586
7.23999990522861 597
7.25999990478158 598
7.27999990433454 618
7.29999990388751 599
7.31999990344047 589
7.33999990299344 591
7.35999990254641 597
7.37999990209937 646
7.39999990165234 617
7.4199999012053 603
7.43999990075827 615
7.45999990031123 596
7.4799998998642 639
7.49999989941716 608
7.51999989897013 622
7.53999989852309 558
7.55999989807606 607
7.57999989762902 638
7.59999989718199 611
7.61999989673495 608
7.63999989628792 588
7.65999989584088 632
7.67999989539385 663
7.69999989494681 630
7.71999989449978 620
7.73999989405274 621
7.75999989360571 594
7.77999989315867 574
7.79999989271164 578
7.8199998922646 609
7.83999989181757 569
7.85999989137053 596
7.8799998909235 622
7.89999989047646 579
7.91999989002943 602
7.9399998895824 584
7.95999988913536 633
7.97999988868833 555
7.99999988824129 624
8.01999988779426 598
8.03999988734722 571
8.05999988690019 617
8.07999988645315 613
8.09999988600612 633
8.11999988555908 560
8.13999988511205 619
8.15999988466501 586
8.17999988421798 582
8.19999988377094 561
8.21999988332391 595
8.23999988287687 616
8.25999988242984 645
8.2799998819828 570
8.29999988153577 611
8.31999988108873 618
8.3399998806417 632
8.35999988019466 579
8.37999987974763 640
8.39999987930059 615
8.41999987885356 603
8.43999987840652 597
8.45999987795949 623
8.47999987751245 589
8.49999987706542 558
8.51999987661839 589
8.53999987617135 635
8.55999987572432 572
8.57999987527728 648
8.59999987483025 591
8.61999987438321 558
8.63999987393618 624
8.65999987348914 621
8.67999987304211 585
8.69999987259507 625
8.71999987214804 605
8.739999871701 560
8.75999987125397 614
8.77999987080693 588
8.7999998703599 584
8.81999986991286 604
8.83999986946583 559
8.85999986901879 581
8.87999986857176 598
8.89999986812472 590
8.91999986767769 599
8.93999986723065 600
8.95999986678362 589
8.97999986633658 614
8.99999986588955 639
9.01999986544251 619
9.03999986499548 624
9.05999986454844 606
9.07999986410141 609
9.09999986365438 615
9.11999986320734 593
9.13999986276031 594
9.15999986231327 591
9.17999986186624 619
9.1999998614192 628
9.21999986097217 642
9.23999986052513 591
9.2599998600781 611
9.27999985963106 616
9.29999985918403 589
9.31999985873699 565
9.33999985828996 561
9.35999985784292 639
9.37999985739589 628
9.39999985694885 629
9.41999985650182 602
9.43999985605478 623
9.45999985560775 646
9.47999985516071 607
9.49999985471368 623
9.51999985426664 628
9.53999985381961 623
9.55999985337257 605
9.57999985292554 650
9.5999998524785 619
9.61999985203147 664
9.63999985158443 611
9.6599998511374 603
9.67999985069037 614
9.69999985024333 627
9.7199998497963 630
9.73999984934926 585
9.75999984890223 617
9.77999984845519 609
9.79999984800816 611
9.81999984756112 596
9.83999984711409 596
9.85999984666705 648
9.87999984622002 600
9.89999984577298 611
9.91999984532595 632
9.93999984487891 573
9.95999984443188 596
9.97999984398484 608
9.99999984353781 631
10.0199998430908 617
10.0399998426437 639
10.0599998421967 602
10.0799998417497 635
10.0999998413026 600
10.1199998408556 585
10.1399998404086 606
10.1599998399615 615
10.1799998395145 635
10.1999998390675 626
10.2199998386204 647
10.2399998381734 627
10.2599998377264 631
10.2799998372793 602
10.2999998368323 604
10.3199998363853 625
10.3399998359382 593
10.3599998354912 605
10.3799998350441 597
10.3999998345971 602
10.4199998341501 614
10.439999833703 650
10.459999833256 645
10.479999832809 613
10.4999998323619 585
10.5199998319149 553
10.5399998314679 612
10.5599998310208 598
10.5799998305738 613
10.5999998301268 600
10.6199998296797 562
10.6399998292327 620
10.6599998287857 666
10.6799998283386 624
10.6999998278916 615
10.7199998274446 624
10.7399998269975 587
10.7599998265505 635
10.7799998261034 603
10.7999998256564 540
10.8199998252094 577
10.8399998247623 539
10.8599998243153 602
10.8799998238683 620
10.8999998234212 624
10.9199998229742 637
10.9399998225272 633
10.9599998220801 620
10.9799998216331 592
10.9999998211861 633
11.019999820739 668
11.039999820292 567
11.059999819845 623
11.0799998193979 574
11.0999998189509 658
11.1199998185039 632
11.1399998180568 608
11.1599998176098 583
11.1799998171628 644
11.1999998167157 597
11.2199998162687 606
11.2399998158216 600
11.2599998153746 610
11.2799998149276 606
11.2999998144805 636
11.3199998140335 605
11.3399998135865 607
11.3599998131394 622
11.3799998126924 628
11.3999998122454 584
11.4199998117983 608
11.4399998113513 560
11.4599998109043 618
11.4799998104572 594
11.4999998100102 613
11.5199998095632 614
11.5399998091161 618
11.5599998086691 610
11.5799998082221 601
11.599999807775 584
11.619999807328 631
11.639999806881 625
11.6599998064339 591
11.6799998059869 599
11.6999998055398 614
11.7199998050928 575
11.7399998046458 586
11.7599998041987 639
11.7799998037517 601
11.7999998033047 578
11.8199998028576 580
11.8399998024106 631
11.8599998019636 591
11.8799998015165 598
11.8999998010695 595
11.9199998006225 609
11.9399998001754 654
11.9599997997284 629
11.9799997992814 623
11.9999997988343 599
12.0199997983873 623
12.0399997979403 631
12.0599997974932 568
12.0799997970462 597
12.0999997965992 641
12.1199997961521 601
12.1399997957051 592
12.159999795258 612
12.179999794811 614
12.199999794364 625
12.2199997939169 598
12.2399997934699 617
12.2599997930229 666
12.2799997925758 644
12.2999997921288 619
12.3199997916818 642
12.3399997912347 639
12.3599997907877 675
12.3799997903407 633
12.3999997898936 651
12.4199997894466 624
12.4399997889996 625
12.4599997885525 635
12.4799997881055 610
12.4999997876585 653
12.5199997872114 618
12.5399997867644 644
12.5599997863173 645
12.5799997858703 656
12.5999997854233 622
12.6199997849762 590
12.6399997845292 607
12.6599997840822 633
12.6799997836351 592
12.6999997831881 659
12.7199997827411 605
12.739999782294 657
12.759999781847 654
12.7799997814 637
12.7999997809529 586
12.8199997805059 625
12.8399997800589 656
12.8599997796118 641
12.8799997791648 654
12.8999997787178 637
12.9199997782707 653
12.9399997778237 618
12.9599997773767 679
12.9799997769296 655
12.9999997764826 626
13.0199997760355 634
13.0399997755885 683
13.0599997751415 665
13.0799997746944 595
13.0999997742474 638
13.1199997738004 658
13.1399997733533 675
13.1599997729063 654
13.1799997724593 675
13.1999997720122 664
13.2199997715652 675
13.2399997711182 673
13.2599997706711 675
13.2799997702241 622
13.2999997697771 627
13.31999976933 637
13.339999768883 659
13.359999768436 630
13.3799997679889 681
13.3999997675419 652
13.4199997670949 714
13.4399997666478 674
13.4599997662008 674
13.4799997657537 673
13.4999997653067 687
13.5199997648597 717
13.5399997644126 648
13.5599997639656 687
13.5799997635186 691
13.5999997630715 655
13.6199997626245 642
13.6399997621775 636
13.6599997617304 636
13.6799997612834 715
13.6999997608364 662
13.7199997603893 656
13.7399997599423 680
13.7599997594953 661
13.7799997590482 715
13.7999997586012 683
13.8199997581542 664
13.8399997577071 702
13.8599997572601 685
13.879999756813 705
13.899999756366 666
13.919999755919 711
13.9399997554719 683
13.9599997550249 707
13.9799997545779 696
13.9999997541308 691
14.0199997536838 692
14.0399997532368 690
14.0599997527897 697
14.0799997523427 711
14.0999997518957 697
14.1199997514486 696
14.1399997510016 687
14.1599997505546 698
14.1799997501075 672
14.1999997496605 683
14.2199997492135 663
14.2399997487664 683
14.2599997483194 678
14.2799997478724 682
14.2999997474253 711
14.3199997469783 726
14.3399997465312 692
14.3599997460842 698
14.3799997456372 737
14.3999997451901 756
14.4199997447431 696
14.4399997442961 743
14.459999743849 701
14.479999743402 756
14.499999742955 719
14.5199997425079 719
14.5399997420609 757
14.5599997416139 745
14.5799997411668 671
14.5999997407198 730
14.6199997402728 733
14.6399997398257 710
14.6599997393787 754
14.6799997389317 706
14.6999997384846 720
14.7199997380376 757
14.7399997375906 685
14.7599997371435 785
14.7799997366965 720
14.7999997362494 759
14.8199997358024 768
14.8399997353554 764
14.8599997349083 843
14.8799997344613 753
14.8999997340143 760
14.9199997335672 721
14.9399997331202 765
14.9599997326732 789
14.9799997322261 734
14.9999997317791 771
15.0199997313321 805
15.039999730885 724
15.059999730438 763
15.079999729991 768
15.0999997295439 783
15.1199997290969 802
15.1399997286499 784
15.1599997282028 795
15.1799997277558 781
15.1999997273088 843
15.2199997268617 784
15.2399997264147 749
15.2599997259676 805
15.2799997255206 785
15.2999997250736 794
15.3199997246265 760
15.3399997241795 817
15.3599997237325 769
15.3799997232854 818
15.3999997228384 785
15.4199997223914 790
15.4399997219443 831
15.4599997214973 849
15.4799997210503 786
15.4999997206032 817
15.5199997201562 805
15.5399997197092 823
15.5599997192621 813
15.5799997188151 838
15.5999997183681 803
15.619999717921 784
15.639999717474 837
15.659999717027 859
15.6799997165799 804
15.6999997161329 846
15.7199997156858 791
15.7399997152388 812
15.7599997147918 827
15.7799997143447 867
15.7999997138977 817
15.8199997134507 853
15.8399997130036 848
15.8599997125566 847
15.8799997121096 847
15.8999997116625 894
15.9199997112155 833
15.9399997107685 881
15.9599997103214 873
15.9799997098744 816
15.9999997094274 881
16.0199997089803 874
16.0399997085333 866
16.0599997080863 851
16.0799997076392 824
16.0999997071922 882
16.1199997067451 893
16.1399997062981 897
16.1599997058511 897
16.179999705404 894
16.199999704957 898
16.21999970451 937
16.2399997040629 876
16.2599997036159 880
16.2799997031689 854
16.2999997027218 872
16.3199997022748 907
16.3399997018278 920
16.3599997013807 893
16.3799997009337 884
16.3999997004867 940
16.4199997000396 857
16.4399996995926 958
16.4599996991456 950
16.4799996986985 880
16.4999996982515 904
16.5199996978045 943
16.5399996973574 882
16.5599996969104 912
16.5799996964633 947
16.5999996960163 927
16.6199996955693 943
16.6399996951222 889
16.6599996946752 944
16.6799996942282 989
16.6999996937811 919
16.7199996933341 942
16.7399996928871 989
16.75999969244 905
16.779999691993 957
16.799999691546 986
16.8199996910989 973
16.8399996906519 988
16.8599996902049 959
16.8799996897578 1021
16.8999996893108 1007
16.9199996888638 1052
16.9399996884167 975
16.9599996879697 989
16.9799996875226 1026
16.9999996870756 1012
17.0199996866286 997
17.0399996861815 986
17.0599996857345 959
17.0799996852875 937
17.0999996848404 1027
17.1199996843934 1010
17.1399996839464 974
17.1599996834993 989
17.1799996830523 1078
17.1999996826053 987
17.2199996821582 1032
17.2399996817112 1022
17.2599996812642 1037
17.2799996808171 991
17.2999996803701 1037
17.3199996799231 1008
17.339999679476 1012
17.359999679029 1030
17.379999678582 1019
17.3999996781349 1028
17.4199996776879 1062
17.4399996772408 1052
17.4599996767938 1105
17.4799996763468 1006
17.4999996758997 1060
17.5199996754527 1101
17.5399996750057 1070
17.5599996745586 1053
17.5799996741116 1034
17.5999996736646 1039
17.6199996732175 1019
17.6399996727705 1092
17.6599996723235 1083
17.6799996718764 1041
17.6999996714294 1100
17.7199996709824 1037
17.7399996705353 1098
17.7599996700883 1065
17.7799996696413 1090
17.7999996691942 1077
17.8199996687472 1068
17.8399996683002 1120
17.8599996678531 1116
17.8799996674061 1167
17.899999666959 1138
17.919999666512 1080
17.939999666065 1122
17.9599996656179 1112
17.9799996651709 1101
17.9999996647239 1126
18.0199996642768 1154
18.0399996638298 1131
18.0599996633828 1091
18.0799996629357 1171
18.0999996624887 1094
18.1199996620417 1135
18.1399996615946 1115
18.1599996611476 1137
18.1799996607006 1147
18.1999996602535 1135
18.2199996598065 1168
18.2399996593595 1175
18.2599996589124 1124
18.2799996584654 1132
18.2999996580184 1164
18.3199996575713 1178
18.3399996571243 1207
18.3599996566772 1232
18.3799996562302 1157
18.3999996557832 1169
18.4199996553361 1164
18.4399996548891 1209
18.4599996544421 1207
18.479999653995 1202
18.499999653548 1199
18.519999653101 1135
18.5399996526539 1186
18.5599996522069 1176
18.5799996517599 1189
18.5999996513128 1169
18.6199996508658 1141
18.6399996504188 1243
18.6599996499717 1236
18.6799996495247 1162
18.6999996490777 1135
18.7199996486306 1276
18.7399996481836 1225
18.7599996477366 1276
18.7799996472895 1219
18.7999996468425 1241
18.8199996463954 1271
18.8399996459484 1213
18.8599996455014 1229
18.8799996450543 1259
18.8999996446073 1290
18.9199996441603 1197
18.9399996437132 1273
18.9599996432662 1239
18.9799996428192 1316
18.9999996423721 1218
19.0199996419251 1243
19.0399996414781 1183
19.059999641031 1238
19.079999640584 1277
19.099999640137 1277
19.1199996396899 1213
19.1399996392429 1284
19.1599996387959 1274
19.1799996383488 1274
19.1999996379018 1234
19.2199996374547 1238
19.2399996370077 1324
19.2599996365607 1281
19.2799996361136 1324
19.2999996356666 1260
19.3199996352196 1261
19.3399996347725 1322
19.3599996343255 1314
19.3799996338785 1296
19.3999996334314 1272
19.4199996329844 1262
19.4399996325374 1307
19.4599996320903 1306
19.4799996316433 1299
19.4999996311963 1315
19.5199996307492 1338
19.5399996303022 1286
19.5599996298552 1344
19.5799996294081 1330
19.5999996289611 1343
19.6199996285141 1321
19.639999628067 1321
19.65999962762 1274
19.6799996271729 1325
19.6999996267259 1318
19.7199996262789 1303
19.7399996258318 1392
19.7599996253848 1335
19.7799996249378 1312
19.7999996244907 1292
19.8199996240437 1323
19.8399996235967 1352
19.8599996231496 1363
19.8799996227026 1385
19.8999996222556 1349
19.9199996218085 1301
19.9399996213615 1348
19.9599996209145 1323
19.9799996204674 1361
19.9999996200204 1375
