3 2142
3.01999999955297 1973
3.03999999910593 1807
3.0599999986589 1720
3.07999999821186 1543
3.09999999776483 1477
3.11999999731779 1440
3.13999999687076 1440
3.15999999642372 1436
3.17999999597669 1335
3.19999999552965 1360
3.21999999508262 1315
3.23999999463558 1350
3.25999999418855 1309
3.27999999374151 1257
3.29999999329448 1199
3.31999999284744 1244
3.33999999240041 1238
3.35999999195337 1194
3.37999999150634 1229
3.3999999910593 1218
3.41999999061227 1156
3.43999999016523 1131
3.4599999897182 1141
3.47999998927116 1222
3.49999998882413 1205
3.51999998837709 1118
3.53999998793006 1133
3.55999998748302 1125
3.57999998703599 1166
3.59999998658895 1145
3.61999998614192 1087
3.63999998569489 1139
3.65999998524785 1076
3.67999998480082 1125
3.69999998435378 1121
3.71999998390675 1062
3.73999998345971 1121
3.75999998301268 1103
3.77999998256564 1079
3.79999998211861 1115
3.81999998167157 1093
3.83999998122454 1059
3.8599999807775 1115
3.87999998033047 1065
3.89999997988343 1105
3.9199999794364 1131
3.93999997898936 1023
3.95999997854233 1103
3.97999997809529 1114
3.99999997764826 1061
4.01999997720122 1121
4.03999997675419 1129
4.05999997630715 1030
4.07999997586012 1038
4.09999997541308 1154
4.11999997496605 1054
4.13999997451901 1119
4.15999997407198 1054
4.17999997362494 1126
4.19999997317791 1068
4.21999997273087 1099
4.23999997228384 1048
4.25999997183681 1112
4.27999997138977 1115
4.29999997094274 1010
4.3199999704957 1102
4.33999997004867 1089
4.35999996960163 1102
4.3799999691546 1115
4.39999996870756 1093
4.41999996826053 1088
4.43999996781349 1104
4.45999996736646 1141
4.47999996691942 1145
4.49999996647239 1150
4.51999996602535 1176
4.53999996557832 1153
4.55999996513128 1159
4.57999996468425 1089
4.59999996423721 1063
4.61999996379018 1149
4.63999996334314 1120
4.65999996289611 1106
4.67999996244907 1147
4.69999996200204 1167
4.719999961555 1230
4.73999996110797 1115
4.75999996066093 1133
4.7799999602139 1197
4.79999995976686 1160
4.81999995931983 1144
4.83999995887279 1179
4.85999995842576 1168
4.87999995797873 1171
4.89999995753169 1200
4.91999995708466 1171
4.93999995663762 1206
4.95999995619059 1207
4.97999995574355 1189
4.99999995529652 1253
5.01999995484948 1175
5.03999995440245 1249
5.05999995395541 1234
5.07999995350838 1223
5.09999995306134 1240
5.11999995261431 1286
5.13999995216727 1299
5.15999995172024 1234
5.1799999512732 1293
5.19999995082617 1282
5.21999995037913 1328
5.2399999499321 1332
5.25999994948506 1285
5.27999994903803 1359
5.29999994859099 1338
5.31999994814396 1380
5.33999994769692 1391
5.35999994724989 1368
5.37999994680285 1384
5.39999994635582 1382
5.41999994590878 1319
5.43999994546175 1378
5.45999994501471 1357
5.47999994456768 1427
5.49999994412065 1378
5.51999994367361 1398
5.53999994322658 1402
5.55999994277954 1391
5.57999994233251 1388
5.59999994188547 1458
5.61999994143844 1448
5.6399999409914 1413
5.65999994054437 1489
5.67999994009733 1406
5.6999999396503 1421
5.71999993920326 1463
5.73999993875623 1420
5.75999993830919 1358
5.77999993786216 1379
5.79999993741512 1372
5.81999993696809 1344
5.83999993652105 1277
5.85999993607402 1264
5.87999993562698 1209
5.89999993517995 1235
5.91999993473291 1234
5.93999993428588 1117
5.95999993383884 1177
5.97999993339181 1160
5.99999993294477 1145
6.01999993249774 1082
6.0399999320507 1079
6.05999993160367 1006
6.07999993115663 1025
6.0999999307096 1037
6.11999993026257 960
6.13999992981553 946
6.1599999293685 902
6.17999992892146 943
6.19999992847443 895
6.21999992802739 899
6.23999992758036 917
6.25999992713332 887
6.27999992668629 924
6.29999992623925 851
6.31999992579222 882
6.33999992534518 857
6.35999992489815 828
6.37999992445111 821
6.39999992400408 801
6.41999992355704 805
6.43999992311001 792
6.45999992266297 803
6.47999992221594 740
6.4999999217689 799
6.51999992132187 758
6.53999992087483 758
6.5599999204278 718
6.57999991998076 741
6.59999991953373 754
6.61999991908669 721
6.63999991863966 680
6.65999991819262 725
6.67999991774559 738
6.69999991729855 723
6.71999991685152 691
6.73999991640449 719
6.75999991595745 752
6.77999991551042 725
6.79999991506338 726
6.81999991461635 721
6.83999991416931 638
6.85999991372228 670
6.87999991327524 682
6.89999991282821 638
6.91999991238117 702
6.93999991193414 710
6.9599999114871 658
6.97999991104007 690
6.99999991059303 634
7.019999910146 614
7.03999990969896 655
7.05999990925193 637
7.07999990880489 692
7.09999990835786 650
7.11999990791082 614
7.13999990746379 605
7.15999990701675 617
7.17999990656972 571
7.19999990612268 642
7.21999990567565 612
7.23999990522861 689
7.25999990478158 593
7.27999990433454 625
7.29999990388751 624
7.31999990344047 609
7.33999990299344 612
7.35999990254641 619
7.37999990209937 602
7.39999990165234 623
7.4199999012053 622
7.43999990075827 607
7.45999990031123 588
7.4799998998642 619
7.49999989941716 663
7.51999989897013 623
7.53999989852309 641
7.55999989807606 561
7.57999989762902 645
7.59999989718199 593
7.61999989673495 649
7.63999989628792 596
7.65999989584088 611
7.67999989539385 577
7.69999989494681 555
7.71999989449978 599
7.73999989405274 635
7.75999989360571 607
7.77999989315867 602
7.79999989271164 576
7.8199998922646 589
7.83999989181757 570
7.85999989137053 517
7.8799998909235 615
7.89999989047646 555
7.91999989002943 613
7.9399998895824 576
7.95999988913536 585
7.97999988868833 593
7.99999988824129 599
8.01999988779426 620
8.03999988734722 595
8.05999988690019 623
8.07999988645315 559
8.09999988600612 598
8.11999988555908 589
8.13999988511205 598
8.15999988466501 600
8.17999988421798 645
8.19999988377094 594
8.21999988332391 571
8.23999988287687 578
8.25999988242984 579
8.2799998819828 580
8.29999988153577 574
8.31999988108873 559
8.3399998806417 539
8.35999988019466 549
8.37999987974763 565
8.39999987930059 574
8.41999987885356 605
8.43999987840652 593
8.45999987795949 566
8.47999987751245 563
8.49999987706542 595
8.51999987661839 615
8.53999987617135 589
8.55999987572432 642
8.57999987527728 582
8.59999987483025 608
8.61999987438321 595
8.63999987393618 616
8.65999987348914 573
8.67999987304211 575
8.69999987259507 600
8.71999987214804 634
8.739999871701 618
8.75999987125397 630
8.77999987080693 603
8.7999998703599 632
8.81999986991286 610
8.83999986946583 590
8.85999986901879 606
8.87999986857176 616
8.89999986812472 604
8.91999986767769 560
8.93999986723065 627
8.95999986678362 595
8.97999986633658 626
8.99999986588955 645
9.01999986544251 609
9.03999986499548 642
9.05999986454844 692
9.07999986410141 628
9.09999986365438 652
9.11999986320734 639
9.13999986276031 590
9.15999986231327 659
9.17999986186624 692
9.1999998614192 691
9.21999986097217 683
9.23999986052513 629
9.2599998600781 631
9.27999985963106 689
9.29999985918403 717
9.31999985873699 701
9.33999985828996 727
9.35999985784292 693
9.37999985739589 730
9.39999985694885 693
9.41999985650182 710
9.43999985605478 702
9.45999985560775 657
9.47999985516071 638
9.49999985471368 671
9.51999985426664 670
9.53999985381961 651
9.55999985337257 638
9.57999985292554 655
9.5999998524785 657
9.61999985203147 591
9.63999985158443 618
9.6599998511374 655
9.67999985069037 644
9.69999985024333 667
9.7199998497963 616
9.73999984934926 686
9.75999984890223 644
9.77999984845519 617
9.79999984800816 673
9.81999984756112 652
9.83999984711409 609
9.85999984666705 665
9.87999984622002 629
9.89999984577298 635
9.91999984532595 652
9.93999984487891 604
9.95999984443188 665
9.97999984398484 603
9.99999984353781 584
10.0199998430908 642
10.0399998426437 628
10.0599998421967 655
10.0799998417497 592
10.0999998413026 664
10.1199998408556 638
10.1399998404086 606
10.1599998399615 587
10.1799998395145 616
10.1999998390675 650
10.2199998386204 636
10.2399998381734 631
10.2599998377264 614
10.2799998372793 594
10.2999998368323 678
10.3199998363853 607
10.3399998359382 601
10.3599998354912 619
10.3799998350441 638
10.3999998345971 619
10.4199998341501 606
10.439999833703 621
10.459999833256 663
10.479999832809 607
10.4999998323619 644
10.5199998319149 642
10.5399998314679 617
10.5599998310208 616
10.5799998305738 624
10.5999998301268 591
10.6199998296797 645
10.6399998292327 654
10.6599998287857 607
10.6799998283386 640
10.6999998278916 606
10.7199998274446 603
10.7399998269975 615
10.7599998265505 608
10.7799998261034 588
10.7999998256564 604
10.8199998252094 630
10.8399998247623 685
10.8599998243153 675
10.8799998238683 621
10.8999998234212 663
10.9199998229742 625
10.9399998225272 614
10.9599998220801 626
10.9799998216331 641
10.9999998211861 650
11.019999820739 623
11.039999820292 598
11.059999819845 594
11.0799998193979 653
11.0999998189509 650
11.1199998185039 578
11.1399998180568 628
11.1599998176098 623
11.1799998171628 608
11.1999998167157 634
11.2199998162687 610
11.2399998158216 602
11.2599998153746 586
11.2799998149276 580
11.2999998144805 636
11.3199998140335 551
11.3399998135865 588
11.3599998131394 578
11.3799998126924 608
11.3999998122454 584
11.4199998117983 635
11.4399998113513 615
11.4599998109043 617
11.4799998104572 608
11.4999998100102 631
11.5199998095632 596
11.5399998091161 565
11.5599998086691 570
11.5799998082221 602
11.599999807775 590
11.619999807328 593
11.639999806881 603
11.6599998064339 532
11.6799998059869 565
11.6999998055398 568
11.7199998050928 596
11.7399998046458 562
11.7599998041987 563
11.7799998037517 619
11.7999998033047 563
11.8199998028576 644
11.8399998024106 576
11.8599998019636 581
11.8799998015165 529
11.8999998010695 594
11.9199998006225 597
11.9399998001754 583
11.9599997997284 588
11.9799997992814 576
11.9999997988343 585
12.0199997983873 618
12.0399997979403 614
12.0599997974932 551
12.0799997970462 611
12.0999997965992 617
12.1199997961521 549
12.1399997957051 612
12.159999795258 582
12.179999794811 574
12.199999794364 542
12.2199997939169 566
12.2399997934699 590
12.2599997930229 548
12.2799997925758 562
12.2999997921288 566
12.3199997916818 579
12.3399997912347 603
12.3599997907877 586
12.3799997903407 542
12.3999997898936 566
12.4199997894466 576
12.4399997889996 584
12.4599997885525 618
12.4799997881055 532
12.4999997876585 589
12.5199997872114 601
12.5399997867644 596
12.5599997863173 605
12.5799997858703 535
12.5999997854233 564
12.6199997849762 551
12.6399997845292 567
12.6599997840822 545
12.6799997836351 612
12.6999997831881 594
12.7199997827411 581
12.739999782294 566
12.759999781847 547
12.7799997814 583
12.7999997809529 569
12.8199997805059 551
12.8399997800589 592
12.8599997796118 537
12.8799997791648 588
12.8999997787178 613
12.9199997782707 580
12.9399997778237 567
12.9599997773767 594
12.9799997769296 619
12.9999997764826 632
13.0199997760355 577
13.0399997755885 561
13.0599997751415 565
13.0799997746944 618
13.0999997742474 614
13.1199997738004 584
13.1399997733533 579
13.1599997729063 561
13.1799997724593 556
13.1999997720122 612
13.2199997715652 585
13.2399997711182 561
13.2599997706711 569
13.2799997702241 632
13.2999997697771 547
13.31999976933 579
13.339999768883 585
13.359999768436 590
13.3799997679889 543
13.3999997675419 596
13.4199997670949 608
13.4399997666478 618
13.4599997662008 600
13.4799997657537 579
13.4999997653067 642
13.5199997648597 584
13.5399997644126 647
13.5599997639656 584
13.5799997635186 551
13.5999997630715 602
13.6199997626245 568
13.6399997621775 591
13.6599997617304 598
13.6799997612834 594
13.6999997608364 616
13.7199997603893 613
13.7399997599423 641
13.7599997594953 606
13.7799997590482 616
13.7999997586012 602
13.8199997581542 612
13.8399997577071 581
13.8599997572601 585
13.879999756813 629
13.899999756366 609
13.919999755919 588
13.9399997554719 636
13.9599997550249 665
13.9799997545779 620
13.9999997541308 618
14.0199997536838 606
14.0399997532368 654
14.0599997527897 603
14.0799997523427 642
14.0999997518957 666
14.1199997514486 639
14.1399997510016 632
14.1599997505546 632
14.1799997501075 636
14.1999997496605 632
14.2199997492135 618
14.2399997487664 715
14.2599997483194 638
14.2799997478724 645
14.2999997474253 598
14.3199997469783 658
14.3399997465312 662
14.3599997460842 644
14.3799997456372 662
14.3999997451901 691
14.4199997447431 624
14.4399997442961 643
14.459999743849 644
14.479999743402 681
14.499999742955 636
14.5199997425079 678
14.5399997420609 640
14.5599997416139 649
14.5799997411668 607
14.5999997407198 600
14.6199997402728 664
14.6399997398257 671
14.6599997393787 696
14.6799997389317 617
14.6999997384846 659
14.7199997380376 671
14.7399997375906 665
14.7599997371435 653
14.7799997366965 709
14.7999997362494 670
14.8199997358024 676
14.8399997353554 684
14.8599997349083 676
14.8799997344613 653
14.8999997340143 687
14.9199997335672 668
14.9399997331202 678
14.9599997326732 677
14.9799997322261 648
14.9999997317791 680
15.0199997313321 655
15.039999730885 715
15.059999730438 682
15.079999729991 679
15.0999997295439 707
15.1199997290969 655
15.1399997286499 717
15.1599997282028 705
15.1799997277558 726
15.1999997273088 688
15.2199997268617 714
15.2399997264147 676
15.2599997259676 695
15.2799997255206 684
15.2999997250736 710
15.3199997246265 702
15.3399997241795 685
15.3599997237325 679
15.3799997232854 702
15.3999997228384 686
15.4199997223914 724
15.4399997219443 703
15.4599997214973 737
15.4799997210503 720
15.4999997206032 749
15.5199997201562 725
15.5399997197092 728
15.5599997192621 753
15.5799997188151 705
15.5999997183681 743
15.619999717921 727
15.639999717474 721
15.659999717027 732
15.6799997165799 735
15.6999997161329 765
15.7199997156858 704
15.7399997152388 787
15.7599997147918 724
15.7799997143447 745
15.7999997138977 741
15.8199997134507 752
15.8399997130036 736
15.8599997125566 728
15.8799997121096 789
15.8999997116625 777
15.9199997112155 738
15.9399997107685 713
15.9599997103214 752
15.9799997098744 755
15.9999997094274 747
16.0199997089803 758
16.0399997085333 756
16.0599997080863 778
16.0799997076392 778
16.0999997071922 737
16.1199997067451 780
16.1399997062981 816
16.1599997058511 806
16.179999705404 728
16.199999704957 745
16.21999970451 748
16.2399997040629 751
16.2599997036159 750
16.2799997031689 781
16.2999997027218 811
16.3199997022748 814
16.3399997018278 789
16.3599997013807 795
16.3799997009337 767
16.3999997004867 821
16.4199997000396 805
16.4399996995926 780
16.4599996991456 796
16.4799996986985 809
16.4999996982515 780
16.5199996978045 808
16.5399996973574 818
16.5599996969104 885
16.5799996964633 789
16.5999996960163 755
16.6199996955693 797
16.6399996951222 792
16.6599996946752 808
16.6799996942282 806
16.6999996937811 820
16.7199996933341 806
16.7399996928871 825
16.75999969244 824
16.779999691993 864
16.799999691546 891
16.8199996910989 891
16.8399996906519 842
16.8599996902049 826
16.8799996897578 879
16.8999996893108 878
16.9199996888638 836
16.9399996884167 846
16.9599996879697 819
16.9799996875226 832
16.9999996870756 906
17.0199996866286 860
17.0399996861815 875
17.0599996857345 865
17.0799996852875 894
17.0999996848404 850
17.1199996843934 829
17.1399996839464 889
17.1599996834993 866
17.1799996830523 922
17.1999996826053 876
17.2199996821582 921
17.2399996817112 913
17.2599996812642 872
17.2799996808171 920
17.2999996803701 895
17.3199996799231 878
17.339999679476 874
17.359999679029 954
17.379999678582 875
17.3999996781349 957
17.4199996776879 910
17.4399996772408 871
17.4599996767938 897
17.4799996763468 916
17.4999996758997 899
17.5199996754527 930
17.5399996750057 942
17.5599996745586 946
17.5799996741116 870
17.5999996736646 953
17.6199996732175 977
17.6399996727705 964
17.6599996723235 924
17.6799996718764 892
17.6999996714294 950
17.7199996709824 971
17.7399996705353 975
17.7599996700883 995
17.7799996696413 967
17.7999996691942 982
17.8199996687472 1011
17.8399996683002 928
17.8599996678531 1000
17.8799996674061 975
17.899999666959 932
17.919999666512 959
17.939999666065 986
17.9599996656179 1022
17.9799996651709 1039
17.9999996647239 957
18.0199996642768 989
18.0399996638298 993
18.0599996633828 1000
18.0799996629357 964
18.0999996624887 1043
18.1199996620417 988
18.1399996615946 969
18.1599996611476 973
18.1799996607006 991
18.1999996602535 1038
18.2199996598065 960
18.2399996593595 1016
18.2599996589124 1006
18.2799996584654 1018
18.2999996580184 1019
18.3199996575713 1015
18.3399996571243 986
18.3599996566772 1074
18.3799996562302 1044
18.3999996557832 1045
18.4199996553361 1051
18.4399996548891 1062
18.4599996544421 1094
18.479999653995 1058
18.499999653548 1029
18.519999653101 1091
18.5399996526539 1019
18.5599996522069 1040
18.5799996517599 1138
18.5999996513128 1032
18.6199996508658 1078
18.6399996504188 1063
18.6599996499717 1035
18.6799996495247 1071
18.6999996490777 1011
18.7199996486306 1106
18.7399996481836 1034
18.7599996477366 1103
18.7799996472895 1132
18.7999996468425 1079
18.8199996463954 1092
18.8399996459484 1129
18.8599996455014 1133
18.8799996450543 1161
18.8999996446073 1123
18.9199996441603 1067
18.9399996437132 1110
18.9599996432662 1177
18.9799996428192 1127
18.9999996423721 1038
19.0199996419251 1130
19.0399996414781 1132
19.059999641031 1157
19.079999640584 1138
19.099999640137 1196
19.1199996396899 1167
19.1399996392429 1133
19.1599996387959 1169
19.1799996383488 1160
19.1999996379018 1119
19.2199996374547 1181
19.2399996370077 1161
19.2599996365607 1151
19.2799996361136 1209
19.2999996356666 1171
19.3199996352196 1179
19.3399996347725 1112
19.3599996343255 1210
19.3799996338785 1231
19.3999996334314 1185
19.4199996329844 1192
19.4399996325374 1186
19.4599996320903 1241
19.4799996316433 1215
19.4999996311963 1210
19.5199996307492 1210
19.5399996303022 1207
19.5599996298552 1236
19.5799996294081 1205
19.5999996289611 1234
19.6199996285141 1230
19.639999628067 1155
19.65999962762 1211
19.6799996271729 1183
19.6999996267259 1214
19.7199996262789 1227
19.7399996258318 1186
19.7599996253848 1248
19.7799996249378 1242
19.7999996244907 1196
19.8199996240437 1265
19.8399996235967 1230
19.8599996231496 1229
19.8799996227026 1214
19.8999996222556 1211
19.9199996218085 1233
19.9399996213615 1219
19.9599996209145 1160
19.9799996204674 1262
19.9999996200204 1253
