2.79999995231628 5434
2.81999995186925 5122
2.83999995142221 4639
2.85999995097518 4187
2.87999995052814 3724
2.89999995008111 3591
2.91999994963407 3329
2.93999994918704 2889
2.95999994874001 2779
2.97999994829297 2462
2.99999994784594 2315
3.0199999473989 2166
3.03999994695187 2002
3.05999994650483 1862
3.0799999460578 1863
3.09999994561076 1699
3.11999994516373 1729
3.13999994471669 1754
3.15999994426966 1577
3.17999994382262 1717
3.19999994337559 1572
3.21999994292855 1600
3.23999994248152 1614
3.25999994203448 1598
3.27999994158745 1599
3.29999994114041 1583
3.31999994069338 1501
3.33999994024634 1505
3.35999993979931 1526
3.37999993935227 1479
3.39999993890524 1492
3.4199999384582 1421
3.43999993801117 1489
3.45999993756413 1497
3.4799999371171 1383
3.49999993667006 1361
3.51999993622303 1442
3.539999935776 1428
3.55999993532896 1366
3.57999993488193 1372
3.59999993443489 1338
3.61999993398786 1381
3.63999993354082 1402
3.65999993309379 1430
3.67999993264675 1465
3.69999993219972 1393
3.71999993175268 1374
3.73999993130565 1327
3.75999993085861 1303
3.77999993041158 1238
3.79999992996454 1283
3.81999992951751 1331
3.83999992907047 1298
3.85999992862344 1256
3.8799999281764 1303
3.89999992772937 1262
3.91999992728233 1282
3.9399999268353 1242
3.95999992638826 1308
3.97999992594123 1249
3.99999992549419 1327
4.01999992504716 1288
4.03999992460012 1232
4.05999992415309 1254
4.07999992370605 1299
4.09999992325902 1267
4.11999992281199 1246
4.13999992236495 1252
4.15999992191792 1233
4.17999992147088 1243
4.19999992102385 1213
4.21999992057681 1244
4.23999992012978 1260
4.25999991968274 1249
4.27999991923571 1204
4.29999991878867 1282
4.31999991834164 1240
4.3399999178946 1232
4.35999991744757 1253
4.37999991700053 1227
4.3999999165535 1207
4.41999991610646 1218
4.43999991565943 1262
4.45999991521239 1229
4.47999991476536 1229
4.49999991431832 1241
4.51999991387129 1227
4.53999991342425 1192
4.55999991297722 1202
4.57999991253018 1227
4.59999991208315 1215
4.61999991163611 1207
4.63999991118908 1212
4.65999991074204 1249
4.67999991029501 1272
4.69999990984798 1232
4.71999990940094 1226
4.73999990895391 1277
4.75999990850687 1199
4.77999990805984 1267
4.7999999076128 1212
4.81999990716577 1234
4.83999990671873 1181
4.8599999062717 1243
4.87999990582466 1229
4.89999990537763 1216
4.91999990493059 1314
4.93999990448356 1250
4.95999990403652 1228
4.97999990358949 1243
4.99999990314245 1272
5.01999990269542 1277
5.03999990224838 1228
5.05999990180135 1220
5.07999990135431 1209
5.09999990090728 1284
5.11999990046024 1311
5.13999990001321 1255
5.15999989956617 1280
5.17999989911914 1311
5.1999998986721 1203
5.21999989822507 1312
5.23999989777803 1240
5.259999897331 1289
5.27999989688396 1256
5.29999989643693 1284
5.3199998959899 1292
5.33999989554286 1341
5.35999989509583 1299
5.37999989464879 1290
5.39999989420176 1278
5.41999989375472 1310
5.43999989330769 1239
5.45999989286065 1272
5.47999989241362 1260
5.49999989196658 1283
5.51999989151955 1339
5.53999989107251 1378
5.55999989062548 1330
5.57999989017844 1315
5.59999988973141 1469
5.61999988928437 1444
5.63999988883734 1456
5.6599998883903 1458
5.67999988794327 1560
5.69999988749623 1632
5.7199998870492 1694
5.73999988660216 1676
5.75999988615513 1640
5.77999988570809 1597
5.79999988526106 1505
5.81999988481402 1507
5.83999988436699 1549
5.85999988391995 1420
5.87999988347292 1394
5.89999988302588 1359
5.91999988257885 1285
5.93999988213181 1199
5.95999988168478 1198
5.97999988123775 1162
5.99999988079071 1096
6.01999988034368 1028
6.03999987989664 1082
6.05999987944961 1104
6.07999987900257 1007
6.09999987855554 1028
6.1199998781085 1061
6.13999987766147 1037
6.15999987721443 955
6.1799998767674 1013
6.19999987632036 962
6.21999987587333 944
6.23999987542629 960
6.25999987497926 1026
6.27999987453222 969
6.29999987408519 1027
6.31999987363815 968
6.33999987319112 942
6.35999987274408 989
6.37999987229705 981
6.39999987185001 942
6.41999987140298 981
6.43999987095594 984
6.45999987050891 1000
6.47999987006187 1005
6.49999986961484 1020
6.5199998691678 982
6.53999986872077 1011
6.55999986827374 1033
6.5799998678267 1143
6.59999986737967 1091
6.61999986693263 1219
6.6399998664856 1119
6.65999986603856 1094
6.67999986559153 1091
6.69999986514449 1034
6.71999986469746 957
6.73999986425042 1030
6.75999986380339 949
6.77999986335635 962
6.79999986290932 947
6.81999986246228 903
6.83999986201525 932
6.85999986156821 888
6.87999986112118 840
6.89999986067414 846
6.91999986022711 800
6.93999985978007 865
6.95999985933304 765
6.979999858886 801
6.99999985843897 813
7.01999985799193 790
7.0399998575449 808
7.05999985709786 802
7.07999985665083 794
7.09999985620379 839
7.11999985575676 770
7.13999985530973 874
7.15999985486269 816
7.17999985441566 807
7.19999985396862 758
7.21999985352159 746
7.23999985307455 738
7.25999985262752 773
7.27999985218048 795
7.29999985173345 776
7.31999985128641 754
7.33999985083938 804
7.35999985039234 812
7.37999984994531 786
7.39999984949827 742
7.41999984905124 758
7.4399998486042 747
7.45999984815717 716
7.47999984771013 769
7.4999998472631 790
7.51999984681606 784
7.53999984636903 742
7.55999984592199 753
7.57999984547496 785
7.59999984502792 736
7.61999984458089 759
7.63999984413385 737
7.65999984368682 766
7.67999984323978 786
7.69999984279275 733
7.71999984234572 742
7.73999984189868 719
7.75999984145165 740
7.77999984100461 728
7.79999984055758 764
7.81999984011054 773
7.83999983966351 784
7.85999983921647 761
7.87999983876944 750
7.8999998383224 773
7.91999983787537 764
7.93999983742833 747
7.9599998369813 695
7.97999983653426 761
7.99999983608723 787
8.01999983564019 747
8.03999983519316 775
8.05999983474612 742
8.07999983429909 735
8.09999983385205 714
8.11999983340502 751
8.13999983295798 693
8.15999983251095 775
8.17999983206391 720
8.19999983161688 789
8.21999983116984 735
8.23999983072281 760
8.25999983027577 752
8.27999982982874 685
8.2999998293817 757
8.31999982893467 740
8.33999982848764 726
8.3599998280406 710
8.37999982759357 734
8.39999982714653 696
8.4199998266995 726
8.43999982625246 741
8.45999982580543 746
8.47999982535839 731
8.49999982491136 767
8.51999982446432 723
8.53999982401729 714
8.55999982357025 721
8.57999982312322 739
8.59999982267618 691
8.61999982222915 760
8.63999982178211 739
8.65999982133508 785
8.67999982088804 742
8.69999982044101 749
8.71999981999397 769
8.73999981954694 747
8.7599998190999 745
8.77999981865287 730
8.79999981820583 721
8.8199998177588 737
8.83999981731176 730
8.85999981686473 705
8.87999981641769 758
8.89999981597066 794
8.91999981552362 812
8.93999981507659 723
8.95999981462956 729
8.97999981418252 787
8.99999981373549 751
9.01999981328845 788
9.03999981284142 779
9.05999981239438 757
9.07999981194735 723
9.09999981150031 777
9.11999981105328 770
9.13999981060624 773
9.15999981015921 763
9.17999980971217 821
9.19999980926514 788
9.2199998088181 818
9.23999980837107 800
9.25999980792403 795
9.279999807477 873
9.29999980702996 818
9.31999980658293 876
9.33999980613589 897
9.35999980568886 948
9.37999980524182 977
9.39999980479479 887
9.41999980434775 842
9.43999980390072 818
9.45999980345368 880
9.47999980300665 829
9.49999980255961 806
9.51999980211258 817
9.53999980166554 800
9.55999980121851 802
9.57999980077148 726
9.59999980032444 758
9.61999979987741 729
9.63999979943037 733
9.65999979898334 757
9.6799997985363 767
9.69999979808927 701
9.71999979764223 684
9.7399997971952 710
9.75999979674816 731
9.77999979630113 738
9.79999979585409 742
9.81999979540706 706
9.83999979496002 724
9.85999979451299 728
9.87999979406595 705
9.89999979361892 705
9.91999979317188 719
9.93999979272485 745
9.95999979227781 748
9.97999979183078 721
9.99999979138374 703
10.0199997909367 729
10.0399997904897 723
10.0599997900426 743
10.0799997895956 754
10.0999997891486 761
10.1199997887015 715
10.1399997882545 695
10.1599997878075 762
10.1799997873604 721
10.1999997869134 755
10.2199997864664 724
10.2399997860193 749
10.2599997855723 717
10.2799997851253 697
10.2999997846782 703
10.3199997842312 732
10.3399997837842 732
10.3599997833371 769
10.3799997828901 741
10.399999782443 754
10.419999781996 754
10.439999781549 739
10.4599997811019 716
10.4799997806549 676
10.4999997802079 751
10.5199997797608 755
10.5399997793138 740
10.5599997788668 731
10.5799997784197 746
10.5999997779727 750
10.6199997775257 754
10.6399997770786 753
10.6599997766316 741
10.6799997761846 723
10.6999997757375 729
10.7199997752905 741
10.7399997748435 728
10.7599997743964 723
10.7799997739494 777
10.7999997735024 730
10.8199997730553 771
10.8399997726083 753
10.8599997721612 816
10.8799997717142 802
10.8999997712672 810
10.9199997708201 833
10.9399997703731 845
10.9599997699261 870
10.979999769479 849
10.999999769032 859
11.019999768585 798
11.0399997681379 785
11.0599997676909 792
11.0799997672439 839
11.0999997667968 820
11.1199997663498 806
11.1399997659028 751
11.1599997654557 765
11.1799997650087 757
11.1999997645617 741
11.2199997641146 737
11.2399997636676 726
11.2599997632205 744
11.2799997627735 755
11.2999997623265 706
11.3199997618794 776
11.3399997614324 738
11.3599997609854 795
11.3799997605383 829
11.3999997600913 795
11.4199997596443 776
11.4399997591972 769
11.4599997587502 776
11.4799997583032 780
11.4999997578561 790
11.5199997574091 781
11.5399997569621 830
11.559999756515 774
11.579999756068 743
11.599999755621 803
11.6199997551739 720
11.6399997547269 723
11.6599997542799 770
11.6799997538328 750
11.6999997533858 768
11.7199997529387 718
11.7399997524917 724
11.7599997520447 704
11.7799997515976 756
11.7999997511506 730
11.8199997507036 753
11.8399997502565 716
11.8599997498095 730
11.8799997493625 720
11.8999997489154 717
11.9199997484684 707
11.9399997480214 691
11.9599997475743 769
11.9799997471273 731
11.9999997466803 739
12.0199997462332 760
12.0399997457862 691
12.0599997453392 729
12.0799997448921 705
12.0999997444451 710
12.1199997439981 719
12.139999743551 700
12.159999743104 712
12.1799997426569 692
12.1999997422099 754
12.2199997417629 713
12.2399997413158 698
12.2599997408688 735
12.2799997404218 705
12.2999997399747 700
12.3199997395277 748
12.3399997390807 715
12.3599997386336 716
12.3799997381866 716
12.3999997377396 699
12.4199997372925 689
12.4399997368455 734
12.4599997363985 724
12.4799997359514 711
12.4999997355044 773
12.5199997350574 738
12.5399997346103 726
12.5599997341633 730
12.5799997337162 709
12.5999997332692 749
12.6199997328222 732
12.6399997323751 751
12.6599997319281 749
12.6799997314811 764
12.699999731034 743
12.719999730587 722
12.73999973014 730
12.7599997296929 775
12.7799997292459 732
12.7999997287989 754
12.8199997283518 702
12.8399997279048 743
12.8599997274578 769
12.8799997270107 758
12.8999997265637 704
12.9199997261167 767
12.9399997256696 720
12.9599997252226 759
12.9799997247756 716
12.9999997243285 757
13.0199997238815 791
13.0399997234344 733
13.0599997229874 760
13.0799997225404 727
13.0999997220933 740
13.1199997216463 804
13.1399997211993 732
13.1599997207522 745
13.1799997203052 781
13.1999997198582 739
13.2199997194111 759
13.2399997189641 761
13.2599997185171 782
13.27999971807 796
13.299999717623 768
13.319999717176 720
13.3399997167289 739
13.3599997162819 749
13.3799997158349 776
13.3999997153878 764
13.4199997149408 730
13.4399997144938 753
13.4599997140467 716
13.4799997135997 755
13.4999997131526 738
13.5199997127056 766
13.5399997122586 731
13.5599997118115 714
13.5799997113645 736
13.5999997109175 743
13.6199997104704 774
13.6399997100234 724
13.6599997095764 789
13.6799997091293 789
13.6999997086823 790
13.7199997082353 768
13.7399997077882 779
13.7599997073412 824
13.7799997068942 736
13.7999997064471 738
13.8199997060001 740
13.8399997055531 770
13.859999705106 741
13.879999704659 727
13.899999704212 785
13.9199997037649 785
13.9399997033179 746
13.9599997028708 746
13.9799997024238 781
13.9999997019768 765
14.0199997015297 772
14.0399997010827 727
14.0599997006357 765
14.0799997001886 758
14.0999996997416 766
14.1199996992946 824
14.1399996988475 805
14.1599996984005 786
14.1799996979535 770
14.1999996975064 770
14.2199996970594 759
14.2399996966124 769
14.2599996961653 820
14.2799996957183 849
14.2999996952713 787
14.3199996948242 800
14.3399996943772 841
14.3599996939301 768
14.3799996934831 765
14.3999996930361 765
14.419999692589 805
14.439999692142 765
14.459999691695 746
14.4799996912479 776
14.4999996908009 786
14.5199996903539 811
14.5399996899068 805
14.5599996894598 797
14.5799996890128 828
14.5999996885657 824
14.6199996881187 820
14.6399996876717 810
14.6599996872246 799
14.6799996867776 831
14.6999996863306 828
14.7199996858835 773
14.7399996854365 789
14.7599996849895 828
14.7799996845424 782
14.7999996840954 824
14.8199996836483 829
14.8399996832013 826
14.8599996827543 818
14.8799996823072 776
14.8999996818602 825
14.9199996814132 815
14.9399996809661 824
14.9599996805191 825
14.9799996800721 834
14.999999679625 832
15.019999679178 835
15.039999678731 833
15.0599996782839 820
15.0799996778369 818
15.0999996773899 842
15.1199996769428 815
15.1399996764958 870
15.1599996760488 856
15.1799996756017 864
15.1999996751547 904
15.2199996747077 852
15.2399996742606 832
15.2599996738136 880
15.2799996733665 866
15.2999996729195 903
15.3199996724725 877
15.3399996720254 806
15.3599996715784 876
15.3799996711314 863
15.3999996706843 823
15.4199996702373 893
15.4399996697903 867
15.4599996693432 846
15.4799996688962 919
15.4999996684492 880
15.5199996680021 809
15.5399996675551 866
15.5599996671081 890
15.579999666661 912
15.599999666214 887
15.619999665767 847
15.6399996653199 883
15.6599996648729 919
15.6799996644258 932
15.6999996639788 905
15.7199996635318 937
15.7399996630847 938
15.7599996626377 883
15.7799996621907 901
15.7999996617436 902
15.8199996612966 950
15.8399996608496 954
15.8599996604025 969
15.8799996599555 929
15.8999996595085 897
15.9199996590614 903
15.9399996586144 844
15.9599996581674 921
15.9799996577203 924
15.9999996572733 932
16.0199996568263 946
16.0399996563792 976
16.0599996559322 949
16.0799996554852 905
16.0999996550381 931
16.1199996545911 954
16.139999654144 893
16.159999653697 902
16.17999965325 983
16.1999996528029 1035
16.2199996523559 942
16.2399996519089 951
16.2599996514618 981
16.2799996510148 942
16.2999996505678 1009
16.3199996501207 968
16.3399996496737 1022
16.3599996492267 969
16.3799996487796 1003
16.3999996483326 1000
16.4199996478856 982
16.4399996474385 956
16.4599996469915 1018
16.4799996465445 1028
16.4999996460974 1010
16.5199996456504 972
16.5399996452034 955
16.5599996447563 987
16.5799996443093 1018
16.5999996438622 1006
16.6199996434152 995
16.6399996429682 1000
16.6599996425211 1046
16.6799996420741 1001
16.6999996416271 1022
16.71999964118 1004
16.739999640733 1003
16.759999640286 1036
16.7799996398389 1037
16.7999996393919 993
16.8199996389449 1021
16.8399996384978 1052
16.8599996380508 1119
16.8799996376038 1100
16.8999996371567 1097
16.9199996367097 972
16.9399996362627 1025
16.9599996358156 981
16.9799996353686 1022
16.9999996349216 1083
17.0199996344745 1080
17.0399996340275 1128
17.0599996335804 1122
17.0799996331334 1128
17.0999996326864 1072
17.1199996322393 1068
17.1399996317923 1143
17.1599996313453 1122
17.1799996308982 1131
17.1999996304512 1131
17.2199996300042 1101
17.2399996295571 1139
17.2599996291101 1153
17.2799996286631 1123
17.299999628216 1113
17.319999627769 1119
17.339999627322 1102
17.3599996268749 1086
17.3799996264279 1145
17.3999996259809 1151
17.4199996255338 1116
17.4399996250868 1187
17.4599996246398 1156
17.4799996241927 1155
17.4999996237457 1105
17.5199996232986 1161
17.5399996228516 1157
17.5599996224046 1146
17.5799996219575 1158
17.5999996215105 1215
17.6199996210635 1173
17.6399996206164 1147
17.6599996201694 1180
17.6799996197224 1152
17.6999996192753 1193
17.7199996188283 1231
17.7399996183813 1220
17.7599996179342 1170
17.7799996174872 1235
17.7999996170402 1208
17.8199996165931 1197
17.8399996161461 1223
17.8599996156991 1196
17.879999615252 1224
17.899999614805 1189
17.9199996143579 1182
17.9399996139109 1255
17.9599996134639 1257
17.9799996130168 1279
17.9999996125698 1249
18.0199996121228 1238
18.0399996116757 1250
18.0599996112287 1249
18.0799996107817 1327
18.0999996103346 1297
18.1199996098876 1277
18.1399996094406 1328
18.1599996089935 1266
18.1799996085465 1274
18.1999996080995 1355
18.2199996076524 1266
18.2399996072054 1339
18.2599996067584 1266
18.2799996063113 1346
18.2999996058643 1257
18.3199996054173 1291
18.3399996049702 1332
18.3599996045232 1382
18.3799996040761 1326
18.3999996036291 1268
18.4199996031821 1315
18.439999602735 1374
18.459999602288 1310
18.479999601841 1292
18.4999996013939 1344
18.5199996009469 1327
18.5399996004999 1366
18.5599996000528 1410
18.5799995996058 1347
18.5999995991588 1405
18.6199995987117 1383
18.6399995982647 1437
18.6599995978177 1350
18.6799995973706 1369
18.6999995969236 1412
18.7199995964766 1418
18.7399995960295 1366
18.7599995955825 1378
18.7799995951354 1400
18.7999995946884 1411
18.8199995942414 1365
18.8399995937943 1366
18.8599995933473 1380
18.8799995929003 1406
18.8999995924532 1440
18.9199995920062 1420
18.9399995915592 1413
18.9599995911121 1387
18.9799995906651 1504
18.9999995902181 1425
19.019999589771 1522
19.039999589324 1485
19.059999588877 1469
19.0799995884299 1437
19.0999995879829 1458
19.1199995875359 1456
19.1399995870888 1490
19.1599995866418 1487
19.1799995861948 1473
19.1999995857477 1465
19.2199995853007 1533
19.2399995848536 1530
19.2599995844066 1514
19.2799995839596 1522
19.2999995835125 1562
19.3199995830655 1470
19.3399995826185 1571
19.3599995821714 1533
19.3799995817244 1530
19.3999995812774 1552
19.4199995808303 1487
19.4399995803833 1529
19.4599995799363 1576
19.4799995794892 1550
19.4999995790422 1497
19.5199995785952 1565
19.5399995781481 1585
19.5599995777011 1620
19.5799995772541 1581
19.599999576807 1620
19.61999957636 1565
19.639999575913 1646
19.6599995754659 1565
19.6799995750189 1563
19.6999995745718 1665
19.7199995741248 1645
19.7399995736778 1602
19.7599995732307 1668
19.7799995727837 1620
19.7999995723367 1664
19.8199995718896 1725
19.8399995714426 1701
19.8599995709956 1655
19.8799995705485 1649
19.8999995701015 1688
19.9199995696545 1690
19.9399995692074 1697
19.9599995687604 1601
19.9799995683134 1674
19.9999995678663 1646
20.0199995674193 1589
20.0399995669723 1603
20.0599995665252 1618
20.0799995660782 1607
20.0999995656312 1583
20.1199995651841 1575
20.1399995647371 1649
20.15999956429 1624
20.179999563843 1607
20.199999563396 1632
20.2199995629489 1640
20.2399995625019 1614
20.2599995620549 1638
20.2799995616078 1575
20.2999995611608 1608
20.3199995607138 1662
20.3399995602667 1626
20.3599995598197 1565
20.3799995593727 1603
20.3999995589256 1684
20.4199995584786 1634
20.4399995580316 1605
20.4599995575845 1611
20.4799995571375 1621
20.4999995566905 1589
20.5199995562434 1664
20.5399995557964 1601
20.5599995553494 1672
20.5799995549023 1684
20.5999995544553 1656
20.6199995540082 1604
20.6399995535612 1627
20.6599995531142 1708
20.6799995526671 1639
20.6999995522201 1621
20.7199995517731 1669
20.739999551326 1612
20.759999550879 1667
20.779999550432 1588
20.7999995499849 1646
20.8199995495379 1710
20.8399995490909 1687
20.8599995486438 1616
20.8799995481968 1635
20.8999995477498 1684
20.9199995473027 1649
20.9399995468557 1642
20.9599995464087 1760
20.9799995459616 1703
20.9999995455146 1613
21.0199995450675 1655
21.0399995446205 1655
21.0599995441735 1684
21.0799995437264 1674
21.0999995432794 1676
21.1199995428324 1640
21.1399995423853 1647
21.1599995419383 1579
21.1799995414913 1680
21.1999995410442 1587
21.2199995405972 1744
21.2399995401502 1748
21.2599995397031 1661
21.2799995392561 1705
21.2999995388091 1687
21.319999538362 1592
21.339999537915 1659
21.359999537468 1620
21.3799995370209 1635
21.3999995365739 1651
21.4199995361269 1568
21.4399995356798 1652
21.4599995352328 1699
21.4799995347857 1618
21.4999995343387 1659
21.5199995338917 1683
21.5399995334446 1670
21.5599995329976 1662
21.5799995325506 1629
21.5999995321035 1701
21.6199995316565 1672
21.6399995312095 1668
21.6599995307624 1694
21.6799995303154 1638
21.6999995298684 1654
21.7199995294213 1739
21.7399995289743 1675
21.7599995285273 1687
21.7799995280802 1669
21.7999995276332 1613
21.8199995271862 1656
21.8399995267391 1657
21.8599995262921 1659
21.879999525845 1665
21.899999525398 1652
21.919999524951 1718
21.9399995245039 1682
21.9599995240569 1703
21.9799995236099 1601
21.9999995231628 1618
22.0199995227158 1646
22.0399995222688 1627
22.0599995218217 1638
22.0799995213747 1623
22.0999995209277 1582
22.1199995204806 1620
22.1399995200336 1584
22.1599995195866 1611
22.1799995191395 1610
22.1999995186925 1603
22.2199995182455 1601
22.2399995177984 1672
22.2599995173514 1580
22.2799995169044 1614
22.2999995164573 1606
22.3199995160103 1642
22.3399995155632 1608
22.3599995151162 1667
22.3799995146692 1601
22.3999995142221 1629
22.4199995137751 1588
22.4399995133281 1580
22.459999512881 1577
22.479999512434 1521
22.499999511987 1584
22.5199995115399 1484
22.5399995110929 1571
22.5599995106459 1590
22.5799995101988 1636
22.5999995097518 1525
22.6199995093048 1570
22.6399995088577 1595
22.6599995084107 1516
22.6799995079637 1554
22.6999995075166 1492
22.7199995070696 1578
22.7399995066226 1548
22.7599995061755 1566
22.7799995057285 1520
22.7999995052814 1539
22.8199995048344 1499
22.8399995043874 1536
22.8599995039403 1548
22.8799995034933 1494
22.8999995030463 1515
22.9199995025992 1491
22.9399995021522 1549
22.9599995017052 1509
22.9799995012581 1620
22.9999995008111 1555
23.0199995003641 1542
23.039999499917 1555
23.05999949947 1468
23.079999499023 1481
23.0999994985759 1474
23.1199994981289 1519
23.1399994976819 1496
23.1599994972348 1470
23.1799994967878 1421
23.1999994963408 1487
23.2199994958937 1439
23.2399994954467 1465
23.2599994949996 1481
23.2799994945526 1486
23.2999994941056 1519
23.3199994936585 1442
23.3399994932115 1516
23.3599994927645 1489
23.3799994923174 1484
23.3999994918704 1477
23.4199994914234 1467
23.4399994909763 1400
23.4599994905293 1363
23.4799994900823 1448
23.4999994896352 1428
23.5199994891882 1413
23.5399994887412 1412
23.5599994882941 1443
23.5799994878471 1553
23.5999994874001 1462
23.619999486953 1464
23.639999486506 1528
23.659999486059 1489
23.6799994856119 1474
23.6999994851649 1514
23.7199994847178 1495
23.7399994842708 1460
23.7599994838238 1508
23.7799994833767 1488
23.7999994829297 1566
23.8199994824827 1488
23.8399994820356 1424
23.8599994815886 1504
23.8799994811416 1450
23.8999994806945 1433
23.9199994802475 1379
23.9399994798005 1450
23.9599994793534 1380
23.9799994789064 1376
23.9999994784594 1416
24.0199994780123 1403
24.0399994775653 1330
24.0599994771183 1435
24.0799994766712 1390
24.0999994762242 1348
24.1199994757771 1340
24.1399994753301 1354
24.1599994748831 1355
24.179999474436 1348
24.199999473989 1367
24.219999473542 1364
24.2399994730949 1322
24.2599994726479 1371
24.2799994722009 1340
24.2999994717538 1303
24.3199994713068 1357
24.3399994708598 1386
24.3599994704127 1366
24.3799994699657 1336
24.3999994695187 1351
24.4199994690716 1298
24.4399994686246 1343
24.4599994681776 1332
24.4799994677305 1316
24.4999994672835 1308
24.5199994668365 1292
24.5399994663894 1314
24.5599994659424 1330
24.5799994654953 1302
24.5999994650483 1332
24.6199994646013 1236
24.6399994641542 1293
24.6599994637072 1313
24.6799994632602 1294
24.6999994628131 1322
24.7199994623661 1343
24.7399994619191 1412
24.759999461472 1283
24.779999461025 1296
24.799999460578 1331
24.8199994601309 1310
24.8399994596839 1311
24.8599994592369 1272
24.8799994587898 1256
24.8999994583428 1326
24.9199994578958 1238
24.9399994574487 1275
24.9599994570017 1265
24.9799994565547 1245
24.9999994561076 1261
25.0199994556606 1240
25.0399994552135 1220
25.0599994547665 1208
25.0799994543195 1240
25.0999994538724 1206
25.1199994534254 1286
25.1399994529784 1280
25.1599994525313 1249
25.1799994520843 1157
25.1999994516373 1233
25.2199994511902 1238
25.2399994507432 1178
25.2599994502962 1201
25.2799994498491 1253
25.2999994494021 1234
25.3199994489551 1187
25.339999448508 1180
25.359999448061 1191
25.379999447614 1268
25.3999994471669 1268
25.4199994467199 1256
25.4399994462729 1279
25.4599994458258 1285
25.4799994453788 1268
25.4999994449317 1332
25.5199994444847 1298
25.5399994440377 1313
25.5599994435906 1271
25.5799994431436 1231
25.5999994426966 1251
25.6199994422495 1199
25.6399994418025 1220
25.6599994413555 1288
25.6799994409084 1231
25.6999994404614 1241
25.7199994400144 1181
25.7399994395673 1187
25.7599994391203 1129
25.7799994386733 1193
25.7999994382262 1150
25.8199994377792 1173
25.8399994373322 1118
25.8599994368851 1239
25.8799994364381 1167
25.899999435991 1130
25.919999435544 1147
25.939999435097 1100
25.9599994346499 1103
25.9799994342029 1182
25.9999994337559 1083
26.0199994333088 1143
26.0399994328618 1153
26.0599994324148 1159
26.0799994319677 1129
26.0999994315207 1134
26.1199994310737 1132
26.1399994306266 1125
26.1599994301796 1096
26.1799994297326 1180
26.1999994292855 1134
26.2199994288385 1120
26.2399994283915 1076
26.2599994279444 1098
26.2799994274974 1081
26.2999994270504 1131
26.3199994266033 1082
26.3399994261563 1121
26.3599994257092 1052
26.3799994252622 1155
26.3999994248152 1170
26.4199994243681 1127
26.4399994239211 1113
26.4599994234741 1136
26.479999423027 1138
26.49999942258 1170
26.519999422133 1165
26.5399994216859 1126
26.5599994212389 1120
26.5799994207919 1126
26.5999994203448 1102
26.6199994198978 1159
26.6399994194508 1135
26.6599994190037 1148
26.6799994185567 1153
26.6999994181097 1108
26.7199994176626 1123
26.7399994172156 1078
26.7599994167686 1023
26.7799994163215 1063
26.7999994158745 1041
26.8199994154274 1094
26.8399994149804 1049
26.8599994145334 1028
26.8799994140863 1003
26.8999994136393 1086
26.9199994131923 1078
26.9399994127452 1067
26.9599994122982 1044
26.9799994118512 1038
26.9999994114041 976
27.0199994109571 1061
27.0399994105101 1065
27.059999410063 1078
27.079999409616 1071
27.099999409169 1090
27.1199994087219 1065
27.1399994082749 1029
27.1599994078279 1080
27.1799994073808 1017
27.1999994069338 1074
27.2199994064867 1084
27.2399994060397 1042
27.2599994055927 983
27.2799994051456 1082
27.2999994046986 1065
27.3199994042516 1090
27.3399994038045 1058
27.3599994033575 1045
27.3799994029105 1101
27.3999994024634 1122
27.4199994020164 1106
27.4399994015694 1060
27.4599994011223 1048
27.4799994006753 1044
27.4999994002283 1084
27.5199993997812 1093
27.5399993993342 1040
27.5599993988872 1057
27.5799993984401 1067
27.5999993979931 1029
27.6199993975461 1005
27.639999397099 1033
27.659999396652 1011
27.6799993962049 1093
27.6999993957579 984
27.7199993953109 933
27.7399993948638 1026
27.7599993944168 1008
27.7799993939698 999
27.7999993935227 1033
27.8199993930757 1013
27.8399993926287 959
27.8599993921816 1029
27.8799993917346 986
27.8999993912876 1078
27.9199993908405 937
27.9399993903935 991
27.9599993899465 977
27.9799993894994 1002
27.9999993890524 919
28.0199993886054 1014
28.0399993881583 975
28.0599993877113 1026
28.0799993872643 1022
28.0999993868172 1007
28.1199993863702 1020
28.1399993859231 1001
28.1599993854761 979
28.1799993850291 1064
28.199999384582 1036
28.219999384135 1067
28.239999383688 1007
28.2599993832409 1060
28.2799993827939 1007
28.2999993823469 990
28.3199993818998 1011
28.3399993814528 995
28.3599993810058 952
28.3799993805587 968
28.3999993801117 902
28.4199993796647 1021
28.4399993792176 998
28.4599993787706 952
28.4799993783236 949
28.4999993778765 975
28.5199993774295 952
28.5399993769825 993
28.5599993765354 1018
28.5799993760884 997
28.5999993756413 1005
28.6199993751943 962
28.6399993747473 1042
28.6599993743002 1006
28.6799993738532 999
28.6999993734062 955
28.7199993729591 986
28.7399993725121 988
28.7599993720651 1060
28.779999371618 1030
28.799999371171 1050
28.819999370724 1008
28.8399993702769 1009
28.8599993698299 1026
28.8799993693829 991
28.8999993689358 1021
28.9199993684888 1031
28.9399993680418 997
28.9599993675947 1020
28.9799993671477 1013
28.9999993667006 980
29.0199993662536 1004
29.0399993658066 1047
29.0599993653595 1019
29.0799993649125 1049
29.0999993644655 1011
29.1199993640184 1065
29.1399993635714 1025
29.1599993631244 1007
29.1799993626773 980
29.1999993622303 958
29.2199993617833 998
29.2399993613362 975
29.2599993608892 918
29.2799993604422 923
29.2999993599951 969
29.3199993595481 979
29.3399993591011 905
29.359999358654 950
29.379999358207 900
29.39999935776 946
29.4199993573129 936
29.4399993568659 925
29.4599993564188 915
29.4799993559718 891
29.4999993555248 928
29.5199993550777 917
29.5399993546307 987
29.5599993541837 933
29.5799993537366 965
29.5999993532896 928
29.6199993528426 897
29.6399993523955 966
29.6599993519485 959
29.6799993515015 964
29.6999993510544 935
29.7199993506074 908
29.7399993501604 935
29.7599993497133 980
29.7799993492663 933
29.7999993488193 957
29.8199993483722 963
29.8399993479252 893
29.8599993474782 929
29.8799993470311 908
29.8999993465841 968
29.919999346137 930
29.93999934569 910
29.959999345243 946
29.9799993447959 929
29.9999993443489 896
