2.79999995231628 5356
2.81999995186925 4940
2.83999995142221 4448
2.85999995097518 4097
2.87999995052814 3808
2.89999995008111 3380
2.91999994963407 3125
2.93999994918704 2934
2.95999994874001 2646
2.97999994829297 2408
2.99999994784594 2287
3.0199999473989 2122
3.03999994695187 1940
3.05999994650483 1833
3.0799999460578 1773
3.09999994561076 1638
3.11999994516373 1593
3.13999994471669 1563
3.15999994426966 1559
3.17999994382262 1536
3.19999994337559 1535
3.21999994292855 1479
3.23999994248152 1507
3.25999994203448 1495
3.27999994158745 1432
3.29999994114041 1399
3.31999994069338 1443
3.33999994024634 1389
3.35999993979931 1344
3.37999993935227 1389
3.39999993890524 1402
3.4199999384582 1312
3.43999993801117 1322
3.45999993756413 1288
3.4799999371171 1280
3.49999993667006 1311
3.51999993622303 1309
3.539999935776 1296
3.55999993532896 1292
3.57999993488193 1260
3.59999993443489 1252
3.61999993398786 1324
3.63999993354082 1222
3.65999993309379 1254
3.67999993264675 1184
3.69999993219972 1170
3.71999993175268 1191
3.73999993130565 1212
3.75999993085861 1215
3.77999993041158 1258
3.79999992996454 1210
3.81999992951751 1154
3.83999992907047 1118
3.85999992862344 1182
3.8799999281764 1147
3.89999992772937 1166
3.91999992728233 1162
3.9399999268353 1136
3.95999992638826 1177
3.97999992594123 1181
3.99999992549419 1141
4.01999992504716 1122
4.03999992460012 1142
4.05999992415309 1171
4.07999992370605 1136
4.09999992325902 1100
4.11999992281199 1114
4.13999992236495 1158
4.15999992191792 1114
4.17999992147088 1121
4.19999992102385 1053
4.21999992057681 1144
4.23999992012978 1094
4.25999991968274 1178
4.27999991923571 1106
4.29999991878867 1089
4.31999991834164 1132
4.3399999178946 1093
4.35999991744757 1111
4.37999991700053 1122
4.3999999165535 1118
4.41999991610646 1067
4.43999991565943 1098
4.45999991521239 1091
4.47999991476536 1137
4.49999991431832 1142
4.51999991387129 1157
4.53999991342425 1108
4.55999991297722 1146
4.57999991253018 1134
4.59999991208315 1156
4.61999991163611 1124
4.63999991118908 1135
4.65999991074204 1125
4.67999991029501 1186
4.69999990984798 1149
4.71999990940094 1162
4.73999990895391 1108
4.75999990850687 1129
4.77999990805984 1214
4.7999999076128 1140
4.81999990716577 1163
4.83999990671873 1208
4.8599999062717 1207
4.87999990582466 1166
4.89999990537763 1186
4.91999990493059 1241
4.93999990448356 1205
4.95999990403652 1211
4.97999990358949 1213
4.99999990314245 1141
5.01999990269542 1248
5.03999990224838 1235
5.05999990180135 1213
5.07999990135431 1199
5.09999990090728 1249
5.11999990046024 1254
5.13999990001321 1234
5.15999989956617 1221
5.17999989911914 1240
5.1999998986721 1250
5.21999989822507 1264
5.23999989777803 1304
5.259999897331 1335
5.27999989688396 1283
5.29999989643693 1323
5.3199998959899 1326
5.33999989554286 1322
5.35999989509583 1281
5.37999989464879 1327
5.39999989420176 1399
5.41999989375472 1419
5.43999989330769 1415
5.45999989286065 1493
5.47999989241362 1476
5.49999989196658 1430
5.51999989151955 1469
5.53999989107251 1605
5.55999989062548 1568
5.57999989017844 1627
5.59999988973141 1703
5.61999988928437 1796
5.63999988883734 1786
5.6599998883903 1903
5.67999988794327 1999
5.69999988749623 2224
5.7199998870492 2246
5.73999988660216 2567
5.75999988615513 2939
5.77999988570809 3462
5.79999988526106 3273
5.81999988481402 2368
5.83999988436699 1684
5.85999988391995 1333
5.87999988347292 1188
5.89999988302588 1121
5.91999988257885 1211
5.93999988213181 1217
5.95999988168478 1163
5.97999988123775 1139
5.99999988079071 1175
6.01999988034368 1195
6.03999987989664 1151
6.05999987944961 1137
6.07999987900257 1142
6.09999987855554 1166
6.1199998781085 1133
6.13999987766147 1196
6.15999987721443 1151
6.1799998767674 1103
6.19999987632036 1134
6.21999987587333 1080
6.23999987542629 1134
6.25999987497926 1112
6.27999987453222 1129
6.29999987408519 1125
6.31999987363815 1210
6.33999987319112 1208
6.35999987274408 1189
6.37999987229705 1166
6.39999987185001 1188
6.41999987140298 1225
6.43999987095594 1246
6.45999987050891 1290
6.47999987006187 1339
6.49999986961484 1298
6.5199998691678 1316
6.53999986872077 1382
6.55999986827374 1486
6.5799998678267 1497
6.59999986737967 1565
6.61999986693263 1790
6.6399998664856 2101
6.65999986603856 2334
6.67999986559153 2381
6.69999986514449 1727
6.71999986469746 1251
6.73999986425042 1068
6.75999986380339 996
6.77999986335635 993
6.79999986290932 964
6.81999986246228 1032
6.83999986201525 1054
6.85999986156821 966
6.87999986112118 984
6.89999986067414 946
6.91999986022711 941
6.93999985978007 1018
6.95999985933304 1000
6.979999858886 969
6.99999985843897 969
7.01999985799193 998
7.0399998575449 922
7.05999985709786 942
7.07999985665083 1006
7.09999985620379 957
7.11999985575676 967
7.13999985530973 960
7.15999985486269 1028
7.17999985441566 945
7.19999985396862 956
7.21999985352159 922
7.23999985307455 955
7.25999985262752 1012
7.27999985218048 955
7.29999985173345 923
7.31999985128641 932
7.33999985083938 1005
7.35999985039234 909
7.37999984994531 974
7.39999984949827 921
7.41999984905124 930
7.4399998486042 962
7.45999984815717 1057
7.47999984771013 946
7.4999998472631 938
7.51999984681606 877
7.53999984636903 961
7.55999984592199 958
7.57999984547496 1012
7.59999984502792 976
7.61999984458089 949
7.63999984413385 916
7.65999984368682 959
7.67999984323978 1012
7.69999984279275 903
7.71999984234572 945
7.73999984189868 923
7.75999984145165 990
7.77999984100461 978
7.79999984055758 1003
7.81999984011054 931
7.83999983966351 920
7.85999983921647 945
7.87999983876944 914
7.8999998383224 984
7.91999983787537 942
7.93999983742833 957
7.9599998369813 942
7.97999983653426 960
7.99999983608723 955
8.01999983564019 943
8.03999983519316 933
8.05999983474612 932
8.07999983429909 974
8.09999983385205 919
8.11999983340502 967
8.13999983295798 964
8.15999983251095 980
8.17999983206391 993
8.19999983161688 940
8.21999983116984 953
8.23999983072281 946
8.25999983027577 981
8.27999982982874 940
8.2999998293817 938
8.31999982893467 928
8.33999982848764 971
8.3599998280406 973
8.37999982759357 973
8.39999982714653 971
8.4199998266995 914
8.43999982625246 977
8.45999982580543 961
8.47999982535839 958
8.49999982491136 947
8.51999982446432 937
8.53999982401729 985
8.55999982357025 990
8.57999982312322 983
8.59999982267618 933
8.61999982222915 1002
8.63999982178211 969
8.65999982133508 1021
8.67999982088804 999
8.69999982044101 1006
8.71999981999397 985
8.73999981954694 949
8.7599998190999 1001
8.77999981865287 1015
8.79999981820583 951
8.8199998177588 948
8.83999981731176 975
8.85999981686473 1047
8.87999981641769 1046
8.89999981597066 1026
8.91999981552362 1018
8.93999981507659 1035
8.95999981462956 917
8.97999981418252 976
8.99999981373549 1039
9.01999981328845 1083
9.03999981284142 1107
9.05999981239438 1107
9.07999981194735 1088
9.09999981150031 1068
9.11999981105328 1066
9.13999981060624 1136
9.15999981015921 1129
9.17999980971217 1201
9.19999980926514 1175
9.2199998088181 1239
9.23999980837107 1325
9.25999980792403 1320
9.279999807477 1470
9.29999980702996 1548
9.31999980658293 1678
9.33999980613589 1812
9.35999980568886 2138
9.37999980524182 2327
9.39999980479479 2218
9.41999980434775 1946
9.43999980390072 1468
9.45999980345368 1220
9.47999980300665 1090
9.49999980255961 1109
9.51999980211258 1031
9.53999980166554 1041
9.55999980121851 1029
9.57999980077148 1065
9.59999980032444 996
9.61999979987741 1038
9.63999979943037 1058
9.65999979898334 1001
9.6799997985363 1031
9.69999979808927 1028
9.71999979764223 970
9.7399997971952 973
9.75999979674816 1066
9.77999979630113 1028
9.79999979585409 1007
9.81999979540706 1013
9.83999979496002 998
9.85999979451299 1056
9.87999979406595 986
9.89999979361892 1054
9.91999979317188 1023
9.93999979272485 1012
9.95999979227781 1067
9.97999979183078 1050
9.99999979138374 1026
10.0199997909367 1022
10.0399997904897 1020
10.0599997900426 983
10.0799997895956 1005
10.0999997891486 1034
10.1199997887015 1053
10.1399997882545 947
10.1599997878075 1013
10.1799997873604 1050
10.1999997869134 1062
10.2199997864664 1013
10.2399997860193 1033
10.2599997855723 1065
10.2799997851253 1043
10.2999997846782 1007
10.3199997842312 1053
10.3399997837842 1031
10.3599997833371 1011
10.3799997828901 1072
10.399999782443 992
10.419999781996 1091
10.439999781549 1046
10.4599997811019 1043
10.4799997806549 1009
10.4999997802079 1024
10.5199997797608 1090
10.5399997793138 1070
10.5599997788668 1108
10.5799997784197 1041
10.5999997779727 1123
10.6199997775257 1144
10.6399997770786 1085
10.6599997766316 1135
10.6799997761846 1124
10.6999997757375 1100
10.7199997752905 1134
10.7399997748435 1156
10.7599997743964 1268
10.7799997739494 1210
10.7999997735024 1262
10.8199997730553 1265
10.8399997726083 1437
10.8599997721612 1360
10.8799997717142 1407
10.8999997712672 1458
10.9199997708201 1552
10.9399997703731 1737
10.9599997699261 1963
10.979999769479 2241
10.999999769032 2387
11.019999768585 2207
11.0399997681379 1772
11.0599997676909 1369
11.0799997672439 1218
11.0999997667968 1191
11.1199997663498 1136
11.1399997659028 1083
11.1599997654557 1143
11.1799997650087 1130
11.1999997645617 1144
11.2199997641146 1148
11.2399997636676 1160
11.2599997632205 1153
11.2799997627735 1126
11.2999997623265 1145
11.3199997618794 1230
11.3399997614324 1209
11.3599997609854 1259
11.3799997605383 1296
11.3999997600913 1333
11.4199997596443 1348
11.4399997591972 1496
11.4599997587502 1569
11.4799997583032 1707
11.4999997578561 1702
11.5199997574091 1521
11.5399997569621 1308
11.559999756515 1188
11.579999756068 1131
11.599999755621 1097
11.6199997551739 1094
11.6399997547269 1082
11.6599997542799 1074
11.6799997538328 1106
11.6999997533858 1130
11.7199997529387 1079
11.7399997524917 1052
11.7599997520447 1101
11.7799997515976 1124
11.7999997511506 1113
11.8199997507036 1086
11.8399997502565 1110
11.8599997498095 1094
11.8799997493625 1085
11.8999997489154 1127
11.9199997484684 1150
11.9399997480214 1145
11.9599997475743 1113
11.9799997471273 1102
11.9999997466803 1116
12.0199997462332 1130
12.0399997457862 1143
12.0599997453392 1094
12.0799997448921 1123
12.0999997444451 1097
12.1199997439981 1112
12.139999743551 1124
12.159999743104 1150
12.1799997426569 1097
12.1999997422099 1115
12.2199997417629 1163
12.2399997413158 1115
12.2599997408688 1120
12.2799997404218 1187
12.2999997399747 1162
12.3199997395277 1146
12.3399997390807 1152
12.3599997386336 1151
12.3799997381866 1143
12.3999997377396 1133
12.4199997372925 1125
12.4399997368455 1174
12.4599997363985 1214
12.4799997359514 1189
12.4999997355044 1186
12.5199997350574 1173
12.5399997346103 1152
12.5599997341633 1130
12.5799997337162 1124
12.5999997332692 1162
12.6199997328222 1152
12.6399997323751 1169
12.6599997319281 1185
12.6799997314811 1191
12.699999731034 1164
12.719999730587 1229
12.73999973014 1199
12.7599997296929 1211
12.7799997292459 1162
12.7999997287989 1191
12.8199997283518 1177
12.8399997279048 1189
12.8599997274578 1206
12.8799997270107 1185
12.8999997265637 1176
12.9199997261167 1162
12.9399997256696 1235
12.9599997252226 1214
12.9799997247756 1274
12.9999997243285 1201
13.0199997238815 1260
13.0399997234344 1234
13.0599997229874 1211
13.0799997225404 1278
13.0999997220933 1276
13.1199997216463 1259
13.1399997211993 1246
13.1599997207522 1319
13.1799997203052 1306
13.1999997198582 1313
13.2199997194111 1410
13.2399997189641 1374
13.2599997185171 1482
13.27999971807 1426
13.299999717623 1365
13.319999717176 1247
13.3399997167289 1278
13.3599997162819 1275
13.3799997158349 1287
13.3999997153878 1325
13.4199997149408 1217
13.4399997144938 1258
13.4599997140467 1284
13.4799997135997 1250
13.4999997131526 1337
13.5199997127056 1266
13.5399997122586 1274
13.5599997118115 1298
13.5799997113645 1274
13.5999997109175 1216
13.6199997104704 1313
13.6399997100234 1310
13.6599997095764 1286
13.6799997091293 1280
13.6999997086823 1342
13.7199997082353 1214
13.7399997077882 1247
13.7599997073412 1297
13.7799997068942 1320
13.7999997064471 1340
13.8199997060001 1357
13.8399997055531 1319
13.859999705106 1298
13.879999704659 1357
13.899999704212 1371
13.9199997037649 1316
13.9399997033179 1335
13.9599997028708 1323
13.9799997024238 1340
13.9999997019768 1324
14.0199997015297 1412
14.0399997010827 1323
14.0599997006357 1374
14.0799997001886 1353
14.0999996997416 1376
14.1199996992946 1373
14.1399996988475 1369
14.1599996984005 1445
14.1799996979535 1358
14.1999996975064 1418
14.2199996970594 1436
14.2399996966124 1428
14.2599996961653 1414
14.2799996957183 1406
14.2999996952713 1469
14.3199996948242 1408
14.3399996943772 1482
14.3599996939301 1440
14.3799996934831 1444
14.3999996930361 1573
14.419999692589 1603
14.439999692142 1616
14.459999691695 1601
14.4799996912479 1585
14.4999996908009 1535
14.5199996903539 1396
14.5399996899068 1451
14.5599996894598 1464
14.5799996890128 1446
14.5999996885657 1471
14.6199996881187 1455
14.6399996876717 1481
14.6599996872246 1499
14.6799996867776 1497
14.6999996863306 1504
14.7199996858835 1467
14.7399996854365 1517
14.7599996849895 1456
14.7799996845424 1469
14.7999996840954 1443
14.8199996836483 1530
14.8399996832013 1562
14.8599996827543 1453
14.8799996823072 1475
14.8999996818602 1463
14.9199996814132 1484
14.9399996809661 1575
14.9599996805191 1465
14.9799996800721 1457
14.999999679625 1458
15.019999679178 1523
15.039999678731 1497
15.0599996782839 1488
15.0799996778369 1503
15.0999996773899 1551
15.1199996769428 1528
15.1399996764958 1492
15.1599996760488 1589
15.1799996756017 1504
15.1999996751547 1530
15.2199996747077 1611
15.2399996742606 1539
15.2599996738136 1599
15.2799996733665 1656
15.2999996729195 1597
15.3199996724725 1503
15.3399996720254 1548
15.3599996715784 1462
15.3799996711314 1580
15.3999996706843 1548
15.4199996702373 1604
15.4399996697903 1683
15.4599996693432 1535
15.4799996688962 1668
15.4999996684492 1590
15.5199996680021 1683
15.5399996675551 1570
15.5599996671081 1660
15.579999666661 1549
15.599999666214 1707
15.619999665767 1613
15.6399996653199 1681
15.6599996648729 1602
15.6799996644258 1662
15.6999996639788 1678
15.7199996635318 1635
15.7399996630847 1656
15.7599996626377 1676
15.7799996621907 1703
15.7999996617436 1697
15.8199996612966 1598
15.8399996608496 1681
15.8599996604025 1740
15.8799996599555 1644
15.8999996595085 1690
15.9199996590614 1701
15.9399996586144 1732
15.9599996581674 1715
15.9799996577203 1666
15.9999996572733 1742
16.0199996568263 1756
16.0399996563792 1777
16.0599996559322 1751
16.0799996554852 1771
16.0999996550381 1716
16.1199996545911 1778
16.139999654144 1729
16.159999653697 1715
16.17999965325 1782
16.1999996528029 1789
16.2199996523559 1828
16.2399996519089 1854
16.2599996514618 1826
16.2799996510148 1807
16.2999996505678 1779
16.3199996501207 1851
16.3399996496737 1855
16.3599996492267 1898
16.3799996487796 1813
16.3999996483326 1868
16.4199996478856 1803
16.4399996474385 1783
16.4599996469915 1852
16.4799996465445 1882
16.4999996460974 1853
16.5199996456504 1934
16.5399996452034 1816
16.5599996447563 1870
16.5799996443093 1936
16.5999996438622 1923
16.6199996434152 1890
16.6399996429682 1876
16.6599996425211 1993
16.6799996420741 1930
16.6999996416271 1919
16.71999964118 1945
16.739999640733 1907
16.759999640286 1914
16.7799996398389 1941
16.7999996393919 1912
16.8199996389449 1883
16.8399996384978 1959
16.8599996380508 1952
16.8799996376038 1934
16.8999996371567 1964
16.9199996367097 1956
16.9399996362627 2016
16.9599996358156 2040
16.9799996353686 2053
16.9999996349216 2081
17.0199996344745 2126
17.0399996340275 2030
17.0599996335804 2018
17.0799996331334 2026
17.0999996326864 2148
17.1199996322393 2106
17.1399996317923 2109
17.1599996313453 2182
17.1799996308982 2225
17.1999996304512 2243
17.2199996300042 2246
17.2399996295571 2247
17.2599996291101 2169
17.2799996286631 2101
17.299999628216 2101
17.319999627769 2081
17.339999627322 2174
17.3599996268749 2048
17.3799996264279 2123
17.3999996259809 2103
17.4199996255338 2129
17.4399996250868 2124
17.4599996246398 2116
17.4799996241927 2219
17.4999996237457 2211
17.5199996232986 2198
17.5399996228516 2189
17.5599996224046 2216
17.5799996219575 2200
17.5999996215105 2229
17.6199996210635 2203
17.6399996206164 2256
17.6599996201694 2184
17.6799996197224 2278
17.6999996192753 2217
17.7199996188283 2238
17.7399996183813 2337
17.7599996179342 2293
17.7799996174872 2277
17.7999996170402 2281
17.8199996165931 2321
17.8399996161461 2353
17.8599996156991 2267
17.879999615252 2242
17.899999614805 2358
17.9199996143579 2287
17.9399996139109 2350
17.9599996134639 2382
17.9799996130168 2353
17.9999996125698 2339
18.0199996121228 2466
18.0399996116757 2346
18.0599996112287 2424
18.0799996107817 2362
18.0999996103346 2382
18.1199996098876 2472
18.1399996094406 2333
18.1599996089935 2367
18.1799996085465 2354
18.1999996080995 2408
18.2199996076524 2411
18.2399996072054 2374
18.2599996067584 2493
18.2799996063113 2418
18.2999996058643 2527
18.3199996054173 2451
18.3399996049702 2468
18.3599996045232 2432
18.3799996040761 2489
18.3999996036291 2504
18.4199996031821 2428
18.439999602735 2452
18.459999602288 2560
18.479999601841 2561
18.4999996013939 2568
18.5199996009469 2526
18.5399996004999 2519
18.5599996000528 2492
18.5799995996058 2566
18.5999995991588 2629
18.6199995987117 2504
18.6399995982647 2468
18.6599995978177 2536
18.6799995973706 2509
18.6999995969236 2514
18.7199995964766 2594
18.7399995960295 2530
18.7599995955825 2597
18.7799995951354 2602
18.7999995946884 2567
18.8199995942414 2588
18.8399995937943 2599
18.8599995933473 2633
18.8799995929003 2622
18.8999995924532 2635
18.9199995920062 2697
18.9399995915592 2734
18.9599995911121 2586
18.9799995906651 2571
18.9999995902181 2664
19.019999589771 2609
19.039999589324 2680
19.059999588877 2667
19.0799995884299 2640
19.0999995879829 2726
19.1199995875359 2709
19.1399995870888 2734
19.1599995866418 2736
19.1799995861948 2765
19.1999995857477 2791
19.2199995853007 2814
19.2399995848536 2746
19.2599995844066 2686
19.2799995839596 2773
19.2999995835125 2774
19.3199995830655 2776
19.3399995826185 2765
19.3599995821714 2827
19.3799995817244 2836
19.3999995812774 2752
19.4199995808303 2821
19.4399995803833 2873
19.4599995799363 2858
19.4799995794892 2850
19.4999995790422 2932
19.5199995785952 2979
19.5399995781481 2987
19.5599995777011 2992
19.5799995772541 3138
19.599999576807 3444
19.61999957636 3409
19.639999575913 3430
19.6599995754659 3266
19.6799995750189 3288
19.6999995745718 3055
19.7199995741248 2884
19.7399995736778 3017
19.7599995732307 2999
19.7799995727837 2900
19.7999995723367 2952
19.8199995718896 3217
19.8399995714426 3293
19.8599995709956 3395
19.8799995705485 3663
19.8999995701015 3832
19.9199995696545 3755
19.9399995692074 3542
19.9599995687604 3194
19.9799995683134 2978
19.9999995678663 2939
20.0199995674193 2874
20.0399995669723 2874
20.0599995665252 2893
20.0799995660782 2870
20.0999995656312 2935
20.1199995651841 2789
20.1399995647371 2867
20.15999956429 2813
20.179999563843 2929
20.199999563396 2899
20.2199995629489 2845
20.2399995625019 2906
20.2599995620549 2824
20.2799995616078 2901
20.2999995611608 2836
20.3199995607138 2903
20.3399995602667 2879
20.3599995598197 2899
20.3799995593727 2881
20.3999995589256 2761
20.4199995584786 2850
20.4399995580316 2883
20.4599995575845 2884
20.4799995571375 2793
20.4999995566905 2837
20.5199995562434 2996
20.5399995557964 2914
20.5599995553494 2892
20.5799995549023 2823
20.5999995544553 2962
20.6199995540082 2876
20.6399995535612 2890
20.6599995531142 2820
20.6799995526671 2817
20.6999995522201 2775
20.7199995517731 2879
20.739999551326 2968
20.759999550879 2963
20.779999550432 2871
20.7999995499849 2930
20.8199995495379 2847
20.8399995490909 2854
20.8599995486438 2875
20.8799995481968 2882
20.8999995477498 2884
20.9199995473027 2800
20.9399995468557 2842
20.9599995464087 2858
20.9799995459616 2866
20.9999995455146 2867
21.0199995450675 2924
21.0399995446205 2890
21.0599995441735 2907
21.0799995437264 2854
21.0999995432794 2847
21.1199995428324 2841
21.1399995423853 2784
21.1599995419383 2793
21.1799995414913 2859
21.1999995410442 2704
21.2199995405972 2878
21.2399995401502 2809
21.2599995397031 2782
21.2799995392561 2920
21.2999995388091 2845
21.319999538362 2851
21.339999537915 2839
21.359999537468 2752
21.3799995370209 2864
21.3999995365739 2809
21.4199995361269 2812
21.4399995356798 2722
21.4599995352328 2869
21.4799995347857 2827
21.4999995343387 2881
21.5199995338917 2816
21.5399995334446 2886
21.5599995329976 2780
21.5799995325506 2803
21.5999995321035 2791
21.6199995316565 2779
21.6399995312095 2931
21.6599995307624 2937
21.6799995303154 2714
21.6999995298684 2818
21.7199995294213 2912
21.7399995289743 3058
21.7599995285273 3042
21.7799995280802 3069
21.7999995276332 2930
21.8199995271862 2921
21.8399995267391 2809
21.8599995262921 2826
21.879999525845 2681
21.899999525398 2763
21.919999524951 2743
21.9399995245039 2709
21.9599995240569 2719
21.9799995236099 2728
21.9999995231628 2825
22.0199995227158 2715
22.0399995222688 2727
22.0599995218217 2711
22.0799995213747 2789
22.0999995209277 2709
22.1199995204806 2677
22.1399995200336 2907
22.1599995195866 2731
22.1799995191395 2776
22.1999995186925 2696
22.2199995182455 2785
22.2399995177984 2743
22.2599995173514 2679
22.2799995169044 2693
22.2999995164573 2814
22.3199995160103 2807
22.3399995155632 2659
22.3599995151162 2742
22.3799995146692 2711
22.3999995142221 2649
22.4199995137751 2716
22.4399995133281 2748
22.459999512881 2678
22.479999512434 2665
22.499999511987 2559
22.5199995115399 2691
22.5399995110929 2674
22.5599995106459 2651
22.5799995101988 2659
22.5999995097518 2618
22.6199995093048 2631
22.6399995088577 2678
22.6599995084107 2654
22.6799995079637 2605
22.6999995075166 2672
22.7199995070696 2610
22.7399995066226 2545
22.7599995061755 2669
22.7799995057285 2659
22.7999995052814 2685
22.8199995048344 2684
22.8399995043874 2627
22.8599995039403 2629
22.8799995034933 2598
22.8999995030463 2552
22.9199995025992 2522
22.9399995021522 2530
22.9599995017052 2587
22.9799995012581 2644
22.9999995008111 2664
23.0199995003641 2614
23.039999499917 2594
23.05999949947 2717
23.079999499023 2611
23.0999994985759 2507
23.1199994981289 2601
23.1399994976819 2606
23.1599994972348 2565
23.1799994967878 2563
23.1999994963408 2476
23.2199994958937 2514
23.2399994954467 2479
23.2599994949996 2504
23.2799994945526 2577
23.2999994941056 2546
23.3199994936585 2494
23.3399994932115 2497
23.3599994927645 2548
23.3799994923174 2540
23.3999994918704 2543
23.4199994914234 2518
23.4399994909763 2468
23.4599994905293 2536
23.4799994900823 2513
23.4999994896352 2482
23.5199994891882 2485
23.5399994887412 2563
23.5599994882941 2519
23.5799994878471 2539
23.5999994874001 2528
23.619999486953 2547
23.639999486506 2656
23.659999486059 2793
23.6799994856119 2994
23.6999994851649 3104
23.7199994847178 3214
23.7399994842708 3011
23.7599994838238 3020
23.7799994833767 2797
23.7999994829297 2733
23.8199994824827 2465
23.8399994820356 2412
23.8599994815886 2541
23.8799994811416 2487
23.8999994806945 2395
23.9199994802475 2434
23.9399994798005 2541
23.9599994793534 2569
23.9799994789064 2448
23.9999994784594 2442
24.0199994780123 2475
24.0399994775653 2490
24.0599994771183 2420
24.0799994766712 2316
24.0999994762242 2390
24.1199994757771 2329
24.1399994753301 2310
24.1599994748831 2391
24.179999474436 2400
24.199999473989 2321
24.219999473542 2288
24.2399994730949 2385
24.2599994726479 2248
24.2799994722009 2264
24.2999994717538 2312
24.3199994713068 2305
24.3399994708598 2347
24.3599994704127 2385
24.3799994699657 2299
24.3999994695187 2285
24.4199994690716 2330
24.4399994686246 2301
24.4599994681776 2282
24.4799994677305 2278
24.4999994672835 2333
24.5199994668365 2222
24.5399994663894 2285
24.5599994659424 2381
24.5799994654953 2249
24.5999994650483 2365
24.6199994646013 2270
24.6399994641542 2323
24.6599994637072 2239
24.6799994632602 2404
24.6999994628131 2313
24.7199994623661 2300
24.7399994619191 2286
24.759999461472 2413
24.779999461025 2441
24.799999460578 2417
24.8199994601309 2492
24.8399994596839 2631
24.8599994592369 2735
24.8799994587898 2695
24.8999994583428 2648
24.9199994578958 2474
24.9399994574487 2429
24.9599994570017 2387
24.9799994565547 2253
24.9999994561076 2181
25.0199994556606 2279
25.0399994552135 2128
25.0599994547665 2308
25.0799994543195 2263
25.0999994538724 2195
25.1199994534254 2197
25.1399994529784 2138
25.1599994525313 2185
25.1799994520843 2166
25.1999994516373 2256
25.2199994511902 2165
25.2399994507432 2212
25.2599994502962 2185
25.2799994498491 2164
25.2999994494021 2216
25.3199994489551 2214
25.339999448508 2257
25.359999448061 2298
25.379999447614 2165
25.3999994471669 2253
25.4199994467199 2196
25.4399994462729 2231
25.4599994458258 2371
25.4799994453788 2474
25.4999994449317 2668
25.5199994444847 2836
25.5399994440377 2962
25.5599994435906 2659
25.5799994431436 2671
25.5999994426966 2524
25.6199994422495 2405
25.6399994418025 2249
25.6599994413555 2201
25.6799994409084 2203
25.6999994404614 2115
25.7199994400144 2041
25.7399994395673 2075
25.7599994391203 2118
25.7799994386733 2134
25.7999994382262 2006
25.8199994377792 2067
25.8399994373322 2137
25.8599994368851 2059
25.8799994364381 2117
25.899999435991 2135
25.919999435544 2021
25.939999435097 2161
25.9599994346499 2080
25.9799994342029 2034
25.9999994337559 2107
26.0199994333088 2035
26.0399994328618 2041
26.0599994324148 2064
26.0799994319677 2082
26.0999994315207 2042
26.1199994310737 2031
26.1399994306266 2093
26.1599994301796 2075
26.1799994297326 2106
26.1999994292855 2087
26.2199994288385 2140
26.2399994283915 2026
26.2599994279444 2063
26.2799994274974 2046
26.2999994270504 2045
26.3199994266033 2047
26.3399994261563 2085
26.3599994257092 1975
26.3799994252622 2023
26.3999994248152 2049
26.4199994243681 2013
26.4399994239211 2118
26.4599994234741 2054
26.479999423027 2058
26.49999942258 2094
26.519999422133 2116
26.5399994216859 2205
26.5599994212389 2236
26.5799994207919 2335
26.5999994203448 2490
26.6199994198978 2562
26.6399994194508 2379
26.6599994190037 2292
26.6799994185567 2299
26.6999994181097 2107
26.7199994176626 2056
26.7399994172156 2025
26.7599994167686 2000
26.7799994163215 1942
26.7999994158745 1939
26.8199994154274 1937
26.8399994149804 1989
26.8599994145334 2022
26.8799994140863 1963
26.8999994136393 1995
26.9199994131923 2039
26.9399994127452 1967
26.9599994122982 2042
26.9799994118512 1942
26.9999994114041 1916
27.0199994109571 1999
27.0399994105101 2087
27.059999410063 1965
27.079999409616 1994
27.099999409169 1963
27.1199994087219 1962
27.1399994082749 1905
27.1599994078279 1850
27.1799994073808 1974
27.1999994069338 1971
27.2199994064867 1981
27.2399994060397 2070
27.2599994055927 1999
27.2799994051456 1976
27.2999994046986 2029
27.3199994042516 1989
27.3399994038045 2079
27.3599994033575 2074
27.3799994029105 2247
27.3999994024634 2269
27.4199994020164 2486
27.4399994015694 2546
27.4599994011223 2465
27.4799994006753 2294
27.4999994002283 2248
27.5199993997812 2129
27.5399993993342 2105
27.5599993988872 1932
27.5799993984401 1949
27.5999993979931 1938
27.6199993975461 1997
27.639999397099 1935
27.659999396652 1955
27.6799993962049 1906
27.6999993957579 1897
27.7199993953109 1896
27.7399993948638 1879
27.7599993944168 1950
27.7799993939698 1896
27.7999993935227 1870
27.8199993930757 1896
27.8399993926287 1972
27.8599993921816 1919
27.8799993917346 1934
27.8999993912876 1894
27.9199993908405 1883
27.9399993903935 1797
27.9599993899465 1907
27.9799993894994 1897
27.9999993890524 1803
28.0199993886054 1864
28.0399993881583 1863
28.0599993877113 1875
28.0799993872643 1900
28.0999993868172 1889
28.1199993863702 1935
28.1399993859231 1947
28.1599993854761 1901
28.1799993850291 1830
28.199999384582 1962
28.219999384135 2064
28.239999383688 2075
28.2599993832409 2099
28.2799993827939 2075
28.2999993823469 2013
28.3199993818998 1949
28.3399993814528 1962
28.3599993810058 1904
28.3799993805587 1913
28.3999993801117 1890
28.4199993796647 1859
28.4399993792176 1924
28.4599993787706 1906
28.4799993783236 1781
28.4999993778765 1856
28.5199993774295 1910
28.5399993769825 1856
28.5599993765354 1805
28.5799993760884 1807
28.5999993756413 1891
28.6199993751943 1917
28.6399993747473 1860
28.6599993743002 1829
28.6799993738532 1910
28.6999993734062 1924
28.7199993729591 1918
28.7399993725121 1977
28.7599993720651 1950
28.779999371618 2003
28.799999371171 2124
28.819999370724 2152
28.8399993702769 2331
28.8599993698299 2317
28.8799993693829 2187
28.8999993689358 2116
28.9199993684888 2050
28.9399993680418 2129
28.9599993675947 2058
28.9799993671477 2054
28.9999993667006 2063
29.0199993662536 2169
29.0399993658066 2315
29.0599993653595 2154
29.0799993649125 2114
29.0999993644655 2039
29.1199993640184 2117
29.1399993635714 1916
29.1599993631244 1917
29.1799993626773 1919
29.1999993622303 1759
29.2199993617833 1811
29.2399993613362 1843
29.2599993608892 1789
29.2799993604422 1774
29.2999993599951 1781
29.3199993595481 1715
29.3399993591011 1738
29.359999358654 1752
29.379999358207 1767
29.39999935776 1785
29.4199993573129 1813
29.4399993568659 1910
29.4599993564188 1778
29.4799993559718 1784
29.4999993555248 1820
29.5199993550777 1814
29.5399993546307 1763
29.5599993541837 1767
29.5799993537366 1729
29.5999993532896 1754
29.6199993528426 1805
29.6399993523955 1796
29.6599993519485 1821
29.6799993515015 1810
29.6999993510544 1676
29.7199993506074 1805
29.7399993501604 1740
29.7599993497133 1814
29.7799993492663 1704
29.7999993488193 1717
29.8199993483722 1845
29.8399993479252 1737
29.8599993474782 1783
29.8799993470311 1732
29.8999993465841 1782
29.919999346137 1776
29.93999934569 1731
29.959999345243 1794
29.9799993447959 1810
29.9999993443489 1769
