2.79999995231628 5617
2.81999995186925 4908
2.83999995142221 4417
2.85999995097518 4022
2.87999995052814 3716
2.89999995008111 3373
2.91999994963407 3035
2.93999994918704 2869
2.95999994874001 2522
2.97999994829297 2398
2.99999994784594 2274
3.0199999473989 2018
3.03999994695187 1911
3.05999994650483 1776
3.0799999460578 1701
3.09999994561076 1556
3.11999994516373 1505
3.13999994471669 1518
3.15999994426966 1469
3.17999994382262 1427
3.19999994337559 1475
3.21999994292855 1389
3.23999994248152 1333
3.25999994203448 1385
3.27999994158745 1333
3.29999994114041 1407
3.31999994069338 1312
3.33999994024634 1333
3.35999993979931 1354
3.37999993935227 1221
3.39999993890524 1271
3.4199999384582 1237
3.43999993801117 1238
3.45999993756413 1257
3.4799999371171 1157
3.49999993667006 1246
3.51999993622303 1243
3.539999935776 1302
3.55999993532896 1250
3.57999993488193 1143
3.59999993443489 1173
3.61999993398786 1163
3.63999993354082 1151
3.65999993309379 1146
3.67999993264675 1150
3.69999993219972 1126
3.71999993175268 1131
3.73999993130565 1110
3.75999993085861 1058
3.77999993041158 1017
3.79999992996454 1043
3.81999992951751 1069
3.83999992907047 1031
3.85999992862344 1031
3.8799999281764 1002
3.89999992772937 1038
3.91999992728233 988
3.9399999268353 958
3.95999992638826 961
3.97999992594123 1004
3.99999992549419 983
4.01999992504716 990
4.03999992460012 921
4.05999992415309 955
4.07999992370605 916
4.09999992325902 920
4.11999992281199 915
4.13999992236495 918
4.15999992191792 914
4.17999992147088 903
4.19999992102385 953
4.21999992057681 936
4.23999992012978 918
4.25999991968274 882
4.27999991923571 879
4.29999991878867 953
4.31999991834164 896
4.3399999178946 857
4.35999991744757 880
4.37999991700053 823
4.3999999165535 809
4.41999991610646 884
4.43999991565943 856
4.45999991521239 889
4.47999991476536 910
4.49999991431832 819
4.51999991387129 825
4.53999991342425 856
4.55999991297722 811
4.57999991253018 820
4.59999991208315 882
4.61999991163611 847
4.63999991118908 847
4.65999991074204 817
4.67999991029501 852
4.69999990984798 897
4.71999990940094 811
4.73999990895391 788
4.75999990850687 789
4.77999990805984 841
4.7999999076128 826
4.81999990716577 846
4.83999990671873 803
4.8599999062717 863
4.87999990582466 834
4.89999990537763 846
4.91999990493059 817
4.93999990448356 804
4.95999990403652 804
4.97999990358949 793
4.99999990314245 799
5.01999990269542 774
5.03999990224838 850
5.05999990180135 802
5.07999990135431 764
5.09999990090728 772
5.11999990046024 796
5.13999990001321 779
5.15999989956617 816
5.17999989911914 855
5.1999998986721 831
5.21999989822507 839
5.23999989777803 811
5.259999897331 811
5.27999989688396 903
5.29999989643693 848
5.3199998959899 868
5.33999989554286 840
5.35999989509583 833
5.37999989464879 865
5.39999989420176 863
5.41999989375472 876
5.43999989330769 929
5.45999989286065 938
5.47999989241362 880
5.49999989196658 976
5.51999989151955 968
5.53999989107251 987
5.55999989062548 1063
5.57999989017844 1110
5.59999988973141 1083
5.61999988928437 1073
5.63999988883734 1134
5.6599998883903 1285
5.67999988794327 1332
5.69999988749623 1458
5.7199998870492 1522
5.73999988660216 1650
5.75999988615513 1648
5.77999988570809 1638
5.79999988526106 1596
5.81999988481402 1650
5.83999988436699 1652
5.85999988391995 1671
5.87999988347292 1538
5.89999988302588 1292
5.91999988257885 919
5.93999988213181 786
5.95999988168478 682
5.97999988123775 751
5.99999988079071 736
6.01999988034368 702
6.03999987989664 705
6.05999987944961 688
6.07999987900257 706
6.09999987855554 657
6.1199998781085 693
6.13999987766147 710
6.15999987721443 652
6.1799998767674 649
6.19999987632036 697
6.21999987587333 687
6.23999987542629 669
6.25999987497926 705
6.27999987453222 694
6.29999987408519 700
6.31999987363815 640
6.33999987319112 711
6.35999987274408 718
6.37999987229705 730
6.39999987185001 732
6.41999987140298 745
6.43999987095594 689
6.45999987050891 755
6.47999987006187 736
6.49999986961484 837
6.5199998691678 797
6.53999986872077 827
6.55999986827374 936
6.5799998678267 961
6.59999986737967 1019
6.61999986693263 1042
6.6399998664856 1012
6.65999986603856 993
6.67999986559153 1015
6.69999986514449 1125
6.71999986469746 1115
6.73999986425042 1054
6.75999986380339 1033
6.77999986335635 871
6.79999986290932 710
6.81999986246228 649
6.83999986201525 618
6.85999986156821 611
6.87999986112118 618
6.89999986067414 581
6.91999986022711 574
6.93999985978007 591
6.95999985933304 553
6.979999858886 585
6.99999985843897 552
7.01999985799193 563
7.0399998575449 570
7.05999985709786 618
7.07999985665083 602
7.09999985620379 546
7.11999985575676 554
7.13999985530973 552
7.15999985486269 551
7.17999985441566 554
7.19999985396862 557
7.21999985352159 581
7.23999985307455 600
7.25999985262752 540
7.27999985218048 514
7.29999985173345 571
7.31999985128641 584
7.33999985083938 528
7.35999985039234 545
7.37999984994531 564
7.39999984949827 546
7.41999984905124 545
7.4399998486042 586
7.45999984815717 585
7.47999984771013 550
7.4999998472631 549
7.51999984681606 533
7.53999984636903 533
7.55999984592199 541
7.57999984547496 585
7.59999984502792 584
7.61999984458089 571
7.63999984413385 548
7.65999984368682 533
7.67999984323978 546
7.69999984279275 507
7.71999984234572 544
7.73999984189868 516
7.75999984145165 550
7.77999984100461 523
7.79999984055758 542
7.81999984011054 541
7.83999983966351 547
7.85999983921647 546
7.87999983876944 552
7.8999998383224 504
7.91999983787537 562
7.93999983742833 577
7.9599998369813 530
7.97999983653426 527
7.99999983608723 517
8.01999983564019 533
8.03999983519316 510
8.05999983474612 545
8.07999983429909 485
8.09999983385205 534
8.11999983340502 550
8.13999983295798 529
8.15999983251095 531
8.17999983206391 515
8.19999983161688 537
8.21999983116984 538
8.23999983072281 506
8.25999983027577 523
8.27999982982874 534
8.2999998293817 499
8.31999982893467 486
8.33999982848764 503
8.3599998280406 538
8.37999982759357 508
8.39999982714653 510
8.4199998266995 527
8.43999982625246 529
8.45999982580543 507
8.47999982535839 483
8.49999982491136 484
8.51999982446432 497
8.53999982401729 499
8.55999982357025 489
8.57999982312322 503
8.59999982267618 508
8.61999982222915 500
8.63999982178211 511
8.65999982133508 526
8.67999982088804 502
8.69999982044101 480
8.71999981999397 474
8.73999981954694 518
8.7599998190999 478
8.77999981865287 543
8.79999981820583 518
8.8199998177588 492
8.83999981731176 464
8.85999981686473 492
8.87999981641769 531
8.89999981597066 453
8.91999981552362 513
8.93999981507659 498
8.95999981462956 462
8.97999981418252 492
8.99999981373549 483
9.01999981328845 518
9.03999981284142 546
9.05999981239438 517
9.07999981194735 508
9.09999981150031 527
9.11999981105328 488
9.13999981060624 536
9.15999981015921 533
9.17999980971217 566
9.19999980926514 532
9.2199998088181 533
9.23999980837107 596
9.25999980792403 618
9.279999807477 641
9.29999980702996 649
9.31999980658293 714
9.33999980613589 733
9.35999980568886 739
9.37999980524182 729
9.39999980479479 781
9.41999980434775 737
9.43999980390072 785
9.45999980345368 793
9.47999980300665 817
9.49999980255961 744
9.51999980211258 679
9.53999980166554 553
9.55999980121851 553
9.57999980077148 518
9.59999980032444 512
9.61999979987741 473
9.63999979943037 505
9.65999979898334 506
9.6799997985363 441
9.69999979808927 466
9.71999979764223 483
9.7399997971952 476
9.75999979674816 456
9.77999979630113 460
9.79999979585409 500
9.81999979540706 491
9.83999979496002 493
9.85999979451299 502
9.87999979406595 482
9.89999979361892 483
9.91999979317188 499
9.93999979272485 501
9.95999979227781 451
9.97999979183078 472
9.99999979138374 461
10.0199997909367 451
10.0399997904897 437
10.0599997900426 464
10.0799997895956 473
10.0999997891486 444
10.1199997887015 465
10.1399997882545 433
10.1599997878075 457
10.1799997873604 449
10.1999997869134 503
10.2199997864664 453
10.2399997860193 477
10.2599997855723 484
10.2799997851253 467
10.2999997846782 491
10.3199997842312 474
10.3399997837842 487
10.3599997833371 486
10.3799997828901 421
10.399999782443 478
10.419999781996 481
10.439999781549 452
10.4599997811019 480
10.4799997806549 492
10.4999997802079 467
10.5199997797608 492
10.5399997793138 477
10.5599997788668 440
10.5799997784197 461
10.5999997779727 469
10.6199997775257 473
10.6399997770786 423
10.6599997766316 478
10.6799997761846 447
10.6999997757375 486
10.7199997752905 469
10.7399997748435 461
10.7599997743964 477
10.7799997739494 517
10.7999997735024 507
10.8199997730553 564
10.8399997726083 532
10.8599997721612 547
10.8799997717142 577
10.8999997712672 600
10.9199997708201 631
10.9399997703731 644
10.9599997699261 634
10.979999769479 738
10.999999769032 702
11.019999768585 772
11.0399997681379 702
11.0599997676909 720
11.0799997672439 727
11.0999997667968 739
11.1199997663498 624
11.1399997659028 540
11.1599997654557 481
11.1799997650087 490
11.1999997645617 507
11.2199997641146 505
11.2399997636676 465
11.2599997632205 442
11.2799997627735 503
11.2999997623265 478
11.3199997618794 527
11.3399997614324 510
11.3599997609854 496
11.3799997605383 531
11.3999997600913 545
11.4199997596443 573
11.4399997591972 595
11.4599997587502 585
11.4799997583032 562
11.4999997578561 548
11.5199997574091 550
11.5399997569621 563
11.559999756515 565
11.579999756068 583
11.599999755621 584
11.6199997551739 489
11.6399997547269 489
11.6599997542799 466
11.6799997538328 434
11.6999997533858 440
11.7199997529387 433
11.7399997524917 464
11.7599997520447 439
11.7799997515976 424
11.7999997511506 438
11.8199997507036 423
11.8399997502565 465
11.8599997498095 448
11.8799997493625 433
11.8999997489154 422
11.9199997484684 414
11.9399997480214 448
11.9599997475743 499
11.9799997471273 457
11.9999997466803 441
12.0199997462332 442
12.0399997457862 469
12.0599997453392 437
12.0799997448921 454
12.0999997444451 421
12.1199997439981 423
12.139999743551 444
12.159999743104 414
12.1799997426569 463
12.1999997422099 441
12.2199997417629 445
12.2399997413158 449
12.2599997408688 458
12.2799997404218 425
12.2999997399747 414
12.3199997395277 408
12.3399997390807 436
12.3599997386336 435
12.3799997381866 440
12.3999997377396 431
12.4199997372925 424
12.4399997368455 413
12.4599997363985 450
12.4799997359514 428
12.4999997355044 459
12.5199997350574 453
12.5399997346103 420
12.5599997341633 469
12.5799997337162 435
12.5999997332692 487
12.6199997328222 381
12.6399997323751 452
12.6599997319281 423
12.6799997314811 411
12.699999731034 438
12.719999730587 391
12.73999973014 425
12.7599997296929 457
12.7799997292459 470
12.7999997287989 444
12.8199997283518 447
12.8399997279048 415
12.8599997274578 459
12.8799997270107 401
12.8999997265637 466
12.9199997261167 426
12.9399997256696 481
12.9599997252226 436
12.9799997247756 434
12.9999997243285 463
13.0199997238815 438
13.0399997234344 481
13.0599997229874 447
13.0799997225404 407
13.0999997220933 456
13.1199997216463 492
13.1399997211993 461
13.1599997207522 448
13.1799997203052 437
13.1999997198582 462
13.2199997194111 463
13.2399997189641 464
13.2599997185171 489
13.27999971807 470
13.299999717623 472
13.319999717176 478
13.3399997167289 473
13.3599997162819 525
13.3799997158349 471
13.3999997153878 461
13.4199997149408 469
13.4399997144938 419
13.4599997140467 444
13.4799997135997 430
13.4999997131526 457
13.5199997127056 457
13.5399997122586 459
13.5599997118115 500
13.5799997113645 458
13.5999997109175 449
13.6199997104704 476
13.6399997100234 458
13.6599997095764 428
13.6799997091293 485
13.6999997086823 474
13.7199997082353 446
13.7399997077882 464
13.7599997073412 431
13.7799997068942 442
13.7999997064471 437
13.8199997060001 451
13.8399997055531 432
13.859999705106 478
13.879999704659 485
13.899999704212 463
13.9199997037649 426
13.9399997033179 485
13.9599997028708 410
13.9799997024238 472
13.9999997019768 436
14.0199997015297 462
14.0399997010827 448
14.0599997006357 475
14.0799997001886 447
14.0999996997416 442
14.1199996992946 462
14.1399996988475 481
14.1599996984005 445
14.1799996979535 465
14.1999996975064 496
14.2199996970594 449
14.2399996966124 470
14.2599996961653 458
14.2799996957183 461
14.2999996952713 473
14.3199996948242 521
14.3399996943772 521
14.3599996939301 484
14.3799996934831 466
14.3999996930361 475
14.419999692589 467
14.439999692142 516
14.459999691695 496
14.4799996912479 511
14.4999996908009 549
14.5199996903539 541
14.5399996899068 499
14.5599996894598 511
14.5799996890128 514
14.5999996885657 498
14.6199996881187 483
14.6399996876717 470
14.6599996872246 447
14.6799996867776 469
14.6999996863306 451
14.7199996858835 435
14.7399996854365 475
14.7599996849895 532
14.7799996845424 485
14.7999996840954 456
14.8199996836483 471
14.8399996832013 445
14.8599996827543 490
14.8799996823072 488
14.8999996818602 473
14.9199996814132 487
14.9399996809661 532
14.9599996805191 495
14.9799996800721 517
14.999999679625 484
15.019999679178 521
15.039999678731 475
15.0599996782839 474
15.0799996778369 476
15.0999996773899 500
15.1199996769428 495
15.1399996764958 515
15.1599996760488 482
15.1799996756017 476
15.1999996751547 486
15.2199996747077 500
15.2399996742606 533
15.2599996738136 480
15.2799996733665 524
15.2999996729195 463
15.3199996724725 505
15.3399996720254 547
15.3599996715784 512
15.3799996711314 481
15.3999996706843 525
15.4199996702373 482
15.4399996697903 461
15.4599996693432 487
15.4799996688962 499
15.4999996684492 498
15.5199996680021 567
15.5399996675551 491
15.5599996671081 511
15.579999666661 499
15.599999666214 516
15.619999665767 505
15.6399996653199 535
15.6599996648729 486
15.6799996644258 491
15.6999996639788 491
15.7199996635318 518
15.7399996630847 533
15.7599996626377 471
15.7799996621907 519
15.7999996617436 540
15.8199996612966 469
15.8399996608496 531
15.8599996604025 509
15.8799996599555 512
15.8999996595085 543
15.9199996590614 497
15.9399996586144 517
15.9599996581674 512
15.9799996577203 546
15.9999996572733 576
16.0199996568263 522
16.0399996563792 541
16.0599996559322 535
16.0799996554852 506
16.0999996550381 528
16.1199996545911 553
16.139999654144 485
16.159999653697 497
16.17999965325 531
16.1999996528029 503
16.2199996523559 532
16.2399996519089 548
16.2599996514618 585
16.2799996510148 588
16.2999996505678 550
16.3199996501207 504
16.3399996496737 510
16.3599996492267 534
16.3799996487796 602
16.3999996483326 542
16.4199996478856 552
16.4399996474385 522
16.4599996469915 511
16.4799996465445 552
16.4999996460974 505
16.5199996456504 562
16.5399996452034 529
16.5599996447563 538
16.5799996443093 534
16.5999996438622 585
16.6199996434152 585
16.6399996429682 526
16.6599996425211 538
16.6799996420741 528
16.6999996416271 585
16.71999964118 576
16.739999640733 575
16.759999640286 552
16.7799996398389 574
16.7999996393919 595
16.8199996389449 537
16.8399996384978 565
16.8599996380508 523
16.8799996376038 577
16.8999996371567 598
16.9199996367097 578
16.9399996362627 616
16.9599996358156 574
16.9799996353686 666
16.9999996349216 555
17.0199996344745 604
17.0399996340275 584
17.0599996335804 577
17.0799996331334 571
17.0999996326864 633
17.1199996322393 607
17.1399996317923 583
17.1599996313453 578
17.1799996308982 654
17.1999996304512 686
17.2199996300042 692
17.2399996295571 628
17.2599996291101 657
17.2799996286631 633
17.299999628216 688
17.319999627769 641
17.339999627322 641
17.3599996268749 628
17.3799996264279 592
17.3999996259809 591
17.4199996255338 635
17.4399996250868 631
17.4599996246398 612
17.4799996241927 626
17.4999996237457 593
17.5199996232986 590
17.5399996228516 645
17.5599996224046 620
17.5799996219575 606
17.5999996215105 615
17.6199996210635 618
17.6399996206164 613
17.6599996201694 614
17.6799996197224 624
17.6999996192753 639
17.7199996188283 620
17.7399996183813 617
17.7599996179342 635
17.7799996174872 611
17.7999996170402 650
17.8199996165931 604
17.8399996161461 626
17.8599996156991 698
17.879999615252 621
17.899999614805 633
17.9199996143579 635
17.9399996139109 651
17.9599996134639 635
17.9799996130168 642
17.9999996125698 635
18.0199996121228 650
18.0399996116757 646
18.0599996112287 658
18.0799996107817 660
18.0999996103346 696
18.1199996098876 648
18.1399996094406 692
18.1599996089935 650
18.1799996085465 636
18.1999996080995 627
18.2199996076524 653
18.2399996072054 730
18.2599996067584 673
18.2799996063113 642
18.2999996058643 673
18.3199996054173 686
18.3399996049702 675
18.3599996045232 670
18.3799996040761 708
18.3999996036291 684
18.4199996031821 667
18.439999602735 709
18.459999602288 638
18.479999601841 681
18.4999996013939 665
18.5199996009469 670
18.5399996004999 698
18.5599996000528 612
18.5799995996058 706
18.5999995991588 698
18.6199995987117 688
18.6399995982647 693
18.6599995978177 669
18.6799995973706 666
18.6999995969236 667
18.7199995964766 693
18.7399995960295 669
18.7599995955825 710
18.7799995951354 732
18.7999995946884 698
18.8199995942414 718
18.8399995937943 735
18.8599995933473 706
18.8799995929003 724
18.8999995924532 686
18.9199995920062 710
18.9399995915592 667
18.9599995911121 726
18.9799995906651 714
18.9999995902181 729
19.019999589771 738
19.039999589324 690
19.059999588877 710
19.0799995884299 736
19.0999995879829 744
19.1199995875359 746
19.1399995870888 739
19.1599995866418 758
19.1799995861948 723
19.1999995857477 749
19.2199995853007 748
19.2399995848536 734
19.2599995844066 763
19.2799995839596 775
19.2999995835125 769
19.3199995830655 808
19.3399995826185 732
19.3599995821714 719
19.3799995817244 717
19.3999995812774 713
19.4199995808303 737
19.4399995803833 774
19.4599995799363 801
19.4799995794892 798
19.4999995790422 803
19.5199995785952 813
19.5399995781481 844
19.5599995777011 830
19.5799995772541 844
19.599999576807 869
19.61999957636 888
19.639999575913 926
19.6599995754659 948
19.6799995750189 965
19.6999995745718 933
19.7199995741248 947
19.7399995736778 919
19.7599995732307 911
19.7799995727837 875
19.7999995723367 873
19.8199995718896 910
19.8399995714426 997
19.8599995709956 910
19.8799995705485 939
19.8999995701015 983
19.9199995696545 1041
19.9399995692074 1006
19.9599995687604 1002
19.9799995683134 981
19.9999995678663 975
20.0199995674193 942
20.0399995669723 963
20.0599995665252 884
20.0799995660782 859
20.0999995656312 789
20.1199995651841 793
20.1399995647371 869
20.15999956429 808
20.179999563843 808
20.199999563396 785
20.2199995629489 817
20.2399995625019 822
20.2599995620549 800
20.2799995616078 829
20.2999995611608 807
20.3199995607138 842
20.3399995602667 788
20.3599995598197 807
20.3799995593727 793
20.3999995589256 761
20.4199995584786 812
20.4399995580316 789
20.4599995575845 823
20.4799995571375 773
20.4999995566905 807
20.5199995562434 829
20.5399995557964 870
20.5599995553494 814
20.5799995549023 807
20.5999995544553 788
20.6199995540082 808
20.6399995535612 783
20.6599995531142 871
20.6799995526671 758
20.6999995522201 819
20.7199995517731 809
20.739999551326 803
20.759999550879 813
20.779999550432 811
20.7999995499849 829
20.8199995495379 811
20.8399995490909 830
20.8599995486438 799
20.8799995481968 817
20.8999995477498 851
20.9199995473027 802
20.9399995468557 795
20.9599995464087 826
20.9799995459616 880
20.9999995455146 853
21.0199995450675 881
21.0399995446205 871
21.0599995441735 825
21.0799995437264 757
21.0999995432794 854
21.1199995428324 862
21.1399995423853 828
21.1599995419383 878
21.1799995414913 860
21.1999995410442 819
21.2199995405972 851
21.2399995401502 870
21.2599995397031 804
21.2799995392561 838
21.2999995388091 875
21.319999538362 840
21.339999537915 823
21.359999537468 835
21.3799995370209 883
21.3999995365739 792
21.4199995361269 876
21.4399995356798 831
21.4599995352328 820
21.4799995347857 859
21.4999995343387 875
21.5199995338917 857
21.5399995334446 885
21.5599995329976 856
21.5799995325506 809
21.5999995321035 830
21.6199995316565 829
21.6399995312095 904
21.6599995307624 862
21.6799995303154 939
21.6999995298684 915
21.7199995294213 894
21.7399995289743 859
21.7599995285273 904
21.7799995280802 881
21.7999995276332 951
21.8199995271862 984
21.8399995267391 901
21.8599995262921 870
21.879999525845 882
21.899999525398 912
21.919999524951 880
21.9399995245039 885
21.9599995240569 873
21.9799995236099 852
21.9999995231628 858
22.0199995227158 904
22.0399995222688 828
22.0599995218217 854
22.0799995213747 899
22.0999995209277 852
22.1199995204806 853
22.1399995200336 886
22.1599995195866 842
22.1799995191395 892
22.1999995186925 919
22.2199995182455 833
22.2399995177984 826
22.2599995173514 854
22.2799995169044 850
22.2999995164573 917
22.3199995160103 863
22.3399995155632 846
22.3599995151162 814
22.3799995146692 908
22.3999995142221 805
22.4199995137751 880
22.4399995133281 838
22.459999512881 868
22.479999512434 884
22.499999511987 869
22.5199995115399 877
22.5399995110929 849
22.5599995106459 904
22.5799995101988 828
22.5999995097518 922
22.6199995093048 867
22.6399995088577 864
22.6599995084107 865
22.6799995079637 852
22.6999995075166 875
22.7199995070696 849
22.7399995066226 854
22.7599995061755 831
22.7799995057285 848
22.7999995052814 882
22.8199995048344 935
22.8399995043874 868
22.8599995039403 857
22.8799995034933 858
22.8999995030463 880
22.9199995025992 845
22.9399995021522 957
22.9599995017052 885
22.9799995012581 866
22.9999995008111 877
23.0199995003641 904
23.039999499917 930
23.05999949947 929
23.079999499023 889
23.0999994985759 880
23.1199994981289 886
23.1399994976819 888
23.1599994972348 864
23.1799994967878 925
23.1999994963408 872
23.2199994958937 885
23.2399994954467 879
23.2599994949996 882
23.2799994945526 873
23.2999994941056 853
23.3199994936585 860
23.3399994932115 907
23.3599994927645 871
23.3799994923174 860
23.3999994918704 891
23.4199994914234 819
23.4399994909763 855
23.4599994905293 846
23.4799994900823 934
23.4999994896352 877
23.5199994891882 839
23.5399994887412 946
23.5599994882941 885
23.5799994878471 955
23.5999994874001 961
23.619999486953 975
23.639999486506 970
23.659999486059 1026
23.6799994856119 1040
23.6999994851649 1070
23.7199994847178 1026
23.7399994842708 1069
23.7599994838238 1078
23.7799994833767 952
23.7999994829297 1060
23.8199994824827 1072
23.8399994820356 958
23.8599994815886 1003
23.8799994811416 978
23.8999994806945 959
23.9199994802475 947
23.9399994798005 902
23.9599994793534 830
23.9799994789064 887
23.9999994784594 927
24.0199994780123 927
24.0399994775653 932
24.0599994771183 858
24.0799994766712 897
24.0999994762242 912
24.1199994757771 928
24.1399994753301 903
24.1599994748831 869
24.179999474436 832
24.199999473989 870
24.219999473542 880
24.2399994730949 836
24.2599994726479 908
24.2799994722009 838
24.2999994717538 842
24.3199994713068 863
24.3399994708598 850
24.3599994704127 869
24.3799994699657 892
24.3999994695187 842
24.4199994690716 850
24.4399994686246 873
24.4599994681776 862
24.4799994677305 882
24.4999994672835 921
24.5199994668365 870
24.5399994663894 876
24.5599994659424 867
24.5799994654953 820
24.5999994650483 846
24.6199994646013 857
24.6399994641542 817
24.6599994637072 900
24.6799994632602 883
24.6999994628131 879
24.7199994623661 897
24.7399994619191 888
24.759999461472 926
24.779999461025 884
24.799999460578 943
24.8199994601309 939
24.8399994596839 980
24.8599994592369 1020
24.8799994587898 1017
24.8999994583428 1006
24.9199994578958 953
24.9399994574487 975
24.9599994570017 982
24.9799994565547 947
24.9999994561076 930
25.0199994556606 944
25.0399994552135 921
25.0599994547665 879
25.0799994543195 825
25.0999994538724 781
25.1199994534254 913
25.1399994529784 845
25.1599994525313 851
25.1799994520843 851
25.1999994516373 839
25.2199994511902 863
25.2399994507432 883
25.2599994502962 892
25.2799994498491 839
25.2999994494021 865
25.3199994489551 805
25.339999448508 853
25.359999448061 850
25.379999447614 837
25.3999994471669 909
25.4199994467199 970
25.4399994462729 976
25.4599994458258 957
25.4799994453788 1001
25.4999994449317 1007
25.5199994444847 1024
25.5399994440377 1027
25.5599994435906 1017
25.5799994431436 1088
25.5999994426966 1080
25.6199994422495 1117
25.6399994418025 1027
25.6599994413555 992
25.6799994409084 976
25.6999994404614 861
25.7199994400144 836
25.7399994395673 902
25.7599994391203 843
25.7799994386733 866
25.7999994382262 844
25.8199994377792 858
25.8399994373322 842
25.8599994368851 838
25.8799994364381 797
25.899999435991 806
25.919999435544 813
25.939999435097 770
25.9599994346499 818
25.9799994342029 817
25.9999994337559 800
26.0199994333088 853
26.0399994328618 860
26.0599994324148 826
26.0799994319677 818
26.0999994315207 793
26.1199994310737 779
26.1399994306266 818
26.1599994301796 813
26.1799994297326 831
26.1999994292855 870
26.2199994288385 773
26.2399994283915 799
26.2599994279444 849
26.2799994274974 819
26.2999994270504 808
26.3199994266033 804
26.3399994261563 795
26.3599994257092 796
26.3799994252622 753
26.3999994248152 807
26.4199994243681 851
26.4399994239211 881
26.4599994234741 820
26.479999423027 866
26.49999942258 823
26.519999422133 789
26.5399994216859 921
26.5599994212389 909
26.5799994207919 937
26.5999994203448 942
26.6199994198978 890
26.6399994194508 968
26.6599994190037 973
26.6799994185567 940
26.6999994181097 941
26.7199994176626 952
26.7399994172156 913
26.7599994167686 853
26.7799994163215 847
26.7999994158745 820
26.8199994154274 772
26.8399994149804 775
26.8599994145334 781
26.8799994140863 807
26.8999994136393 780
26.9199994131923 792
26.9399994127452 782
26.9599994122982 787
26.9799994118512 832
26.9999994114041 771
27.0199994109571 812
27.0399994105101 826
27.059999410063 844
27.079999409616 803
27.099999409169 786
27.1199994087219 783
27.1399994082749 801
27.1599994078279 779
27.1799994073808 798
27.1999994069338 785
27.2199994064867 782
27.2399994060397 821
27.2599994055927 768
27.2799994051456 831
27.2999994046986 849
27.3199994042516 886
27.3399994038045 838
27.3599994033575 944
27.3799994029105 946
27.3999994024634 932
27.4199994020164 915
27.4399994015694 921
27.4599994011223 952
27.4799994006753 968
27.4999994002283 1003
27.5199993997812 939
27.5399993993342 967
27.5599993988872 890
27.5799993984401 845
27.5999993979931 840
27.6199993975461 811
27.639999397099 818
27.659999396652 837
27.6799993962049 800
27.6999993957579 777
27.7199993953109 792
27.7399993948638 762
27.7599993944168 776
27.7799993939698 785
27.7999993935227 769
27.8199993930757 804
27.8399993926287 747
27.8599993921816 709
27.8799993917346 781
27.8999993912876 746
27.9199993908405 756
27.9399993903935 799
27.9599993899465 784
27.9799993894994 729
27.9999993890524 743
28.0199993886054 831
28.0399993881583 773
28.0599993877113 805
28.0799993872643 749
28.0999993868172 774
28.1199993863702 776
28.1399993859231 792
28.1599993854761 790
28.1799993850291 811
28.199999384582 801
28.219999384135 838
28.239999383688 822
28.2599993832409 809
28.2799993827939 857
28.2999993823469 882
28.3199993818998 844
28.3399993814528 817
28.3599993810058 841
28.3799993805587 784
28.3999993801117 801
28.4199993796647 788
28.4399993792176 786
28.4599993787706 794
28.4799993783236 725
28.4999993778765 760
28.5199993774295 746
28.5399993769825 810
28.5599993765354 830
28.5799993760884 744
28.5999993756413 795
28.6199993751943 777
28.6399993747473 740
28.6599993743002 747
28.6799993738532 823
28.6999993734062 787
28.7199993729591 850
28.7399993725121 792
28.7599993720651 824
28.779999371618 893
28.799999371171 953
28.819999370724 916
28.8399993702769 882
28.8599993698299 908
28.8799993693829 963
28.8999993689358 1001
28.9199993684888 933
28.9399993680418 930
28.9599993675947 951
28.9799993671477 946
28.9999993667006 955
29.0199993662536 971
29.0399993658066 929
29.0599993653595 871
29.0799993649125 919
29.0999993644655 953
29.1199993640184 947
29.1399993635714 923
29.1599993631244 821
29.1799993626773 891
29.1999993622303 797
29.2199993617833 817
29.2399993613362 779
29.2599993608892 781
29.2799993604422 784
29.2999993599951 774
29.3199993595481 708
29.3399993591011 783
29.359999358654 737
29.379999358207 730
29.39999935776 766
29.4199993573129 761
29.4399993568659 722
29.4599993564188 742
29.4799993559718 729
29.4999993555248 750
29.5199993550777 768
29.5399993546307 767
29.5599993541837 826
29.5799993537366 747
29.5999993532896 744
29.6199993528426 800
29.6399993523955 743
29.6599993519485 736
29.6799993515015 770
29.6999993510544 774
29.7199993506074 713
29.7399993501604 760
29.7599993497133 726
29.7799993492663 777
29.7999993488193 752
29.8199993483722 740
29.8399993479252 740
29.8599993474782 825
29.8799993470311 783
29.8999993465841 751
29.919999346137 755
29.93999934569 812
29.959999345243 747
29.9799993447959 765
29.9999993443489 752
