2.79999995231628 5643
2.81999995186925 5328
2.83999995142221 4867
2.85999995097518 4487
2.87999995052814 4016
2.89999995008111 3907
2.91999994963407 3555
2.93999994918704 3239
2.95999994874001 3065
2.97999994829297 2863
2.99999994784594 2603
3.0199999473989 2295
3.03999994695187 2159
3.05999994650483 2068
3.0799999460578 1928
3.09999994561076 1926
3.11999994516373 1852
3.13999994471669 1850
3.15999994426966 1792
3.17999994382262 1724
3.19999994337559 1680
3.21999994292855 1687
3.23999994248152 1734
3.25999994203448 1702
3.27999994158745 1626
3.29999994114041 1623
3.31999994069338 1579
3.33999994024634 1641
3.35999993979931 1537
3.37999993935227 1473
3.39999993890524 1505
3.4199999384582 1523
3.43999993801117 1498
3.45999993756413 1518
3.4799999371171 1571
3.49999993667006 1439
3.51999993622303 1459
3.539999935776 1431
3.55999993532896 1479
3.57999993488193 1450
3.59999993443489 1408
3.61999993398786 1454
3.63999993354082 1441
3.65999993309379 1457
3.67999993264675 1483
3.69999993219972 1474
3.71999993175268 1479
3.73999993130565 1440
3.75999993085861 1405
3.77999993041158 1497
3.79999992996454 1466
3.81999992951751 1482
3.83999992907047 1421
3.85999992862344 1493
3.8799999281764 1552
3.89999992772937 1502
3.91999992728233 1495
3.9399999268353 1576
3.95999992638826 1576
3.97999992594123 1681
3.99999992549419 1732
4.01999992504716 1749
4.03999992460012 1808
4.05999992415309 2006
4.07999992370605 2253
4.09999992325902 2385
4.11999992281199 2360
4.13999992236495 2111
4.15999992191792 1773
4.17999992147088 1562
4.19999992102385 1437
4.21999992057681 1428
4.23999992012978 1333
4.25999991968274 1305
4.27999991923571 1198
4.29999991878867 1265
4.31999991834164 1268
4.3399999178946 1218
4.35999991744757 1185
4.37999991700053 1188
4.3999999165535 1155
4.41999991610646 1090
4.43999991565943 1085
4.45999991521239 1058
4.47999991476536 1033
4.49999991431832 1064
4.51999991387129 1026
4.53999991342425 1053
4.55999991297722 1025
4.57999991253018 1029
4.59999991208315 991
4.61999991163611 1002
4.63999991118908 1049
4.65999991074204 1025
4.67999991029501 1058
4.69999990984798 1054
4.71999990940094 1007
4.73999990895391 1008
4.75999990850687 1050
4.77999990805984 1089
4.7999999076128 1100
4.81999990716577 1120
4.83999990671873 1058
4.8599999062717 1108
4.87999990582466 1124
4.89999990537763 1146
4.91999990493059 1191
4.93999990448356 1137
4.95999990403652 1152
4.97999990358949 1193
4.99999990314245 1230
5.01999990269542 1251
5.03999990224838 1265
5.05999990180135 1221
5.07999990135431 1332
5.09999990090728 1401
5.11999990046024 1445
5.13999990001321 1515
5.15999989956617 1505
5.17999989911914 1574
5.1999998986721 1628
5.21999989822507 1666
5.23999989777803 1734
5.259999897331 1809
5.27999989688396 1840
5.29999989643693 2001
5.3199998959899 2102
5.33999989554286 2301
5.35999989509583 2430
5.37999989464879 2730
5.39999989420176 3156
5.41999989375472 3399
5.43999989330769 2881
5.45999989286065 2493
5.47999989241362 2295
5.49999989196658 2244
5.51999989151955 2272
5.53999989107251 2375
5.55999989062548 2468
5.57999989017844 2616
5.59999988973141 2710
5.61999988928437 2861
5.63999988883734 3198
5.6599998883903 3399
5.67999988794327 3726
5.69999988749623 4026
5.7199998870492 4533
5.73999988660216 5528
5.75999988615513 6757
5.77999988570809 7795
5.79999988526106 6927
5.81999988481402 4836
5.83999988436699 2956
5.85999988391995 2173
5.87999988347292 1747
5.89999988302588 1583
5.91999988257885 1341
5.93999988213181 1142
5.95999988168478 983
5.97999988123775 979
5.99999988079071 886
6.01999988034368 902
6.03999987989664 897
6.05999987944961 887
6.07999987900257 878
6.09999987855554 848
6.1199998781085 898
6.13999987766147 821
6.15999987721443 866
6.1799998767674 853
6.19999987632036 833
6.21999987587333 854
6.23999987542629 836
6.25999987497926 842
6.27999987453222 834
6.29999987408519 872
6.31999987363815 821
6.33999987319112 829
6.35999987274408 855
6.37999987229705 786
6.39999987185001 830
6.41999987140298 811
6.43999987095594 878
6.45999987050891 872
6.47999987006187 865
6.49999986961484 832
6.5199998691678 831
6.53999986872077 880
6.55999986827374 901
6.5799998678267 891
6.59999986737967 901
6.61999986693263 987
6.6399998664856 1006
6.65999986603856 983
6.67999986559153 1057
6.69999986514449 1104
6.71999986469746 1143
6.73999986425042 1217
6.75999986380339 1425
6.77999986335635 1473
6.79999986290932 1215
6.81999986246228 1008
6.83999986201525 909
6.85999986156821 820
6.87999986112118 756
6.89999986067414 805
6.91999986022711 789
6.93999985978007 735
6.95999985933304 717
6.979999858886 676
6.99999985843897 764
7.01999985799193 699
7.0399998575449 704
7.05999985709786 739
7.07999985665083 737
7.09999985620379 749
7.11999985575676 733
7.13999985530973 704
7.15999985486269 713
7.17999985441566 693
7.19999985396862 646
7.21999985352159 682
7.23999985307455 695
7.25999985262752 756
7.27999985218048 732
7.29999985173345 721
7.31999985128641 738
7.33999985083938 697
7.35999985039234 689
7.37999984994531 691
7.39999984949827 670
7.41999984905124 694
7.4399998486042 703
7.45999984815717 695
7.47999984771013 699
7.4999998472631 716
7.51999984681606 720
7.53999984636903 712
7.55999984592199 691
7.57999984547496 731
7.59999984502792 625
7.61999984458089 722
7.63999984413385 694
7.65999984368682 723
7.67999984323978 691
7.69999984279275 658
7.71999984234572 694
7.73999984189868 659
7.75999984145165 684
7.77999984100461 699
7.79999984055758 710
7.81999984011054 708
7.83999983966351 701
7.85999983921647 713
7.87999983876944 693
7.8999998383224 676
7.91999983787537 733
7.93999983742833 686
7.9599998369813 693
7.97999983653426 676
7.99999983608723 699
8.01999983564019 791
8.03999983519316 777
8.05999983474612 747
8.07999983429909 761
8.09999983385205 800
8.11999983340502 829
8.13999983295798 889
8.15999983251095 870
8.17999983206391 782
8.19999983161688 746
8.21999983116984 682
8.23999983072281 713
8.25999983027577 692
8.27999982982874 689
8.2999998293817 646
8.31999982893467 694
8.33999982848764 661
8.3599998280406 684
8.37999982759357 689
8.39999982714653 666
8.4199998266995 649
8.43999982625246 702
8.45999982580543 669
8.47999982535839 697
8.49999982491136 659
8.51999982446432 697
8.53999982401729 635
8.55999982357025 675
8.57999982312322 701
8.59999982267618 660
8.61999982222915 703
8.63999982178211 694
8.65999982133508 659
8.67999982088804 713
8.69999982044101 680
8.71999981999397 678
8.73999981954694 709
8.7599998190999 672
8.77999981865287 638
8.79999981820583 692
8.8199998177588 721
8.83999981731176 715
8.85999981686473 694
8.87999981641769 653
8.89999981597066 764
8.91999981552362 709
8.93999981507659 714
8.95999981462956 759
8.97999981418252 794
8.99999981373549 813
9.01999981328845 797
9.03999981284142 821
9.05999981239438 854
9.07999981194735 912
9.09999981150031 901
9.11999981105328 929
9.13999981060624 919
9.15999981015921 966
9.17999980971217 1025
9.19999980926514 1042
9.2199998088181 1134
9.23999980837107 1249
9.25999980792403 1383
9.279999807477 1529
9.29999980702996 1715
9.31999980658293 2116
9.33999980613589 2416
9.35999980568886 1983
9.37999980524182 1498
9.39999980479479 1085
9.41999980434775 861
9.43999980390072 841
9.45999980345368 786
9.47999980300665 782
9.49999980255961 737
9.51999980211258 708
9.53999980166554 703
9.55999980121851 703
9.57999980077148 691
9.59999980032444 677
9.61999979987741 681
9.63999979943037 711
9.65999979898334 708
9.6799997985363 742
9.69999979808927 687
9.71999979764223 740
9.7399997971952 765
9.75999979674816 752
9.77999979630113 739
9.79999979585409 773
9.81999979540706 702
9.83999979496002 683
9.85999979451299 724
9.87999979406595 718
9.89999979361892 746
9.91999979317188 807
9.93999979272485 755
9.95999979227781 777
9.97999979183078 799
9.99999979138374 799
10.0199997909367 811
10.0399997904897 870
10.0599997900426 873
10.0799997895956 894
10.0999997891486 940
10.1199997887015 952
10.1399997882545 1088
10.1599997878075 1207
10.1799997873604 1297
10.1999997869134 1252
10.2199997864664 1110
10.2399997860193 921
10.2599997855723 781
10.2799997851253 760
10.2999997846782 783
10.3199997842312 742
10.3399997837842 683
10.3599997833371 717
10.3799997828901 698
10.399999782443 683
10.419999781996 686
10.439999781549 680
10.4599997811019 666
10.4799997806549 751
10.4999997802079 747
10.5199997797608 729
10.5399997793138 699
10.5599997788668 805
10.5799997784197 796
10.5999997779727 779
10.6199997775257 762
10.6399997770786 762
10.6599997766316 801
10.6799997761846 859
10.6999997757375 887
10.7199997752905 892
10.7399997748435 994
10.7599997743964 1016
10.7799997739494 1066
10.7999997735024 1064
10.8199997730553 1054
10.8399997726083 1019
10.8599997721612 1087
10.8799997717142 1096
10.8999997712672 1155
10.9199997708201 1262
10.9399997703731 1539
10.9599997699261 1763
10.979999769479 1674
10.999999769032 1457
11.019999768585 1140
11.0399997681379 947
11.0599997676909 803
11.0799997672439 760
11.0999997667968 731
11.1199997663498 725
11.1399997659028 718
11.1599997654557 704
11.1799997650087 662
11.1999997645617 732
11.2199997641146 722
11.2399997636676 738
11.2599997632205 730
11.2799997627735 741
11.2999997623265 773
11.3199997618794 827
11.3399997614324 811
11.3599997609854 742
11.3799997605383 818
11.3999997600913 864
11.4199997596443 936
11.4399997591972 934
11.4599997587502 996
11.4799997583032 1142
11.4999997578561 1276
11.5199997574091 1276
11.5399997569621 1123
11.559999756515 1032
11.579999756068 885
11.599999755621 780
11.6199997551739 745
11.6399997547269 712
11.6599997542799 673
11.6799997538328 743
11.6999997533858 716
11.7199997529387 661
11.7399997524917 706
11.7599997520447 687
11.7799997515976 663
11.7999997511506 680
11.8199997507036 686
11.8399997502565 683
11.8599997498095 705
11.8799997493625 677
11.8999997489154 711
11.9199997484684 698
11.9399997480214 714
11.9599997475743 771
11.9799997471273 705
11.9999997466803 756
12.0199997462332 753
12.0399997457862 694
12.0599997453392 740
12.0799997448921 786
12.0999997444451 765
12.1199997439981 859
12.139999743551 818
12.159999743104 878
12.1799997426569 977
12.1999997422099 978
12.2199997417629 1011
12.2399997413158 979
12.2599997408688 873
12.2799997404218 774
12.2999997399747 773
12.3199997395277 731
12.3399997390807 773
12.3599997386336 788
12.3799997381866 805
12.3999997377396 751
12.4199997372925 736
12.4399997368455 739
12.4599997363985 713
12.4799997359514 741
12.4999997355044 698
12.5199997350574 754
12.5399997346103 685
12.5599997341633 691
12.5799997337162 706
12.5999997332692 714
12.6199997328222 682
12.6399997323751 719
12.6599997319281 742
12.6799997314811 714
12.699999731034 717
12.719999730587 713
12.73999973014 692
12.7599997296929 683
12.7799997292459 711
12.7999997287989 672
12.8199997283518 685
12.8399997279048 712
12.8599997274578 696
12.8799997270107 705
12.8999997265637 656
12.9199997261167 705
12.9399997256696 718
12.9599997252226 679
12.9799997247756 710
12.9999997243285 623
13.0199997238815 690
13.0399997234344 682
13.0599997229874 664
13.0799997225404 744
13.0999997220933 767
13.1199997216463 765
13.1399997211993 735
13.1599997207522 701
13.1799997203052 735
13.1999997198582 759
13.2199997194111 737
13.2399997189641 773
13.2599997185171 780
13.27999971807 810
13.299999717623 842
13.319999717176 777
13.3399997167289 829
13.3599997162819 827
13.3799997158349 838
13.3999997153878 806
13.4199997149408 742
13.4399997144938 769
13.4599997140467 812
13.4799997135997 844
13.4999997131526 775
13.5199997127056 797
13.5399997122586 830
13.5599997118115 786
13.5799997113645 751
13.5999997109175 742
13.6199997104704 743
13.6399997100234 726
13.6599997095764 710
13.6799997091293 740
13.6999997086823 734
13.7199997082353 727
13.7399997077882 702
13.7599997073412 758
13.7799997068942 744
13.7999997064471 750
13.8199997060001 707
13.8399997055531 681
13.859999705106 730
13.879999704659 748
13.899999704212 723
13.9199997037649 723
13.9399997033179 789
13.9599997028708 777
13.9799997024238 765
13.9999997019768 728
14.0199997015297 710
14.0399997010827 730
14.0599997006357 765
14.0799997001886 736
14.0999996997416 782
14.1199996992946 789
14.1399996988475 781
14.1599996984005 757
14.1799996979535 779
14.1999996975064 739
14.2199996970594 754
14.2399996966124 812
14.2599996961653 794
14.2799996957183 775
14.2999996952713 845
14.3199996948242 810
14.3399996943772 767
14.3599996939301 795
14.3799996934831 882
14.3999996930361 852
14.419999692589 847
14.439999692142 807
14.459999691695 763
14.4799996912479 778
14.4999996908009 767
14.5199996903539 788
14.5399996899068 815
14.5599996894598 800
14.5799996890128 781
14.5999996885657 832
14.6199996881187 770
14.6399996876717 794
14.6599996872246 820
14.6799996867776 820
14.6999996863306 810
14.7199996858835 844
14.7399996854365 855
14.7599996849895 865
14.7799996845424 876
14.7999996840954 926
14.8199996836483 945
14.8399996832013 909
14.8599996827543 891
14.8799996823072 817
14.8999996818602 857
14.9199996814132 837
14.9399996809661 850
14.9599996805191 856
14.9799996800721 796
14.999999679625 815
15.019999679178 844
15.039999678731 818
15.0599996782839 757
15.0799996778369 866
15.0999996773899 839
15.1199996769428 805
15.1399996764958 814
15.1599996760488 857
15.1799996756017 902
15.1999996751547 932
15.2199996747077 958
15.2399996742606 916
15.2599996738136 844
15.2799996733665 851
15.2999996729195 886
15.3199996724725 868
15.3399996720254 857
15.3599996715784 869
15.3799996711314 885
15.3999996706843 844
15.4199996702373 884
15.4399996697903 862
15.4599996693432 878
15.4799996688962 862
15.4999996684492 932
15.5199996680021 906
15.5399996675551 857
15.5599996671081 834
15.579999666661 886
15.599999666214 888
15.619999665767 846
15.6399996653199 824
15.6599996648729 865
15.6799996644258 884
15.6999996639788 861
15.7199996635318 882
15.7399996630847 837
15.7599996626377 857
15.7799996621907 859
15.7999996617436 929
15.8199996612966 829
15.8399996608496 908
15.8599996604025 874
15.8799996599555 901
15.8999996595085 903
15.9199996590614 912
15.9399996586144 859
15.9599996581674 883
15.9799996577203 884
15.9999996572733 903
16.0199996568263 877
16.0399996563792 967
16.0599996559322 961
16.0799996554852 965
16.0999996550381 903
16.1199996545911 903
16.139999654144 941
16.159999653697 975
16.17999965325 970
16.1999996528029 953
16.2199996523559 991
16.2399996519089 974
16.2599996514618 1019
16.2799996510148 1085
16.2999996505678 1087
16.3199996501207 1119
16.3399996496737 1050
16.3599996492267 987
16.3799996487796 1017
16.3999996483326 964
16.4199996478856 1012
16.4399996474385 1035
16.4599996469915 930
16.4799996465445 968
16.4999996460974 972
16.5199996456504 1022
16.5399996452034 987
16.5599996447563 952
16.5799996443093 1025
16.5999996438622 939
16.6199996434152 990
16.6399996429682 1015
16.6599996425211 1025
16.6799996420741 1065
16.6999996416271 1073
16.71999964118 1044
16.739999640733 1075
16.759999640286 1120
16.7799996398389 1046
16.7999996393919 1084
16.8199996389449 1148
16.8399996384978 1168
16.8599996380508 1166
16.8799996376038 1272
16.8999996371567 1318
16.9199996367097 1435
16.9399996362627 1573
16.9599996358156 1747
16.9799996353686 1996
16.9999996349216 2164
17.0199996344745 2113
17.0399996340275 1965
17.0599996335804 1706
17.0799996331334 1490
17.0999996326864 1285
17.1199996322393 1224
17.1399996317923 1201
17.1599996313453 1096
17.1799996308982 1127
17.1999996304512 1138
17.2199996300042 1083
17.2399996295571 1074
17.2599996291101 1121
17.2799996286631 1169
17.299999628216 1171
17.319999627769 1138
17.339999627322 1120
17.3599996268749 1060
17.3799996264279 1077
17.3999996259809 1163
17.4199996255338 1077
17.4399996250868 1159
17.4599996246398 1085
17.4799996241927 1071
17.4999996237457 1161
17.5199996232986 1164
17.5399996228516 1127
17.5599996224046 1116
17.5799996219575 1084
17.5999996215105 1100
17.6199996210635 1124
17.6399996206164 1125
17.6599996201694 1089
17.6799996197224 1096
17.6999996192753 1104
17.7199996188283 1066
17.7399996183813 1108
17.7599996179342 1150
17.7799996174872 1159
17.7999996170402 1124
17.8199996165931 1209
17.8399996161461 1142
17.8599996156991 1185
17.879999615252 1204
17.899999614805 1167
17.9199996143579 1183
17.9399996139109 1156
17.9599996134639 1173
17.9799996130168 1139
17.9999996125698 1197
18.0199996121228 1154
18.0399996116757 1206
18.0599996112287 1138
18.0799996107817 1172
18.0999996103346 1136
18.1199996098876 1144
18.1399996094406 1183
18.1599996089935 1212
18.1799996085465 1189
18.1999996080995 1202
18.2199996076524 1099
18.2399996072054 1193
18.2599996067584 1219
18.2799996063113 1202
18.2999996058643 1192
18.3199996054173 1177
18.3399996049702 1285
18.3599996045232 1211
18.3799996040761 1247
18.3999996036291 1256
18.4199996031821 1212
18.439999602735 1253
18.459999602288 1198
18.479999601841 1213
18.4999996013939 1200
18.5199996009469 1219
18.5399996004999 1261
18.5599996000528 1218
18.5799995996058 1237
18.5999995991588 1294
18.6199995987117 1265
18.6399995982647 1280
18.6599995978177 1307
18.6799995973706 1364
18.6999995969236 1336
18.7199995964766 1336
18.7399995960295 1396
18.7599995955825 1334
18.7799995951354 1433
18.7999995946884 1456
18.8199995942414 1394
18.8399995937943 1392
18.8599995933473 1343
18.8799995929003 1344
18.8999995924532 1368
18.9199995920062 1336
18.9399995915592 1400
18.9599995911121 1335
18.9799995906651 1392
18.9999995902181 1386
19.019999589771 1412
19.039999589324 1515
19.059999588877 1539
19.0799995884299 1579
19.0999995879829 1699
19.1199995875359 1739
19.1399995870888 1773
19.1599995866418 1630
19.1799995861948 1488
19.1999995857477 1447
19.2199995853007 1390
19.2399995848536 1374
19.2599995844066 1359
19.2799995839596 1344
19.2999995835125 1396
19.3199995830655 1332
19.3399995826185 1478
19.3599995821714 1427
19.3799995817244 1446
19.3999995812774 1438
19.4199995808303 1508
19.4399995803833 1556
19.4599995799363 1594
19.4799995794892 1547
19.4999995790422 1664
19.5199995785952 1654
19.5399995781481 1706
19.5599995777011 1628
19.5799995772541 1650
19.599999576807 1551
19.61999957636 1509
19.639999575913 1542
19.6599995754659 1496
19.6799995750189 1392
19.6999995745718 1454
19.7199995741248 1439
19.7399995736778 1430
19.7599995732307 1462
19.7799995727837 1453
19.7999995723367 1447
19.8199995718896 1421
19.8399995714426 1502
19.8599995709956 1571
19.8799995705485 1587
19.8999995701015 1538
19.9199995696545 1546
19.9399995692074 1537
19.9599995687604 1446
19.9799995683134 1445
19.9999995678663 1415
20.0199995674193 1404
20.0399995669723 1424
20.0599995665252 1416
20.0799995660782 1386
20.0999995656312 1488
20.1199995651841 1450
20.1399995647371 1513
20.15999956429 1470
20.179999563843 1557
20.199999563396 1508
20.2199995629489 1529
20.2399995625019 1567
20.2599995620549 1619
20.2799995616078 1616
20.2999995611608 1682
20.3199995607138 1575
20.3399995602667 1654
20.3599995598197 1602
20.3799995593727 1481
20.3999995589256 1499
20.4199995584786 1489
20.4399995580316 1543
20.4599995575845 1550
20.4799995571375 1468
20.4999995566905 1470
20.5199995562434 1558
20.5399995557964 1477
20.5599995553494 1451
20.5799995549023 1420
20.5999995544553 1488
20.6199995540082 1478
20.6399995535612 1458
20.6599995531142 1511
20.6799995526671 1518
20.6999995522201 1478
20.7199995517731 1454
20.739999551326 1488
20.759999550879 1497
20.779999550432 1481
20.7999995499849 1489
20.8199995495379 1569
20.8399995490909 1519
20.8599995486438 1541
20.8799995481968 1453
20.8999995477498 1473
20.9199995473027 1514
20.9399995468557 1475
20.9599995464087 1510
20.9799995459616 1501
20.9999995455146 1491
21.0199995450675 1545
21.0399995446205 1539
21.0599995441735 1571
21.0799995437264 1592
21.0999995432794 1603
21.1199995428324 1610
21.1399995423853 1548
21.1599995419383 1563
21.1799995414913 1556
21.1999995410442 1586
21.2199995405972 1499
21.2399995401502 1464
21.2599995397031 1509
21.2799995392561 1472
21.2999995388091 1587
21.319999538362 1523
21.339999537915 1490
21.359999537468 1448
21.3799995370209 1469
21.3999995365739 1493
21.4199995361269 1450
21.4399995356798 1561
21.4599995352328 1482
21.4799995347857 1480
21.4999995343387 1513
21.5199995338917 1552
21.5399995334446 1552
21.5599995329976 1559
21.5799995325506 1597
21.5999995321035 1542
21.6199995316565 1582
21.6399995312095 1578
21.6599995307624 1631
21.6799995303154 1547
21.6999995298684 1629
21.7199995294213 1556
21.7399995289743 1491
21.7599995285273 1581
21.7799995280802 1525
21.7999995276332 1508
21.8199995271862 1508
21.8399995267391 1520
21.8599995262921 1531
21.879999525845 1587
21.899999525398 1639
21.919999524951 1680
21.9399995245039 1705
21.9599995240569 1730
21.9799995236099 1746
21.9999995231628 1784
22.0199995227158 1682
22.0399995222688 1699
22.0599995218217 1548
22.0799995213747 1546
22.0999995209277 1567
22.1199995204806 1498
22.1399995200336 1540
22.1599995195866 1529
22.1799995191395 1529
22.1999995186925 1522
22.2199995182455 1500
22.2399995177984 1503
22.2599995173514 1493
22.2799995169044 1475
22.2999995164573 1557
22.3199995160103 1528
22.3399995155632 1553
22.3599995151162 1419
22.3799995146692 1526
22.3999995142221 1586
22.4199995137751 1622
22.4399995133281 1599
22.459999512881 1622
22.479999512434 1619
22.499999511987 1555
22.5199995115399 1553
22.5399995110929 1555
22.5599995106459 1498
22.5799995101988 1514
22.5999995097518 1528
22.6199995093048 1517
22.6399995088577 1591
22.6599995084107 1482
22.6799995079637 1509
22.6999995075166 1498
22.7199995070696 1452
22.7399995066226 1525
22.7599995061755 1500
22.7799995057285 1511
22.7999995052814 1492
22.8199995048344 1486
22.8399995043874 1490
22.8599995039403 1468
22.8799995034933 1506
22.8999995030463 1508
22.9199995025992 1497
22.9399995021522 1520
22.9599995017052 1618
22.9799995012581 1594
22.9999995008111 1630
23.0199995003641 1658
23.039999499917 1702
23.05999949947 1832
23.079999499023 1830
23.0999994985759 1848
23.1199994981289 1723
23.1399994976819 1781
23.1599994972348 1601
23.1799994967878 1536
23.1999994963408 1573
23.2199994958937 1522
23.2399994954467 1471
23.2599994949996 1572
23.2799994945526 1510
23.2999994941056 1525
23.3199994936585 1497
23.3399994932115 1536
23.3599994927645 1543
23.3799994923174 1504
23.3999994918704 1506
23.4199994914234 1453
23.4399994909763 1535
23.4599994905293 1454
23.4799994900823 1509
23.4999994896352 1521
23.5199994891882 1524
23.5399994887412 1565
23.5599994882941 1532
23.5799994878471 1602
23.5999994874001 1620
23.619999486953 1595
23.639999486506 1652
23.659999486059 1665
23.6799994856119 1612
23.6999994851649 1565
23.7199994847178 1508
23.7399994842708 1502
23.7599994838238 1525
23.7799994833767 1510
23.7999994829297 1459
23.8199994824827 1510
23.8399994820356 1549
23.8599994815886 1500
23.8799994811416 1510
23.8999994806945 1521
23.9199994802475 1462
23.9399994798005 1530
23.9599994793534 1480
23.9799994789064 1438
23.9999994784594 1389
24.0199994780123 1452
24.0399994775653 1443
24.0599994771183 1421
24.0799994766712 1515
24.0999994762242 1381
24.1199994757771 1432
24.1399994753301 1478
24.1599994748831 1400
24.179999474436 1438
24.199999473989 1416
24.219999473542 1452
24.2399994730949 1416
24.2599994726479 1423
24.2799994722009 1424
24.2999994717538 1426
24.3199994713068 1487
24.3399994708598 1427
24.3599994704127 1429
24.3799994699657 1495
24.3999994695187 1531
24.4199994690716 1403
24.4399994686246 1564
24.4599994681776 1645
24.4799994677305 1678
24.4999994672835 1750
24.5199994668365 1772
24.5399994663894 1781
24.5599994659424 1728
24.5799994654953 1659
24.5999994650483 1687
24.6199994646013 1556
24.6399994641542 1526
24.6599994637072 1541
24.6799994632602 1459
24.6999994628131 1544
24.7199994623661 1525
24.7399994619191 1616
24.759999461472 1806
24.779999461025 1704
24.799999460578 1610
24.8199994601309 1636
24.8399994596839 1642
24.8599994592369 1598
24.8799994587898 1572
24.8999994583428 1549
24.9199994578958 1613
24.9399994574487 1551
24.9599994570017 1496
24.9799994565547 1528
24.9999994561076 1476
25.0199994556606 1523
25.0399994552135 1520
25.0599994547665 1584
25.0799994543195 1616
25.0999994538724 1635
25.1199994534254 1695
25.1399994529784 1620
25.1599994525313 1690
25.1799994520843 1577
25.1999994516373 1574
25.2199994511902 1634
25.2399994507432 1615
25.2599994502962 1637
25.2799994498491 1747
25.2999994494021 1688
25.3199994489551 1664
25.339999448508 1636
25.359999448061 1571
25.379999447614 1589
25.3999994471669 1499
25.4199994467199 1478
25.4399994462729 1531
25.4599994458258 1518
25.4799994453788 1544
25.4999994449317 1615
25.5199994444847 1635
25.5399994440377 1619
25.5599994435906 1589
25.5799994431436 1506
25.5999994426966 1468
25.6199994422495 1438
25.6399994418025 1375
25.6599994413555 1333
25.6799994409084 1337
25.6999994404614 1358
25.7199994400144 1341
25.7399994395673 1306
25.7599994391203 1215
25.7799994386733 1308
25.7999994382262 1258
25.8199994377792 1283
25.8399994373322 1270
25.8599994368851 1336
25.8799994364381 1269
25.899999435991 1299
25.919999435544 1283
25.939999435097 1286
25.9599994346499 1337
25.9799994342029 1318
25.9999994337559 1239
26.0199994333088 1275
26.0399994328618 1240
26.0599994324148 1315
26.0799994319677 1353
26.0999994315207 1312
26.1199994310737 1327
26.1399994306266 1319
26.1599994301796 1317
26.1799994297326 1355
26.1999994292855 1304
26.2199994288385 1356
26.2399994283915 1363
26.2599994279444 1427
26.2799994274974 1352
26.2999994270504 1334
26.3199994266033 1368
26.3399994261563 1354
26.3599994257092 1278
26.3799994252622 1232
26.3999994248152 1250
26.4199994243681 1242
26.4399994239211 1292
26.4599994234741 1199
26.479999423027 1228
26.49999942258 1283
26.519999422133 1247
26.5399994216859 1259
26.5599994212389 1305
26.5799994207919 1300
26.5999994203448 1321
26.6199994198978 1331
26.6399994194508 1309
26.6599994190037 1345
26.6799994185567 1416
26.6999994181097 1372
26.7199994176626 1402
26.7399994172156 1343
26.7599994167686 1449
26.7799994163215 1477
26.7999994158745 1591
26.8199994154274 1628
26.8399994149804 1695
26.8599994145334 1645
26.8799994140863 1657
26.8999994136393 1600
26.9199994131923 1544
26.9399994127452 1479
26.9599994122982 1492
26.9799994118512 1402
26.9999994114041 1460
27.0199994109571 1458
27.0399994105101 1500
27.059999410063 1418
27.079999409616 1510
27.099999409169 1718
27.1199994087219 1714
27.1399994082749 1680
27.1599994078279 1682
27.1799994073808 1605
27.1999994069338 1570
27.2199994064867 1441
27.2399994060397 1390
27.2599994055927 1359
27.2799994051456 1303
27.2999994046986 1272
27.3199994042516 1368
27.3399994038045 1327
27.3599994033575 1283
27.3799994029105 1264
27.3999994024634 1317
27.4199994020164 1211
27.4399994015694 1258
27.4599994011223 1196
27.4799994006753 1276
27.4999994002283 1182
27.5199993997812 1172
27.5399993993342 1184
27.5599993988872 1131
27.5799993984401 1152
27.5999993979931 1155
27.6199993975461 1198
27.639999397099 1220
27.659999396652 1312
27.6799993962049 1287
27.6999993957579 1277
27.7199993953109 1277
27.7399993948638 1277
27.7599993944168 1336
27.7799993939698 1261
27.7999993935227 1261
27.8199993930757 1237
27.8399993926287 1207
27.8599993921816 1178
27.8799993917346 1193
27.8999993912876 1170
27.9199993908405 1194
27.9399993903935 1151
27.9599993899465 1182
27.9799993894994 1178
27.9999993890524 1141
28.0199993886054 1129
28.0399993881583 1141
28.0599993877113 1191
28.0799993872643 1107
28.0999993868172 1218
28.1199993863702 1283
28.1399993859231 1264
28.1599993854761 1311
28.1799993850291 1253
28.199999384582 1259
28.219999384135 1317
28.239999383688 1442
28.2599993832409 1451
28.2799993827939 1461
28.2999993823469 1547
28.3199993818998 1455
28.3399993814528 1338
28.3599993810058 1374
28.3799993805587 1328
28.3999993801117 1311
28.4199993796647 1332
28.4399993792176 1336
28.4599993787706 1270
28.4799993783236 1235
28.4999993778765 1178
28.5199993774295 1214
28.5399993769825 1173
28.5599993765354 1200
28.5799993760884 1180
28.5999993756413 1236
28.6199993751943 1318
28.6399993747473 1257
28.6599993743002 1344
28.6799993738532 1349
28.6999993734062 1354
28.7199993729591 1442
28.7399993725121 1390
28.7599993720651 1415
28.779999371618 1342
28.799999371171 1320
28.819999370724 1321
28.8399993702769 1287
28.8599993698299 1202
28.8799993693829 1218
28.8999993689358 1214
28.9199993684888 1238
28.9399993680418 1187
28.9599993675947 1236
28.9799993671477 1333
28.9999993667006 1249
29.0199993662536 1231
29.0399993658066 1185
29.0599993653595 1212
29.0799993649125 1224
29.0999993644655 1176
29.1199993640184 1114
29.1399993635714 1159
29.1599993631244 1163
29.1799993626773 1180
29.1999993622303 1189
29.2199993617833 1241
29.2399993613362 1159
29.2599993608892 1202
29.2799993604422 1157
29.2999993599951 1128
29.3199993595481 1217
29.3399993591011 1058
29.359999358654 1080
29.379999358207 1094
29.39999935776 1063
29.4199993573129 1068
29.4399993568659 1098
29.4599993564188 1033
29.4799993559718 1054
29.4999993555248 1075
29.5199993550777 1055
29.5399993546307 1028
29.5599993541837 1048
29.5799993537366 1026
29.5999993532896 1041
29.6199993528426 1057
29.6399993523955 1054
29.6599993519485 1078
29.6799993515015 1080
29.6999993510544 1077
29.7199993506074 1110
29.7399993501604 1189
29.7599993497133 1220
29.7799993492663 1210
29.7999993488193 1305
29.8199993483722 1381
29.8399993479252 1355
29.8599993474782 1311
29.8799993470311 1242
29.8999993465841 1214
29.919999346137 1173
29.93999934569 1120
29.959999345243 1159
29.9799993447959 1100
29.9999993443489 1088
