2.79999995231628 5357
2.81999995186925 4811
2.83999995142221 4467
2.85999995097518 4051
2.87999995052814 3783
2.89999995008111 3481
2.91999994963407 3137
2.93999994918704 2795
2.95999994874001 2589
2.97999994829297 2327
2.99999994784594 2133
3.0199999473989 2023
3.03999994695187 1878
3.05999994650483 1752
3.0799999460578 1652
3.09999994561076 1551
3.11999994516373 1549
3.13999994471669 1528
3.15999994426966 1439
3.17999994382262 1436
3.19999994337559 1431
3.21999994292855 1440
3.23999994248152 1350
3.25999994203448 1372
3.27999994158745 1327
3.29999994114041 1327
3.31999994069338 1368
3.33999994024634 1322
3.35999993979931 1415
3.37999993935227 1331
3.39999993890524 1244
3.4199999384582 1226
3.43999993801117 1259
3.45999993756413 1210
3.4799999371171 1251
3.49999993667006 1253
3.51999993622303 1226
3.539999935776 1178
3.55999993532896 1208
3.57999993488193 1169
3.59999993443489 1194
3.61999993398786 1191
3.63999993354082 1166
3.65999993309379 1145
3.67999993264675 1077
3.69999993219972 1126
3.71999993175268 1105
3.73999993130565 1116
3.75999993085861 1185
3.77999993041158 1157
3.79999992996454 1140
3.81999992951751 1100
3.83999992907047 1125
3.85999992862344 1135
3.8799999281764 1162
3.89999992772937 1079
3.91999992728233 1100
3.9399999268353 1162
3.95999992638826 1194
3.97999992594123 1180
3.99999992549419 1130
4.01999992504716 1171
4.03999992460012 1221
4.05999992415309 1244
4.07999992370605 1270
4.09999992325902 1333
4.11999992281199 1375
4.13999992236495 1260
4.15999992191792 1313
4.17999992147088 1282
4.19999992102385 1322
4.21999992057681 1258
4.23999992012978 1236
4.25999991968274 1207
4.27999991923571 1032
4.29999991878867 963
4.31999991834164 938
4.3399999178946 933
4.35999991744757 936
4.37999991700053 890
4.3999999165535 899
4.41999991610646 894
4.43999991565943 891
4.45999991521239 883
4.47999991476536 858
4.49999991431832 870
4.51999991387129 859
4.53999991342425 813
4.55999991297722 881
4.57999991253018 845
4.59999991208315 854
4.61999991163611 793
4.63999991118908 812
4.65999991074204 840
4.67999991029501 822
4.69999990984798 826
4.71999990940094 793
4.73999990895391 827
4.75999990850687 790
4.77999990805984 826
4.7999999076128 806
4.81999990716577 835
4.83999990671873 846
4.8599999062717 901
4.87999990582466 846
4.89999990537763 858
4.91999990493059 889
4.93999990448356 826
4.95999990403652 845
4.97999990358949 834
4.99999990314245 856
5.01999990269542 853
5.03999990224838 891
5.05999990180135 900
5.07999990135431 903
5.09999990090728 914
5.11999990046024 886
5.13999990001321 997
5.15999989956617 946
5.17999989911914 937
5.1999998986721 990
5.21999989822507 1072
5.23999989777803 1039
5.259999897331 1070
5.27999989688396 1097
5.29999989643693 1178
5.3199998959899 1214
5.33999989554286 1241
5.35999989509583 1235
5.37999989464879 1398
5.39999989420176 1354
5.41999989375472 1354
5.43999989330769 1422
5.45999989286065 1458
5.47999989241362 1514
5.49999989196658 1539
5.51999989151955 1531
5.53999989107251 1543
5.55999989062548 1541
5.57999989017844 1469
5.59999988973141 1464
5.61999988928437 1396
5.63999988883734 1493
5.6599998883903 1545
5.67999988794327 1657
5.69999988749623 1691
5.7199998870492 1861
5.73999988660216 2166
5.75999988615513 2219
5.77999988570809 2300
5.79999988526106 2294
5.81999988481402 2416
5.83999988436699 2457
5.85999988391995 2415
5.87999988347292 2453
5.89999988302588 2396
5.91999988257885 2217
5.93999988213181 1904
5.95999988168478 1464
5.97999988123775 1130
5.99999988079071 933
6.01999988034368 878
6.03999987989664 877
6.05999987944961 860
6.07999987900257 802
6.09999987855554 782
6.1199998781085 760
6.13999987766147 768
6.15999987721443 741
6.1799998767674 719
6.19999987632036 757
6.21999987587333 807
6.23999987542629 746
6.25999987497926 772
6.27999987453222 733
6.29999987408519 724
6.31999987363815 741
6.33999987319112 768
6.35999987274408 746
6.37999987229705 764
6.39999987185001 766
6.41999987140298 793
6.43999987095594 761
6.45999987050891 720
6.47999987006187 733
6.49999986961484 752
6.5199998691678 803
6.53999986872077 773
6.55999986827374 797
6.5799998678267 797
6.59999986737967 764
6.61999986693263 799
6.6399998664856 783
6.65999986603856 763
6.67999986559153 840
6.69999986514449 864
6.71999986469746 831
6.73999986425042 824
6.75999986380339 889
6.77999986335635 845
6.79999986290932 902
6.81999986246228 919
6.83999986201525 874
6.85999986156821 836
6.87999986112118 881
6.89999986067414 846
6.91999986022711 814
6.93999985978007 754
6.95999985933304 750
6.979999858886 742
6.99999985843897 747
7.01999985799193 703
7.0399998575449 734
7.05999985709786 718
7.07999985665083 713
7.09999985620379 712
7.11999985575676 712
7.13999985530973 737
7.15999985486269 694
7.17999985441566 721
7.19999985396862 698
7.21999985352159 690
7.23999985307455 743
7.25999985262752 691
7.27999985218048 668
7.29999985173345 646
7.31999985128641 667
7.33999985083938 722
7.35999985039234 721
7.37999984994531 693
7.39999984949827 661
7.41999984905124 690
7.4399998486042 686
7.45999984815717 685
7.47999984771013 675
7.4999998472631 673
7.51999984681606 677
7.53999984636903 681
7.55999984592199 702
7.57999984547496 721
7.59999984502792 730
7.61999984458089 673
7.63999984413385 711
7.65999984368682 698
7.67999984323978 719
7.69999984279275 731
7.71999984234572 673
7.73999984189868 706
7.75999984145165 738
7.77999984100461 661
7.79999984055758 693
7.81999984011054 697
7.83999983966351 711
7.85999983921647 737
7.87999983876944 702
7.8999998383224 736
7.91999983787537 687
7.93999983742833 727
7.9599998369813 731
7.97999983653426 719
7.99999983608723 683
8.01999983564019 691
8.03999983519316 716
8.05999983474612 697
8.07999983429909 697
8.09999983385205 724
8.11999983340502 680
8.13999983295798 724
8.15999983251095 748
8.17999983206391 765
8.19999983161688 774
8.21999983116984 715
8.23999983072281 729
8.25999983027577 715
8.27999982982874 722
8.2999998293817 710
8.31999982893467 693
8.33999982848764 707
8.3599998280406 641
8.37999982759357 663
8.39999982714653 654
8.4199998266995 672
8.43999982625246 677
8.45999982580543 676
8.47999982535839 673
8.49999982491136 661
8.51999982446432 661
8.53999982401729 663
8.55999982357025 718
8.57999982312322 727
8.59999982267618 696
8.61999982222915 701
8.63999982178211 720
8.65999982133508 721
8.67999982088804 704
8.69999982044101 733
8.71999981999397 716
8.73999981954694 709
8.7599998190999 699
8.77999981865287 644
8.79999981820583 675
8.8199998177588 708
8.83999981731176 705
8.85999981686473 667
8.87999981641769 677
8.89999981597066 698
8.91999981552362 692
8.93999981507659 667
8.95999981462956 695
8.97999981418252 689
8.99999981373549 681
9.01999981328845 675
9.03999981284142 721
9.05999981239438 707
9.07999981194735 724
9.09999981150031 720
9.11999981105328 723
9.13999981060624 752
9.15999981015921 784
9.17999980971217 767
9.19999980926514 723
9.2199998088181 835
9.23999980837107 847
9.25999980792403 818
9.279999807477 864
9.29999980702996 865
9.31999980658293 914
9.33999980613589 949
9.35999980568886 939
9.37999980524182 937
9.39999980479479 926
9.41999980434775 985
9.43999980390072 952
9.45999980345368 946
9.47999980300665 912
9.49999980255961 816
9.51999980211258 779
9.53999980166554 693
9.55999980121851 745
9.57999980077148 686
9.59999980032444 718
9.61999979987741 688
9.63999979943037 696
9.65999979898334 714
9.6799997985363 659
9.69999979808927 653
9.71999979764223 681
9.7399997971952 694
9.75999979674816 697
9.77999979630113 673
9.79999979585409 704
9.81999979540706 725
9.83999979496002 734
9.85999979451299 730
9.87999979406595 700
9.89999979361892 639
9.91999979317188 676
9.93999979272485 666
9.95999979227781 705
9.97999979183078 716
9.99999979138374 707
10.0199997909367 674
10.0399997904897 679
10.0599997900426 708
10.0799997895956 718
10.0999997891486 692
10.1199997887015 753
10.1399997882545 758
10.1599997878075 798
10.1799997873604 743
10.1999997869134 785
10.2199997864664 805
10.2399997860193 761
10.2599997855723 775
10.2799997851253 791
10.2999997846782 770
10.3199997842312 785
10.3399997837842 761
10.3599997833371 756
10.3799997828901 682
10.399999782443 679
10.419999781996 731
10.439999781549 681
10.4599997811019 672
10.4799997806549 689
10.4999997802079 677
10.5199997797608 677
10.5399997793138 703
10.5599997788668 761
10.5799997784197 662
10.5999997779727 686
10.6199997775257 708
10.6399997770786 717
10.6599997766316 689
10.6799997761846 703
10.6999997757375 744
10.7199997752905 739
10.7399997748435 736
10.7599997743964 750
10.7799997739494 737
10.7999997735024 774
10.8199997730553 755
10.8399997726083 719
10.8599997721612 796
10.8799997717142 830
10.8999997712672 858
10.9199997708201 828
10.9399997703731 792
10.9599997699261 869
10.979999769479 827
10.999999769032 837
11.019999768585 829
11.0399997681379 841
11.0599997676909 831
11.0799997672439 861
11.0999997667968 893
11.1199997663498 840
11.1399997659028 791
11.1599997654557 700
11.1799997650087 706
11.1999997645617 733
11.2199997641146 712
11.2399997636676 711
11.2599997632205 716
11.2799997627735 656
11.2999997623265 647
11.3199997618794 715
11.3399997614324 730
11.3599997609854 707
11.3799997605383 705
11.3999997600913 747
11.4199997596443 721
11.4399997591972 721
11.4599997587502 781
11.4799997583032 801
11.4999997578561 853
11.5199997574091 806
11.5399997569621 753
11.559999756515 781
11.579999756068 762
11.599999755621 758
11.6199997551739 790
11.6399997547269 766
11.6599997542799 805
11.6799997538328 718
11.6999997533858 736
11.7199997529387 716
11.7399997524917 695
11.7599997520447 653
11.7799997515976 640
11.7999997511506 658
11.8199997507036 688
11.8399997502565 733
11.8599997498095 709
11.8799997493625 702
11.8999997489154 713
11.9199997484684 669
11.9399997480214 680
11.9599997475743 694
11.9799997471273 679
11.9999997466803 705
12.0199997462332 724
12.0399997457862 749
12.0599997453392 705
12.0799997448921 727
12.0999997444451 744
12.1199997439981 679
12.139999743551 708
12.159999743104 708
12.1799997426569 744
12.1999997422099 772
12.2199997417629 755
12.2399997413158 751
12.2599997408688 773
12.2799997404218 719
12.2999997399747 691
12.3199997395277 745
12.3399997390807 793
12.3599997386336 727
12.3799997381866 685
12.3999997377396 696
12.4199997372925 744
12.4399997368455 735
12.4599997363985 745
12.4799997359514 700
12.4999997355044 750
12.5199997350574 672
12.5399997346103 745
12.5599997341633 713
12.5799997337162 695
12.5999997332692 667
12.6199997328222 716
12.6399997323751 687
12.6599997319281 689
12.6799997314811 702
12.699999731034 692
12.719999730587 685
12.73999973014 739
12.7599997296929 710
12.7799997292459 693
12.7999997287989 661
12.8199997283518 654
12.8399997279048 673
12.8599997274578 723
12.8799997270107 710
12.8999997265637 667
12.9199997261167 711
12.9399997256696 708
12.9599997252226 710
12.9799997247756 665
12.9999997243285 687
13.0199997238815 723
13.0399997234344 729
13.0599997229874 701
13.0799997225404 714
13.0999997220933 678
13.1199997216463 722
13.1399997211993 719
13.1599997207522 750
13.1799997203052 702
13.1999997198582 741
13.2199997194111 726
13.2399997189641 710
13.2599997185171 723
13.27999971807 739
13.299999717623 715
13.319999717176 738
13.3399997167289 711
13.3599997162819 725
13.3799997158349 717
13.3999997153878 720
13.4199997149408 754
13.4399997144938 780
13.4599997140467 714
13.4799997135997 729
13.4999997131526 692
13.5199997127056 767
13.5399997122586 713
13.5599997118115 731
13.5799997113645 733
13.5999997109175 712
13.6199997104704 761
13.6399997100234 734
13.6599997095764 731
13.6799997091293 761
13.6999997086823 735
13.7199997082353 737
13.7399997077882 720
13.7599997073412 710
13.7799997068942 724
13.7999997064471 774
13.8199997060001 742
13.8399997055531 744
13.859999705106 777
13.879999704659 775
13.899999704212 759
13.9199997037649 740
13.9399997033179 673
13.9599997028708 773
13.9799997024238 700
13.9999997019768 735
14.0199997015297 728
14.0399997010827 730
14.0599997006357 693
14.0799997001886 726
14.0999996997416 721
14.1199996992946 742
14.1399996988475 760
14.1599996984005 761
14.1799996979535 762
14.1999996975064 781
14.2199996970594 759
14.2399996966124 765
14.2599996961653 763
14.2799996957183 774
14.2999996952713 763
14.3199996948242 786
14.3399996943772 791
14.3599996939301 785
14.3799996934831 747
14.3999996930361 770
14.419999692589 779
14.439999692142 798
14.459999691695 755
14.4799996912479 795
14.4999996908009 768
14.5199996903539 775
14.5399996899068 769
14.5599996894598 738
14.5799996890128 789
14.5999996885657 732
14.6199996881187 757
14.6399996876717 725
14.6599996872246 741
14.6799996867776 757
14.6999996863306 821
14.7199996858835 778
14.7399996854365 800
14.7599996849895 783
14.7799996845424 782
14.7999996840954 820
14.8199996836483 782
14.8399996832013 791
14.8599996827543 859
14.8799996823072 824
14.8999996818602 830
14.9199996814132 840
14.9399996809661 847
14.9599996805191 869
14.9799996800721 788
14.999999679625 827
15.019999679178 840
15.039999678731 761
15.0599996782839 797
15.0799996778369 758
15.0999996773899 860
15.1199996769428 796
15.1399996764958 759
15.1599996760488 788
15.1799996756017 794
15.1999996751547 817
15.2199996747077 779
15.2399996742606 834
15.2599996738136 880
15.2799996733665 793
15.2999996729195 841
15.3199996724725 801
15.3399996720254 808
15.3599996715784 867
15.3799996711314 837
15.3999996706843 798
15.4199996702373 798
15.4399996697903 862
15.4599996693432 807
15.4799996688962 800
15.4999996684492 826
15.5199996680021 862
15.5399996675551 899
15.5599996671081 807
15.579999666661 829
15.599999666214 860
15.619999665767 832
15.6399996653199 835
15.6599996648729 852
15.6799996644258 857
15.6999996639788 847
15.7199996635318 827
15.7399996630847 844
15.7599996626377 839
15.7799996621907 848
15.7999996617436 884
15.8199996612966 869
15.8399996608496 881
15.8599996604025 888
15.8799996599555 849
15.8999996595085 938
15.9199996590614 885
15.9399996586144 827
15.9599996581674 858
15.9799996577203 828
15.9999996572733 828
16.0199996568263 893
16.0399996563792 867
16.0599996559322 915
16.0799996554852 896
16.0999996550381 860
16.1199996545911 917
16.139999654144 956
16.159999653697 886
16.17999965325 879
16.1999996528029 892
16.2199996523559 915
16.2399996519089 927
16.2599996514618 922
16.2799996510148 960
16.2999996505678 936
16.3199996501207 956
16.3399996496737 964
16.3599996492267 950
16.3799996487796 875
16.3999996483326 979
16.4199996478856 915
16.4399996474385 932
16.4599996469915 956
16.4799996465445 924
16.4999996460974 924
16.5199996456504 986
16.5399996452034 951
16.5599996447563 964
16.5799996443093 967
16.5999996438622 926
16.6199996434152 964
16.6399996429682 992
16.6599996425211 936
16.6799996420741 988
16.6999996416271 967
16.71999964118 928
16.739999640733 985
16.759999640286 1014
16.7799996398389 997
16.7999996393919 999
16.8199996389449 1067
16.8399996384978 1092
16.8599996380508 1050
16.8799996376038 1015
16.8999996371567 1089
16.9199996367097 1094
16.9399996362627 1165
16.9599996358156 1252
16.9799996353686 1278
16.9999996349216 1350
17.0199996344745 1311
17.0399996340275 1319
17.0599996335804 1362
17.0799996331334 1353
17.0999996326864 1296
17.1199996322393 1260
17.1399996317923 1274
17.1599996313453 1304
17.1799996308982 1294
17.1999996304512 1196
17.2199996300042 1167
17.2399996295571 1036
17.2599996291101 1091
17.2799996286631 1050
17.299999628216 1085
17.319999627769 1074
17.339999627322 1079
17.3599996268749 1078
17.3799996264279 1072
17.3999996259809 1090
17.4199996255338 1084
17.4399996250868 1084
17.4599996246398 1048
17.4799996241927 1075
17.4999996237457 1083
17.5199996232986 1086
17.5399996228516 1117
17.5599996224046 1129
17.5799996219575 1069
17.5999996215105 1097
17.6199996210635 1166
17.6399996206164 1140
17.6599996201694 1124
17.6799996197224 1100
17.6999996192753 1038
17.7199996188283 1079
17.7399996183813 1096
17.7599996179342 1143
17.7799996174872 1109
17.7999996170402 1143
17.8199996165931 1123
17.8399996161461 1098
17.8599996156991 1155
17.879999615252 1190
17.899999614805 1167
17.9199996143579 1143
17.9399996139109 1096
17.9599996134639 1063
17.9799996130168 1196
17.9999996125698 1178
18.0199996121228 1143
18.0399996116757 1136
18.0599996112287 1183
18.0799996107817 1150
18.0999996103346 1141
18.1199996098876 1140
18.1399996094406 1189
18.1599996089935 1256
18.1799996085465 1237
18.1999996080995 1121
18.2199996076524 1242
18.2399996072054 1250
18.2599996067584 1197
18.2799996063113 1183
18.2999996058643 1137
18.3199996054173 1225
18.3399996049702 1223
18.3599996045232 1222
18.3799996040761 1245
18.3999996036291 1187
18.4199996031821 1158
18.439999602735 1212
18.459999602288 1227
18.479999601841 1209
18.4999996013939 1170
18.5199996009469 1219
18.5399996004999 1251
18.5599996000528 1282
18.5799995996058 1259
18.5999995991588 1255
18.6199995987117 1254
18.6399995982647 1246
18.6599995978177 1304
18.6799995973706 1332
18.6999995969236 1312
18.7199995964766 1277
18.7399995960295 1332
18.7599995955825 1309
18.7799995951354 1249
18.7999995946884 1351
18.8199995942414 1343
18.8399995937943 1235
18.8599995933473 1354
18.8799995929003 1307
18.8999995924532 1326
18.9199995920062 1342
18.9399995915592 1397
18.9599995911121 1364
18.9799995906651 1364
18.9999995902181 1356
19.019999589771 1274
19.039999589324 1385
19.059999588877 1390
19.0799995884299 1419
19.0999995879829 1415
19.1199995875359 1457
19.1399995870888 1412
19.1599995866418 1449
19.1799995861948 1384
19.1999995857477 1404
19.2199995853007 1385
19.2399995848536 1457
19.2599995844066 1456
19.2799995839596 1468
19.2999995835125 1467
19.3199995830655 1445
19.3399995826185 1468
19.3599995821714 1362
19.3799995817244 1380
19.3999995812774 1447
19.4199995808303 1486
19.4399995803833 1460
19.4599995799363 1426
19.4799995794892 1399
19.4999995790422 1496
19.5199995785952 1459
19.5399995781481 1555
19.5599995777011 1538
19.5799995772541 1505
19.599999576807 1519
19.61999957636 1555
19.639999575913 1467
19.6599995754659 1553
19.6799995750189 1438
19.6999995745718 1493
19.7199995741248 1553
19.7399995736778 1508
19.7599995732307 1461
19.7799995727837 1498
19.7999995723367 1487
19.8199995718896 1525
19.8399995714426 1491
19.8599995709956 1464
19.8799995705485 1500
19.8999995701015 1603
19.9199995696545 1513
19.9399995692074 1562
19.9599995687604 1499
19.9799995683134 1550
19.9999995678663 1538
20.0199995674193 1476
20.0399995669723 1557
20.0599995665252 1530
20.0799995660782 1494
20.0999995656312 1456
20.1199995651841 1538
20.1399995647371 1496
20.15999956429 1508
20.179999563843 1577
20.199999563396 1556
20.2199995629489 1540
20.2399995625019 1581
20.2599995620549 1560
20.2799995616078 1505
20.2999995611608 1559
20.3199995607138 1602
20.3399995602667 1602
20.3599995598197 1588
20.3799995593727 1515
20.3999995589256 1624
20.4199995584786 1563
20.4399995580316 1511
20.4599995575845 1547
20.4799995571375 1578
20.4999995566905 1595
20.5199995562434 1532
20.5399995557964 1530
20.5599995553494 1560
20.5799995549023 1554
20.5999995544553 1551
20.6199995540082 1553
20.6399995535612 1563
20.6599995531142 1535
20.6799995526671 1571
20.6999995522201 1599
20.7199995517731 1551
20.739999551326 1535
20.759999550879 1543
20.779999550432 1663
20.7999995499849 1533
20.8199995495379 1577
20.8399995490909 1536
20.8599995486438 1562
20.8799995481968 1540
20.8999995477498 1610
20.9199995473027 1576
20.9399995468557 1558
20.9599995464087 1558
20.9799995459616 1509
20.9999995455146 1630
21.0199995450675 1585
21.0399995446205 1592
21.0599995441735 1599
21.0799995437264 1604
21.0999995432794 1588
21.1199995428324 1602
21.1399995423853 1617
21.1599995419383 1519
21.1799995414913 1626
21.1999995410442 1593
21.2199995405972 1616
21.2399995401502 1544
21.2599995397031 1672
21.2799995392561 1586
21.2999995388091 1659
21.319999538362 1516
21.339999537915 1514
21.359999537468 1542
21.3799995370209 1531
21.3999995365739 1556
21.4199995361269 1580
21.4399995356798 1606
21.4599995352328 1530
21.4799995347857 1606
21.4999995343387 1557
21.5199995338917 1518
21.5399995334446 1577
21.5599995329976 1571
21.5799995325506 1527
21.5999995321035 1537
21.6199995316565 1506
21.6399995312095 1551
21.6599995307624 1571
21.6799995303154 1539
21.6999995298684 1575
21.7199995294213 1594
21.7399995289743 1595
21.7599995285273 1543
21.7799995280802 1572
21.7999995276332 1600
21.8199995271862 1571
21.8399995267391 1496
21.8599995262921 1618
21.879999525845 1542
21.899999525398 1534
21.919999524951 1577
21.9399995245039 1592
21.9599995240569 1551
21.9799995236099 1582
21.9999995231628 1577
22.0199995227158 1492
22.0399995222688 1464
22.0599995218217 1617
22.0799995213747 1541
22.0999995209277 1610
22.1199995204806 1642
22.1399995200336 1574
22.1599995195866 1532
22.1799995191395 1548
22.1999995186925 1532
22.2199995182455 1571
22.2399995177984 1454
22.2599995173514 1530
22.2799995169044 1477
22.2999995164573 1466
22.3199995160103 1482
22.3399995155632 1498
22.3599995151162 1515
22.3799995146692 1432
22.3999995142221 1497
22.4199995137751 1485
22.4399995133281 1483
22.459999512881 1394
22.479999512434 1510
22.499999511987 1445
22.5199995115399 1494
22.5399995110929 1552
22.5599995106459 1486
22.5799995101988 1452
22.5999995097518 1426
22.6199995093048 1440
22.6399995088577 1500
22.6599995084107 1492
22.6799995079637 1423
22.6999995075166 1431
22.7199995070696 1460
22.7399995066226 1398
22.7599995061755 1404
22.7799995057285 1483
22.7999995052814 1468
22.8199995048344 1448
22.8399995043874 1424
22.8599995039403 1448
22.8799995034933 1442
22.8999995030463 1436
22.9199995025992 1402
22.9399995021522 1420
22.9599995017052 1461
22.9799995012581 1379
22.9999995008111 1400
23.0199995003641 1419
23.039999499917 1413
23.05999949947 1450
23.079999499023 1406
23.0999994985759 1497
23.1199994981289 1471
23.1399994976819 1443
23.1599994972348 1484
23.1799994967878 1441
23.1999994963408 1464
23.2199994958937 1401
23.2399994954467 1385
23.2599994949996 1380
23.2799994945526 1398
23.2999994941056 1408
23.3199994936585 1435
23.3399994932115 1385
23.3599994927645 1300
23.3799994923174 1359
23.3999994918704 1373
23.4199994914234 1356
23.4399994909763 1294
23.4599994905293 1337
23.4799994900823 1369
23.4999994896352 1321
23.5199994891882 1365
23.5399994887412 1322
23.5599994882941 1292
23.5799994878471 1378
23.5999994874001 1346
23.619999486953 1296
23.639999486506 1332
23.659999486059 1383
23.6799994856119 1350
23.6999994851649 1365
23.7199994847178 1324
23.7399994842708 1361
23.7599994838238 1363
23.7799994833767 1348
23.7999994829297 1360
23.8199994824827 1321
23.8399994820356 1220
23.8599994815886 1296
23.8799994811416 1255
23.8999994806945 1290
23.9199994802475 1303
23.9399994798005 1207
23.9599994793534 1212
23.9799994789064 1214
23.9999994784594 1243
24.0199994780123 1232
24.0399994775653 1226
24.0599994771183 1255
24.0799994766712 1180
24.0999994762242 1283
24.1199994757771 1241
24.1399994753301 1167
24.1599994748831 1268
24.179999474436 1195
24.199999473989 1211
24.219999473542 1212
24.2399994730949 1229
24.2599994726479 1184
24.2799994722009 1228
24.2999994717538 1193
24.3199994713068 1226
24.3399994708598 1219
24.3599994704127 1175
24.3799994699657 1208
24.3999994695187 1196
24.4199994690716 1201
24.4399994686246 1180
24.4599994681776 1285
24.4799994677305 1204
24.4999994672835 1235
24.5199994668365 1245
24.5399994663894 1253
24.5599994659424 1274
24.5799994654953 1304
24.5999994650483 1292
24.6199994646013 1268
24.6399994641542 1295
24.6599994637072 1270
24.6799994632602 1305
24.6999994628131 1207
24.7199994623661 1232
24.7399994619191 1257
24.759999461472 1226
24.779999461025 1214
24.799999460578 1215
24.8199994601309 1202
24.8399994596839 1199
24.8599994592369 1239
24.8799994587898 1177
24.8999994583428 1213
24.9199994578958 1210
24.9399994574487 1169
24.9599994570017 1192
24.9799994565547 1145
24.9999994561076 1152
25.0199994556606 1178
25.0399994552135 1125
25.0599994547665 1139
25.0799994543195 1211
25.0999994538724 1153
25.1199994534254 1244
25.1399994529784 1166
25.1599994525313 1147
25.1799994520843 1171
25.1999994516373 1180
25.2199994511902 1262
25.2399994507432 1164
25.2599994502962 1194
25.2799994498491 1256
25.2999994494021 1248
25.3199994489551 1194
25.339999448508 1202
25.359999448061 1184
25.379999447614 1244
25.3999994471669 1217
25.4199994467199 1207
25.4399994462729 1168
25.4599994458258 1162
25.4799994453788 1143
25.4999994449317 1137
25.5199994444847 1147
25.5399994440377 1148
25.5599994435906 1168
25.5799994431436 1095
25.5999994426966 1125
25.6199994422495 1112
25.6399994418025 1124
25.6599994413555 1156
25.6799994409084 1080
25.6999994404614 1105
25.7199994400144 990
25.7399994395673 1001
25.7599994391203 986
25.7799994386733 1003
25.7999994382262 969
25.8199994377792 968
25.8399994373322 996
25.8599994368851 987
25.8799994364381 978
25.899999435991 1005
25.919999435544 993
25.939999435097 944
25.9599994346499 968
25.9799994342029 972
25.9999994337559 996
26.0199994333088 994
26.0399994328618 986
26.0599994324148 958
26.0799994319677 1018
26.0999994315207 1012
26.1199994310737 913
26.1399994306266 915
26.1599994301796 978
26.1799994297326 1008
26.1999994292855 1008
26.2199994288385 969
26.2399994283915 954
26.2599994279444 990
26.2799994274974 965
26.2999994270504 979
26.3199994266033 1010
26.3399994261563 976
26.3599994257092 985
26.3799994252622 959
26.3999994248152 945
26.4199994243681 985
26.4399994239211 924
26.4599994234741 902
26.479999423027 908
26.49999942258 932
26.519999422133 945
26.5399994216859 938
26.5599994212389 949
26.5799994207919 946
26.5999994203448 974
26.6199994198978 970
26.6399994194508 942
26.6599994190037 987
26.6799994185567 922
26.6999994181097 962
26.7199994176626 1012
26.7399994172156 905
26.7599994167686 975
26.7799994163215 963
26.7999994158745 974
26.8199994154274 1005
26.8399994149804 968
26.8599994145334 1016
26.8799994140863 1023
26.8999994136393 1062
26.9199994131923 1051
26.9399994127452 1142
26.9599994122982 1091
26.9799994118512 1041
26.9999994114041 1032
27.0199994109571 1026
27.0399994105101 1065
27.059999410063 1039
27.079999409616 1047
27.099999409169 1069
27.1199994087219 972
27.1399994082749 1038
27.1599994078279 1033
27.1799994073808 917
27.1999994069338 987
27.2199994064867 1066
27.2399994060397 991
27.2599994055927 951
27.2799994051456 988
27.2999994046986 949
27.3199994042516 937
27.3399994038045 953
27.3599994033575 949
27.3799994029105 934
27.3999994024634 886
27.4199994020164 911
27.4399994015694 877
27.4599994011223 898
27.4799994006753 882
27.4999994002283 890
27.5199993997812 914
27.5399993993342 865
27.5599993988872 840
27.5799993984401 852
27.5999993979931 834
27.6199993975461 851
27.639999397099 856
27.659999396652 874
27.6799993962049 802
27.6999993957579 859
27.7199993953109 918
27.7399993948638 894
27.7599993944168 796
27.7799993939698 822
27.7999993935227 881
27.8199993930757 832
27.8399993926287 839
27.8599993921816 818
27.8799993917346 783
27.8999993912876 852
27.9199993908405 803
27.9399993903935 821
27.9599993899465 815
27.9799993894994 822
27.9999993890524 764
28.0199993886054 850
28.0399993881583 797
28.0599993877113 821
28.0799993872643 840
28.0999993868172 816
28.1199993863702 824
28.1399993859231 837
28.1599993854761 808
28.1799993850291 842
28.199999384582 827
28.219999384135 826
28.239999383688 883
28.2599993832409 856
28.2799993827939 913
28.2999993823469 864
28.3199993818998 884
28.3399993814528 889
28.3599993810058 906
28.3799993805587 881
28.3999993801117 909
28.4199993796647 963
28.4399993792176 927
28.4599993787706 867
28.4799993783236 879
28.4999993778765 882
28.5199993774295 870
28.5399993769825 844
28.5599993765354 804
28.5799993760884 868
28.5999993756413 817
28.6199993751943 778
28.6399993747473 801
28.6599993743002 829
28.6799993738532 858
28.6999993734062 846
28.7199993729591 856
28.7399993725121 900
28.7599993720651 863
28.779999371618 859
28.799999371171 866
28.819999370724 938
28.8399993702769 880
28.8599993698299 788
28.8799993693829 834
28.8999993689358 818
28.9199993684888 808
28.9399993680418 839
28.9599993675947 794
28.9799993671477 789
28.9999993667006 814
29.0199993662536 803
29.0399993658066 803
29.0599993653595 834
29.0799993649125 789
29.0999993644655 799
29.1199993640184 806
29.1399993635714 831
29.1599993631244 789
29.1799993626773 778
29.1999993622303 818
29.2199993617833 746
29.2399993613362 842
29.2599993608892 802
29.2799993604422 768
29.2999993599951 771
29.3199993595481 781
29.3399993591011 754
29.359999358654 762
29.379999358207 711
29.39999935776 790
29.4199993573129 744
29.4399993568659 714
29.4599993564188 693
29.4799993559718 722
29.4999993555248 743
29.5199993550777 686
29.5399993546307 717
29.5599993541837 703
29.5799993537366 743
29.5999993532896 733
29.6199993528426 716
29.6399993523955 727
29.6599993519485 674
29.6799993515015 742
29.6999993510544 724
29.7199993506074 698
29.7399993501604 755
29.7599993497133 717
29.7799993492663 775
29.7999993488193 798
29.8199993483722 788
29.8399993479252 788
29.8599993474782 750
29.8799993470311 802
29.8999993465841 789
29.919999346137 796
29.93999934569 851
29.959999345243 803
29.9799993447959 811
29.9999993443489 799
