2.79999995231628 5498
2.81999995186925 4838
2.83999995142221 4393
2.85999995097518 4028
2.87999995052814 3646
2.89999995008111 3323
2.91999994963407 3016
2.93999994918704 2812
2.95999994874001 2497
2.97999994829297 2309
2.99999994784594 2132
3.0199999473989 1991
3.03999994695187 1831
3.05999994650483 1739
3.0799999460578 1607
3.09999994561076 1538
3.11999994516373 1466
3.13999994471669 1398
3.15999994426966 1473
3.17999994382262 1371
3.19999994337559 1347
3.21999994292855 1374
3.23999994248152 1347
3.25999994203448 1298
3.27999994158745 1314
3.29999994114041 1362
3.31999994069338 1298
3.33999994024634 1248
3.35999993979931 1208
3.37999993935227 1269
3.39999993890524 1269
3.4199999384582 1227
3.43999993801117 1215
3.45999993756413 1135
3.4799999371171 1175
3.49999993667006 1176
3.51999993622303 1245
3.539999935776 1174
3.55999993532896 1137
3.57999993488193 1127
3.59999993443489 1140
3.61999993398786 1144
3.63999993354082 1079
3.65999993309379 1074
3.67999993264675 1085
3.69999993219972 1127
3.71999993175268 1066
3.73999993130565 1125
3.75999993085861 1038
3.77999993041158 1145
3.79999992996454 994
3.81999992951751 993
3.83999992907047 1017
3.85999992862344 1050
3.8799999281764 1046
3.89999992772937 981
3.91999992728233 1001
3.9399999268353 966
3.95999992638826 992
3.97999992594123 983
3.99999992549419 958
4.01999992504716 933
4.03999992460012 957
4.05999992415309 984
4.07999992370605 956
4.09999992325902 988
4.11999992281199 919
4.13999992236495 947
4.15999992191792 918
4.17999992147088 913
4.19999992102385 935
4.21999992057681 897
4.23999992012978 889
4.25999991968274 914
4.27999991923571 906
4.29999991878867 902
4.31999991834164 913
4.3399999178946 874
4.35999991744757 882
4.37999991700053 902
4.3999999165535 882
4.41999991610646 873
4.43999991565943 892
4.45999991521239 862
4.47999991476536 856
4.49999991431832 855
4.51999991387129 868
4.53999991342425 859
4.55999991297722 820
4.57999991253018 928
4.59999991208315 895
4.61999991163611 854
4.63999991118908 858
4.65999991074204 901
4.67999991029501 884
4.69999990984798 834
4.71999990940094 925
4.73999990895391 836
4.75999990850687 854
4.77999990805984 886
4.7999999076128 834
4.81999990716577 807
4.83999990671873 895
4.8599999062717 874
4.87999990582466 896
4.89999990537763 892
4.91999990493059 787
4.93999990448356 797
4.95999990403652 878
4.97999990358949 847
4.99999990314245 878
5.01999990269542 939
5.03999990224838 876
5.05999990180135 872
5.07999990135431 900
5.09999990090728 855
5.11999990046024 834
5.13999990001321 917
5.15999989956617 910
5.17999989911914 899
5.1999998986721 916
5.21999989822507 894
5.23999989777803 913
5.259999897331 1017
5.27999989688396 1006
5.29999989643693 984
5.3199998959899 955
5.33999989554286 928
5.35999989509583 982
5.37999989464879 1074
5.39999989420176 992
5.41999989375472 1016
5.43999989330769 1085
5.45999989286065 1055
5.47999989241362 1078
5.49999989196658 1126
5.51999989151955 1149
5.53999989107251 1210
5.55999989062548 1256
5.57999989017844 1309
5.59999988973141 1376
5.61999988928437 1349
5.63999988883734 1455
5.6599998883903 1518
5.67999988794327 1717
5.69999988749623 1862
5.7199998870492 1980
5.73999988660216 2250
5.75999988615513 2424
5.77999988570809 2520
5.79999988526106 2731
5.81999988481402 2864
5.83999988436699 2939
5.85999988391995 2772
5.87999988347292 2223
5.89999988302588 1666
5.91999988257885 1416
5.93999988213181 1291
5.95999988168478 1020
5.97999988123775 948
5.99999988079071 859
6.01999988034368 884
6.03999987989664 877
6.05999987944961 867
6.07999987900257 842
6.09999987855554 825
6.1199998781085 823
6.13999987766147 784
6.15999987721443 818
6.1799998767674 801
6.19999987632036 884
6.21999987587333 872
6.23999987542629 828
6.25999987497926 824
6.27999987453222 825
6.29999987408519 853
6.31999987363815 808
6.33999987319112 826
6.35999987274408 885
6.37999987229705 922
6.39999987185001 874
6.41999987140298 923
6.43999987095594 918
6.45999987050891 966
6.47999987006187 983
6.49999986961484 1070
6.5199998691678 1025
6.53999986872077 1110
6.55999986827374 1173
6.5799998678267 1210
6.59999986737967 1286
6.61999986693263 1490
6.6399998664856 1509
6.65999986603856 1531
6.67999986559153 1652
6.69999986514449 1798
6.71999986469746 1875
6.73999986425042 1684
6.75999986380339 1490
6.77999986335635 1189
6.79999986290932 1060
6.81999986246228 943
6.83999986201525 875
6.85999986156821 749
6.87999986112118 777
6.89999986067414 727
6.91999986022711 727
6.93999985978007 708
6.95999985933304 767
6.979999858886 678
6.99999985843897 738
7.01999985799193 791
7.0399998575449 743
7.05999985709786 762
7.07999985665083 713
7.09999985620379 720
7.11999985575676 746
7.13999985530973 693
7.15999985486269 734
7.17999985441566 678
7.19999985396862 722
7.21999985352159 687
7.23999985307455 716
7.25999985262752 737
7.27999985218048 704
7.29999985173345 678
7.31999985128641 702
7.33999985083938 677
7.35999985039234 679
7.37999984994531 677
7.39999984949827 677
7.41999984905124 681
7.4399998486042 688
7.45999984815717 672
7.47999984771013 686
7.4999998472631 685
7.51999984681606 718
7.53999984636903 693
7.55999984592199 730
7.57999984547496 745
7.59999984502792 698
7.61999984458089 735
7.63999984413385 746
7.65999984368682 718
7.67999984323978 703
7.69999984279275 742
7.71999984234572 690
7.73999984189868 703
7.75999984145165 686
7.77999984100461 674
7.79999984055758 674
7.81999984011054 670
7.83999983966351 672
7.85999983921647 679
7.87999983876944 677
7.8999998383224 719
7.91999983787537 722
7.93999983742833 681
7.9599998369813 668
7.97999983653426 720
7.99999983608723 669
8.01999983564019 660
8.03999983519316 684
8.05999983474612 704
8.07999983429909 655
8.09999983385205 688
8.11999983340502 738
8.13999983295798 692
8.15999983251095 722
8.17999983206391 712
8.19999983161688 672
8.21999983116984 674
8.23999983072281 682
8.25999983027577 702
8.27999982982874 703
8.2999998293817 724
8.31999982893467 699
8.33999982848764 662
8.3599998280406 696
8.37999982759357 663
8.39999982714653 697
8.4199998266995 703
8.43999982625246 701
8.45999982580543 669
8.47999982535839 670
8.49999982491136 669
8.51999982446432 693
8.53999982401729 744
8.55999982357025 716
8.57999982312322 685
8.59999982267618 701
8.61999982222915 716
8.63999982178211 720
8.65999982133508 701
8.67999982088804 706
8.69999982044101 715
8.71999981999397 694
8.73999981954694 681
8.7599998190999 666
8.77999981865287 689
8.79999981820583 669
8.8199998177588 696
8.83999981731176 706
8.85999981686473 677
8.87999981641769 699
8.89999981597066 700
8.91999981552362 646
8.93999981507659 706
8.95999981462956 687
8.97999981418252 707
8.99999981373549 734
9.01999981328845 717
9.03999981284142 720
9.05999981239438 802
9.07999981194735 756
9.09999981150031 730
9.11999981105328 744
9.13999981060624 725
9.15999981015921 743
9.17999980971217 748
9.19999980926514 804
9.2199998088181 778
9.23999980837107 826
9.25999980792403 833
9.279999807477 863
9.29999980702996 913
9.31999980658293 997
9.33999980613589 1007
9.35999980568886 1151
9.37999980524182 1131
9.39999980479479 1212
9.41999980434775 1294
9.43999980390072 1276
9.45999980345368 1313
9.47999980300665 1174
9.49999980255961 1003
9.51999980211258 932
9.53999980166554 878
9.55999980121851 809
9.57999980077148 746
9.59999980032444 721
9.61999979987741 722
9.63999979943037 708
9.65999979898334 716
9.6799997985363 736
9.69999979808927 674
9.71999979764223 676
9.7399997971952 676
9.75999979674816 693
9.77999979630113 664
9.79999979585409 683
9.81999979540706 718
9.83999979496002 669
9.85999979451299 700
9.87999979406595 694
9.89999979361892 697
9.91999979317188 691
9.93999979272485 693
9.95999979227781 663
9.97999979183078 694
9.99999979138374 690
10.0199997909367 682
10.0399997904897 710
10.0599997900426 682
10.0799997895956 676
10.0999997891486 692
10.1199997887015 710
10.1399997882545 683
10.1599997878075 665
10.1799997873604 705
10.1999997869134 697
10.2199997864664 734
10.2399997860193 668
10.2599997855723 669
10.2799997851253 705
10.2999997846782 735
10.3199997842312 637
10.3399997837842 668
10.3599997833371 688
10.3799997828901 705
10.399999782443 683
10.419999781996 716
10.439999781549 749
10.4599997811019 688
10.4799997806549 666
10.4999997802079 750
10.5199997797608 717
10.5399997793138 704
10.5599997788668 688
10.5799997784197 695
10.5999997779727 675
10.6199997775257 674
10.6399997770786 720
10.6599997766316 716
10.6799997761846 802
10.6999997757375 748
10.7199997752905 758
10.7399997748435 802
10.7599997743964 770
10.7799997739494 736
10.7999997735024 741
10.8199997730553 780
10.8399997726083 798
10.8599997721612 822
10.8799997717142 852
10.8999997712672 938
10.9199997708201 940
10.9399997703731 988
10.9599997699261 1100
10.979999769479 1128
10.999999769032 1140
11.019999768585 1212
11.0399997681379 1244
11.0599997676909 1359
11.0799997672439 1278
11.0999997667968 1141
11.1199997663498 969
11.1399997659028 925
11.1599997654557 833
11.1799997650087 825
11.1999997645617 827
11.2199997641146 784
11.2399997636676 726
11.2599997632205 713
11.2799997627735 782
11.2999997623265 778
11.3199997618794 769
11.3399997614324 739
11.3599997609854 820
11.3799997605383 750
11.3999997600913 757
11.4199997596443 858
11.4399997591972 910
11.4599997587502 877
11.4799997583032 884
11.4999997578561 946
11.5199997574091 1007
11.5399997569621 973
11.559999756515 985
11.579999756068 880
11.599999755621 804
11.6199997551739 761
11.6399997547269 793
11.6599997542799 757
11.6799997538328 732
11.6999997533858 739
11.7199997529387 692
11.7399997524917 733
11.7599997520447 708
11.7799997515976 715
11.7999997511506 749
11.8199997507036 715
11.8399997502565 700
11.8599997498095 687
11.8799997493625 748
11.8999997489154 693
11.9199997484684 732
11.9399997480214 700
11.9599997475743 712
11.9799997471273 748
11.9999997466803 685
12.0199997462332 669
12.0399997457862 712
12.0599997453392 653
12.0799997448921 713
12.0999997444451 695
12.1199997439981 682
12.139999743551 710
12.159999743104 742
12.1799997426569 731
12.1999997422099 752
12.2199997417629 704
12.2399997413158 708
12.2599997408688 745
12.2799997404218 728
12.2999997399747 701
12.3199997395277 719
12.3399997390807 695
12.3599997386336 721
12.3799997381866 713
12.3999997377396 695
12.4199997372925 756
12.4399997368455 734
12.4599997363985 765
12.4799997359514 705
12.4999997355044 737
12.5199997350574 726
12.5399997346103 721
12.5599997341633 733
12.5799997337162 733
12.5999997332692 689
12.6199997328222 699
12.6399997323751 664
12.6599997319281 749
12.6799997314811 769
12.699999731034 756
12.719999730587 756
12.73999973014 678
12.7599997296929 731
12.7799997292459 698
12.7999997287989 703
12.8199997283518 716
12.8399997279048 725
12.8599997274578 703
12.8799997270107 728
12.8999997265637 746
12.9199997261167 677
12.9399997256696 729
12.9599997252226 765
12.9799997247756 691
12.9999997243285 717
13.0199997238815 749
13.0399997234344 741
13.0599997229874 760
13.0799997225404 705
13.0999997220933 709
13.1199997216463 724
13.1399997211993 784
13.1599997207522 824
13.1799997203052 771
13.1999997198582 777
13.2199997194111 805
13.2399997189641 833
13.2599997185171 833
13.27999971807 800
13.299999717623 803
13.319999717176 869
13.3399997167289 837
13.3599997162819 846
13.3799997158349 847
13.3999997153878 812
13.4199997149408 784
13.4399997144938 786
13.4599997140467 768
13.4799997135997 764
13.4999997131526 773
13.5199997127056 735
13.5399997122586 740
13.5599997118115 726
13.5799997113645 768
13.5999997109175 736
13.6199997104704 750
13.6399997100234 688
13.6599997095764 770
13.6799997091293 764
13.6999997086823 735
13.7199997082353 752
13.7399997077882 732
13.7599997073412 778
13.7799997068942 741
13.7999997064471 741
13.8199997060001 773
13.8399997055531 758
13.859999705106 785
13.879999704659 766
13.899999704212 765
13.9199997037649 733
13.9399997033179 746
13.9599997028708 759
13.9799997024238 753
13.9999997019768 796
14.0199997015297 782
14.0399997010827 743
14.0599997006357 788
14.0799997001886 779
14.0999996997416 780
14.1199996992946 827
14.1399996988475 770
14.1599996984005 771
14.1799996979535 795
14.1999996975064 809
14.2199996970594 771
14.2399996966124 783
14.2599996961653 771
14.2799996957183 788
14.2999996952713 839
14.3199996948242 807
14.3399996943772 804
14.3599996939301 826
14.3799996934831 842
14.3999996930361 907
14.419999692589 873
14.439999692142 865
14.459999691695 840
14.4799996912479 905
14.4999996908009 918
14.5199996903539 955
14.5399996899068 913
14.5599996894598 835
14.5799996890128 830
14.5999996885657 798
14.6199996881187 835
14.6399996876717 873
14.6599996872246 827
14.6799996867776 810
14.6999996863306 808
14.7199996858835 824
14.7399996854365 821
14.7599996849895 839
14.7799996845424 844
14.7999996840954 838
14.8199996836483 845
14.8399996832013 891
14.8599996827543 860
14.8799996823072 822
14.8999996818602 835
14.9199996814132 775
14.9399996809661 848
14.9599996805191 830
14.9799996800721 889
14.999999679625 831
15.019999679178 868
15.039999678731 846
15.0599996782839 822
15.0799996778369 860
15.0999996773899 844
15.1199996769428 877
15.1399996764958 909
15.1599996760488 859
15.1799996756017 872
15.1999996751547 819
15.2199996747077 878
15.2399996742606 846
15.2599996738136 845
15.2799996733665 885
15.2999996729195 842
15.3199996724725 887
15.3399996720254 838
15.3599996715784 854
15.3799996711314 900
15.3999996706843 895
15.4199996702373 878
15.4399996697903 869
15.4599996693432 933
15.4799996688962 877
15.4999996684492 865
15.5199996680021 915
15.5399996675551 862
15.5599996671081 859
15.579999666661 848
15.599999666214 920
15.619999665767 904
15.6399996653199 882
15.6599996648729 887
15.6799996644258 873
15.6999996639788 852
15.7199996635318 942
15.7399996630847 859
15.7599996626377 928
15.7799996621907 922
15.7999996617436 919
15.8199996612966 901
15.8399996608496 883
15.8599996604025 914
15.8799996599555 953
15.8999996595085 941
15.9199996590614 930
15.9399996586144 931
15.9599996581674 881
15.9799996577203 947
15.9999996572733 975
16.0199996568263 922
16.0399996563792 981
16.0599996559322 918
16.0799996554852 936
16.0999996550381 932
16.1199996545911 1026
16.139999654144 968
16.159999653697 921
16.17999965325 981
16.1999996528029 957
16.2199996523559 955
16.2399996519089 949
16.2599996514618 920
16.2799996510148 954
16.2999996505678 949
16.3199996501207 1024
16.3399996496737 964
16.3599996492267 978
16.3799996487796 961
16.3999996483326 973
16.4199996478856 982
16.4399996474385 995
16.4599996469915 1002
16.4799996465445 969
16.4999996460974 1033
16.5199996456504 1045
16.5399996452034 1006
16.5599996447563 1004
16.5799996443093 1009
16.5999996438622 1043
16.6199996434152 974
16.6399996429682 1057
16.6599996425211 1042
16.6799996420741 1049
16.6999996416271 1068
16.71999964118 1017
16.739999640733 1100
16.759999640286 1094
16.7799996398389 1024
16.7999996393919 1108
16.8199996389449 1052
16.8399996384978 1106
16.8599996380508 1137
16.8799996376038 1110
16.8999996371567 1054
16.9199996367097 1092
16.9399996362627 1190
16.9599996358156 1149
16.9799996353686 1142
16.9999996349216 1195
17.0199996344745 1194
17.0399996340275 1161
17.0599996335804 1165
17.0799996331334 1182
17.0999996326864 1185
17.1199996322393 1160
17.1399996317923 1139
17.1599996313453 1125
17.1799996308982 1193
17.1999996304512 1164
17.2199996300042 1195
17.2399996295571 1158
17.2599996291101 1191
17.2799996286631 1246
17.299999628216 1207
17.319999627769 1208
17.339999627322 1180
17.3599996268749 1169
17.3799996264279 1169
17.3999996259809 1124
17.4199996255338 1163
17.4399996250868 1132
17.4599996246398 1125
17.4799996241927 1174
17.4999996237457 1187
17.5199996232986 1120
17.5399996228516 1168
17.5599996224046 1161
17.5799996219575 1208
17.5999996215105 1157
17.6199996210635 1141
17.6399996206164 1159
17.6599996201694 1167
17.6799996197224 1132
17.6999996192753 1214
17.7199996188283 1107
17.7399996183813 1235
17.7599996179342 1228
17.7799996174872 1221
17.7999996170402 1159
17.8199996165931 1205
17.8399996161461 1225
17.8599996156991 1204
17.879999615252 1230
17.899999614805 1253
17.9199996143579 1257
17.9399996139109 1322
17.9599996134639 1234
17.9799996130168 1227
17.9999996125698 1263
18.0199996121228 1262
18.0399996116757 1289
18.0599996112287 1261
18.0799996107817 1213
18.0999996103346 1232
18.1199996098876 1220
18.1399996094406 1243
18.1599996089935 1274
18.1799996085465 1273
18.1999996080995 1275
18.2199996076524 1212
18.2399996072054 1258
18.2599996067584 1312
18.2799996063113 1290
18.2999996058643 1347
18.3199996054173 1272
18.3399996049702 1321
18.3599996045232 1373
18.3799996040761 1265
18.3999996036291 1290
18.4199996031821 1292
18.439999602735 1306
18.459999602288 1320
18.479999601841 1326
18.4999996013939 1356
18.5199996009469 1370
18.5399996004999 1355
18.5599996000528 1333
18.5799995996058 1331
18.5999995991588 1442
18.6199995987117 1346
18.6399995982647 1351
18.6599995978177 1395
18.6799995973706 1358
18.6999995969236 1368
18.7199995964766 1350
18.7399995960295 1387
18.7599995955825 1376
18.7799995951354 1396
18.7999995946884 1396
18.8199995942414 1415
18.8399995937943 1378
18.8599995933473 1374
18.8799995929003 1435
18.8999995924532 1351
18.9199995920062 1377
18.9399995915592 1431
18.9599995911121 1377
18.9799995906651 1382
18.9999995902181 1375
19.019999589771 1514
19.039999589324 1358
19.059999588877 1487
19.0799995884299 1485
19.0999995879829 1520
19.1199995875359 1477
19.1399995870888 1474
19.1599995866418 1546
19.1799995861948 1434
19.1999995857477 1448
19.2199995853007 1447
19.2399995848536 1488
19.2599995844066 1517
19.2799995839596 1483
19.2999995835125 1413
19.3199995830655 1485
19.3399995826185 1409
19.3599995821714 1471
19.3799995817244 1431
19.3999995812774 1548
19.4199995808303 1569
19.4399995803833 1577
19.4599995799363 1480
19.4799995794892 1465
19.4999995790422 1618
19.5199995785952 1576
19.5399995781481 1685
19.5599995777011 1708
19.5799995772541 1744
19.599999576807 1766
19.61999957636 1835
19.639999575913 1885
19.6599995754659 1877
19.6799995750189 1818
19.6999995745718 1886
19.7199995741248 1761
19.7399995736778 1739
19.7599995732307 1728
19.7799995727837 1642
19.7999995723367 1734
19.8199995718896 1713
19.8399995714426 1828
19.8599995709956 1822
19.8799995705485 1938
19.8999995701015 1918
19.9199995696545 2067
19.9399995692074 2048
19.9599995687604 1947
19.9799995683134 2022
19.9999995678663 1956
20.0199995674193 1823
20.0399995669723 1742
20.0599995665252 1683
20.0799995660782 1674
20.0999995656312 1569
20.1199995651841 1569
20.1399995647371 1539
20.15999956429 1581
20.179999563843 1600
20.199999563396 1642
20.2199995629489 1606
20.2399995625019 1663
20.2599995620549 1667
20.2799995616078 1604
20.2999995611608 1539
20.3199995607138 1628
20.3399995602667 1622
20.3599995598197 1632
20.3799995593727 1683
20.3999995589256 1632
20.4199995584786 1640
20.4399995580316 1616
20.4599995575845 1643
20.4799995571375 1598
20.4999995566905 1628
20.5199995562434 1542
20.5399995557964 1578
20.5599995553494 1614
20.5799995549023 1600
20.5999995544553 1648
20.6199995540082 1597
20.6399995535612 1632
20.6599995531142 1661
20.6799995526671 1672
20.6999995522201 1673
20.7199995517731 1608
20.739999551326 1645
20.759999550879 1695
20.779999550432 1653
20.7999995499849 1618
20.8199995495379 1664
20.8399995490909 1632
20.8599995486438 1624
20.8799995481968 1556
20.8999995477498 1593
20.9199995473027 1653
20.9399995468557 1571
20.9599995464087 1636
20.9799995459616 1665
20.9999995455146 1600
21.0199995450675 1666
21.0399995446205 1605
21.0599995441735 1603
21.0799995437264 1684
21.0999995432794 1629
21.1199995428324 1670
21.1399995423853 1636
21.1599995419383 1628
21.1799995414913 1602
21.1999995410442 1620
21.2199995405972 1623
21.2399995401502 1607
21.2599995397031 1592
21.2799995392561 1619
21.2999995388091 1587
21.319999538362 1664
21.339999537915 1657
21.359999537468 1615
21.3799995370209 1627
21.3999995365739 1664
21.4199995361269 1683
21.4399995356798 1585
21.4599995352328 1649
21.4799995347857 1705
21.4999995343387 1652
21.5199995338917 1631
21.5399995334446 1632
21.5599995329976 1670
21.5799995325506 1605
21.5999995321035 1736
21.6199995316565 1648
21.6399995312095 1682
21.6599995307624 1689
21.6799995303154 1706
21.6999995298684 1669
21.7199995294213 1668
21.7399995289743 1724
21.7599995285273 1742
21.7799995280802 1718
21.7999995276332 1756
21.8199995271862 1733
21.8399995267391 1756
21.8599995262921 1776
21.879999525845 1679
21.899999525398 1712
21.919999524951 1683
21.9399995245039 1658
21.9599995240569 1653
21.9799995236099 1620
21.9999995231628 1610
22.0199995227158 1608
22.0399995222688 1622
22.0599995218217 1669
22.0799995213747 1673
22.0999995209277 1553
22.1199995204806 1606
22.1399995200336 1525
22.1599995195866 1580
22.1799995191395 1617
22.1999995186925 1593
22.2199995182455 1617
22.2399995177984 1561
22.2599995173514 1550
22.2799995169044 1580
22.2999995164573 1602
22.3199995160103 1527
22.3399995155632 1500
22.3599995151162 1587
22.3799995146692 1504
22.3999995142221 1532
22.4199995137751 1573
22.4399995133281 1568
22.459999512881 1569
22.479999512434 1492
22.499999511987 1530
22.5199995115399 1571
22.5399995110929 1581
22.5599995106459 1512
22.5799995101988 1540
22.5999995097518 1480
22.6199995093048 1471
22.6399995088577 1456
22.6599995084107 1511
22.6799995079637 1516
22.6999995075166 1518
22.7199995070696 1505
22.7399995066226 1494
22.7599995061755 1536
22.7799995057285 1504
22.7999995052814 1498
22.8199995048344 1468
22.8399995043874 1529
22.8599995039403 1505
22.8799995034933 1506
22.8999995030463 1484
22.9199995025992 1537
22.9399995021522 1457
22.9599995017052 1508
22.9799995012581 1519
22.9999995008111 1477
23.0199995003641 1505
23.039999499917 1498
23.05999949947 1572
23.079999499023 1476
23.0999994985759 1543
23.1199994981289 1500
23.1399994976819 1451
23.1599994972348 1470
23.1799994967878 1476
23.1999994963408 1523
23.2199994958937 1430
23.2399994954467 1429
23.2599994949996 1409
23.2799994945526 1431
23.2999994941056 1411
23.3199994936585 1415
23.3399994932115 1439
23.3599994927645 1415
23.3799994923174 1403
23.3999994918704 1459
23.4199994914234 1484
23.4399994909763 1405
23.4599994905293 1332
23.4799994900823 1378
23.4999994896352 1384
23.5199994891882 1319
23.5399994887412 1424
23.5599994882941 1473
23.5799994878471 1419
23.5999994874001 1417
23.619999486953 1446
23.639999486506 1503
23.659999486059 1586
23.6799994856119 1574
23.6999994851649 1616
23.7199994847178 1750
23.7399994842708 1794
23.7599994838238 1758
23.7799994833767 1693
23.7999994829297 1726
23.8199994824827 1621
23.8399994820356 1599
23.8599994815886 1565
23.8799994811416 1495
23.8999994806945 1424
23.9199994802475 1457
23.9399994798005 1413
23.9599994793534 1378
23.9799994789064 1379
23.9999994784594 1409
24.0199994780123 1334
24.0399994775653 1326
24.0599994771183 1336
24.0799994766712 1298
24.0999994762242 1305
24.1199994757771 1323
24.1399994753301 1294
24.1599994748831 1231
24.179999474436 1310
24.199999473989 1284
24.219999473542 1232
24.2399994730949 1309
24.2599994726479 1251
24.2799994722009 1280
24.2999994717538 1228
24.3199994713068 1310
24.3399994708598 1303
24.3599994704127 1209
24.3799994699657 1253
24.3999994695187 1231
24.4199994690716 1215
24.4399994686246 1291
24.4599994681776 1278
24.4799994677305 1271
24.4999994672835 1216
24.5199994668365 1273
24.5399994663894 1247
24.5599994659424 1254
24.5799994654953 1236
24.5999994650483 1306
24.6199994646013 1261
24.6399994641542 1321
24.6599994637072 1233
24.6799994632602 1251
24.6999994628131 1281
24.7199994623661 1251
24.7399994619191 1253
24.759999461472 1279
24.779999461025 1264
24.799999460578 1334
24.8199994601309 1334
24.8399994596839 1396
24.8599994592369 1465
24.8799994587898 1370
24.8999994583428 1443
24.9199994578958 1520
24.9399994574487 1470
24.9599994570017 1457
24.9799994565547 1378
24.9999994561076 1268
25.0199994556606 1275
25.0399994552135 1233
25.0599994547665 1232
25.0799994543195 1179
25.0999994538724 1227
25.1199994534254 1191
25.1399994529784 1200
25.1599994525313 1212
25.1799994520843 1179
25.1999994516373 1176
25.2199994511902 1207
25.2399994507432 1193
25.2599994502962 1238
25.2799994498491 1196
25.2999994494021 1193
25.3199994489551 1245
25.339999448508 1224
25.359999448061 1194
25.379999447614 1200
25.3999994471669 1216
25.4199994467199 1216
25.4399994462729 1239
25.4599994458258 1368
25.4799994453788 1341
25.4999994449317 1372
25.5199994444847 1464
25.5399994440377 1500
25.5599994435906 1558
25.5799994431436 1584
25.5999994426966 1504
25.6199994422495 1461
25.6399994418025 1336
25.6599994413555 1352
25.6799994409084 1243
25.6999994404614 1197
25.7199994400144 1170
25.7399994395673 1168
25.7599994391203 1130
25.7799994386733 1126
25.7999994382262 1088
25.8199994377792 1063
25.8399994373322 1120
25.8599994368851 1109
25.8799994364381 1129
25.899999435991 1089
25.919999435544 1037
25.939999435097 1056
25.9599994346499 1059
25.9799994342029 1068
25.9999994337559 991
26.0199994333088 1005
26.0399994328618 1025
26.0599994324148 1091
26.0799994319677 1030
26.0999994315207 1066
26.1199994310737 1042
26.1399994306266 1099
26.1599994301796 1057
26.1799994297326 1016
26.1999994292855 1040
26.2199994288385 1008
26.2399994283915 1018
26.2599994279444 1004
26.2799994274974 1043
26.2999994270504 1066
26.3199994266033 999
26.3399994261563 1061
26.3599994257092 998
26.3799994252622 1003
26.3999994248152 1046
26.4199994243681 1009
26.4399994239211 1057
26.4599994234741 1087
26.479999423027 1038
26.49999942258 1107
26.519999422133 1072
26.5399994216859 1118
26.5599994212389 1172
26.5799994207919 1228
26.5999994203448 1249
26.6199994198978 1285
26.6399994194508 1370
26.6599994190037 1332
26.6799994185567 1287
26.6999994181097 1300
26.7199994176626 1204
26.7399994172156 1158
26.7599994167686 1194
26.7799994163215 1110
26.7999994158745 1098
26.8199994154274 1116
26.8399994149804 1060
26.8599994145334 1046
26.8799994140863 1031
26.8999994136393 1073
26.9199994131923 1140
26.9399994127452 1051
26.9599994122982 1127
26.9799994118512 1075
26.9999994114041 1026
27.0199994109571 1104
27.0399994105101 1033
27.059999410063 958
27.079999409616 998
27.099999409169 1003
27.1199994087219 1008
27.1399994082749 975
27.1599994078279 981
27.1799994073808 943
27.1999994069338 948
27.2199994064867 984
27.2399994060397 986
27.2599994055927 962
27.2799994051456 975
27.2999994046986 984
27.3199994042516 999
27.3399994038045 1028
27.3599994033575 1080
27.3799994029105 1129
27.3999994024634 1166
27.4199994020164 1195
27.4399994015694 1282
27.4599994011223 1288
27.4799994006753 1293
27.4999994002283 1278
27.5199993997812 1272
27.5399993993342 1201
27.5599993988872 1141
27.5799993984401 1153
27.5999993979931 1056
27.6199993975461 980
27.639999397099 1005
27.659999396652 952
27.6799993962049 979
27.6999993957579 920
27.7199993953109 931
27.7399993948638 939
27.7599993944168 875
27.7799993939698 938
27.7999993935227 979
27.8199993930757 921
27.8399993926287 897
27.8599993921816 923
27.8799993917346 917
27.8999993912876 944
27.9199993908405 867
27.9399993903935 864
27.9599993899465 934
27.9799993894994 903
27.9999993890524 932
28.0199993886054 932
28.0399993881583 943
28.0599993877113 979
28.0799993872643 946
28.0999993868172 874
28.1199993863702 964
28.1399993859231 1029
28.1599993854761 989
28.1799993850291 999
28.199999384582 1003
28.219999384135 1065
28.239999383688 1051
28.2599993832409 1021
28.2799993827939 1049
28.2999993823469 985
28.3199993818998 995
28.3399993814528 997
28.3599993810058 998
28.3799993805587 955
28.3999993801117 926
28.4199993796647 929
28.4399993792176 907
28.4599993787706 903
28.4799993783236 932
28.4999993778765 880
28.5199993774295 906
28.5399993769825 943
28.5599993765354 913
28.5799993760884 922
28.5999993756413 893
28.6199993751943 884
28.6399993747473 892
28.6599993743002 916
28.6799993738532 950
28.6999993734062 907
28.7199993729591 1006
28.7399993725121 931
28.7599993720651 1029
28.779999371618 981
28.799999371171 1093
28.819999370724 1137
28.8399993702769 1159
28.8599993698299 1137
28.8799993693829 1164
28.8999993689358 1285
28.9199993684888 1219
28.9399993680418 1152
28.9599993675947 1103
28.9799993671477 1150
28.9999993667006 1175
29.0199993662536 1122
29.0399993658066 1196
29.0599993653595 1138
29.0799993649125 1135
29.0999993644655 1172
29.1199993640184 1161
29.1399993635714 1055
29.1599993631244 1091
29.1799993626773 963
29.1999993622303 982
29.2199993617833 946
29.2399993613362 878
29.2599993608892 850
29.2799993604422 870
29.2999993599951 891
29.3199993595481 928
29.3399993591011 857
29.359999358654 882
29.379999358207 854
29.39999935776 806
29.4199993573129 879
29.4399993568659 842
29.4599993564188 840
29.4799993559718 882
29.4999993555248 855
29.5199993550777 819
29.5399993546307 858
29.5599993541837 814
29.5799993537366 848
29.5999993532896 861
29.6199993528426 832
29.6399993523955 832
29.6599993519485 827
29.6799993515015 884
29.6999993510544 874
29.7199993506074 865
29.7399993501604 850
29.7599993497133 826
29.7799993492663 877
29.7999993488193 809
29.8199993483722 849
29.8399993479252 842
29.8599993474782 874
29.8799993470311 825
29.8999993465841 786
29.919999346137 792
29.93999934569 848
29.959999345243 830
29.9799993447959 828
29.9999993443489 791
