3 2191
3.01999999955297 1969
3.03999999910593 1861
3.0599999986589 1684
3.07999999821186 1672
3.09999999776483 1544
3.11999999731779 1501
3.13999999687076 1518
3.15999999642372 1488
3.17999999597669 1467
3.19999999552965 1421
3.21999999508262 1392
3.23999999463558 1440
3.25999999418855 1379
3.27999999374151 1388
3.29999999329448 1371
3.31999999284744 1313
3.33999999240041 1348
3.35999999195337 1322
3.37999999150634 1317
3.3999999910593 1306
3.41999999061227 1352
3.43999999016523 1353
3.4599999897182 1255
3.47999998927116 1240
3.49999998882413 1280
3.51999998837709 1232
3.53999998793006 1238
3.55999998748302 1236
3.57999998703599 1160
3.59999998658895 1168
3.61999998614192 1094
3.63999998569489 1215
3.65999998524785 1112
3.67999998480082 1186
3.69999998435378 1078
3.71999998390675 1135
3.73999998345971 1083
3.75999998301268 1115
3.77999998256564 1095
3.79999998211861 1036
3.81999998167157 1122
3.83999998122454 1102
3.8599999807775 1090
3.87999998033047 1050
3.89999997988343 1086
3.9199999794364 1081
3.93999997898936 1081
3.95999997854233 1143
3.97999997809529 1011
3.99999997764826 1072
4.01999997720122 1059
4.03999997675419 999
4.05999997630715 1013
4.07999997586012 999
4.09999997541308 1045
4.11999997496605 1011
4.13999997451901 986
4.15999997407198 1037
4.17999997362494 1001
4.19999997317791 1006
4.21999997273087 999
4.23999997228384 993
4.25999997183681 1024
4.27999997138977 1007
4.29999997094274 960
4.3199999704957 1008
4.33999997004867 987
4.35999996960163 986
4.3799999691546 902
4.39999996870756 931
4.41999996826053 993
4.43999996781349 943
4.45999996736646 956
4.47999996691942 891
4.49999996647239 984
4.51999996602535 960
4.53999996557832 922
4.55999996513128 901
4.57999996468425 905
4.59999996423721 915
4.61999996379018 956
4.63999996334314 954
4.65999996289611 931
4.67999996244907 919
4.69999996200204 892
4.719999961555 901
4.73999996110797 941
4.75999996066093 887
4.7799999602139 1031
4.79999995976686 954
4.81999995931983 906
4.83999995887279 879
4.85999995842576 869
4.87999995797873 921
4.89999995753169 917
4.91999995708466 922
4.93999995663762 957
4.95999995619059 957
4.97999995574355 943
4.99999995529652 931
5.01999995484948 954
5.03999995440245 960
5.05999995395541 913
5.07999995350838 893
5.09999995306134 946
5.11999995261431 921
5.13999995216727 940
5.15999995172024 1009
5.1799999512732 933
5.19999995082617 1008
5.21999995037913 934
5.2399999499321 960
5.25999994948506 929
5.27999994903803 1010
5.29999994859099 998
5.31999994814396 1000
5.33999994769692 977
5.35999994724989 1014
5.37999994680285 982
5.39999994635582 1076
5.41999994590878 1055
5.43999994546175 1003
5.45999994501471 1047
5.47999994456768 1121
5.49999994412065 1143
5.51999994367361 1184
5.53999994322658 1115
5.55999994277954 1173
5.57999994233251 1230
5.59999994188547 1262
5.61999994143844 1293
5.6399999409914 1358
5.65999994054437 1418
5.67999994009733 1395
5.6999999396503 1493
5.71999993920326 1623
5.73999993875623 1737
5.75999993830919 1817
5.77999993786216 1965
5.79999993741512 2171
5.81999993696809 2454
5.83999993652105 2770
5.85999993607402 2916
5.87999993562698 2652
5.89999993517995 1960
5.91999993473291 1240
5.93999993428588 1011
5.95999993383884 874
5.97999993339181 921
5.99999993294477 939
6.01999993249774 839
6.0399999320507 860
6.05999993160367 864
6.07999993115663 888
6.0999999307096 909
6.11999993026257 852
6.13999992981553 869
6.1599999293685 853
6.17999992892146 895
6.19999992847443 828
6.21999992802739 904
6.23999992758036 827
6.25999992713332 891
6.27999992668629 871
6.29999992623925 838
6.31999992579222 926
6.33999992534518 914
6.35999992489815 867
6.37999992445111 898
6.39999992400408 914
6.41999992355704 929
6.43999992311001 930
6.45999992266297 993
6.47999992221594 1005
6.4999999217689 1004
6.51999992132187 1027
6.53999992087483 998
6.5599999204278 1067
6.57999991998076 1160
6.59999991953373 1189
6.61999991908669 1231
6.63999991863966 1377
6.65999991819262 1387
6.67999991774559 1481
6.69999991729855 1685
6.71999991685152 1868
6.73999991640449 1922
6.75999991595745 1890
6.77999991551042 1490
6.79999991506338 938
6.81999991461635 808
6.83999991416931 789
6.85999991372228 779
6.87999991327524 728
6.89999991282821 787
6.91999991238117 770
6.93999991193414 761
6.9599999114871 776
6.97999991104007 759
6.99999991059303 746
7.019999910146 806
7.03999990969896 727
7.05999990925193 694
7.07999990880489 710
7.09999990835786 721
7.11999990791082 704
7.13999990746379 730
7.15999990701675 777
7.17999990656972 714
7.19999990612268 757
7.21999990567565 705
7.23999990522861 670
7.25999990478158 714
7.27999990433454 751
7.29999990388751 751
7.31999990344047 720
7.33999990299344 742
7.35999990254641 673
7.37999990209937 720
7.39999990165234 686
7.4199999012053 729
7.43999990075827 706
7.45999990031123 683
7.4799998998642 678
7.49999989941716 706
7.51999989897013 715
7.53999989852309 708
7.55999989807606 665
7.57999989762902 710
7.59999989718199 759
7.61999989673495 688
7.63999989628792 671
7.65999989584088 685
7.67999989539385 686
7.69999989494681 724
7.71999989449978 742
7.73999989405274 725
7.75999989360571 692
7.77999989315867 710
7.79999989271164 722
7.8199998922646 725
7.83999989181757 748
7.85999989137053 754
7.8799998909235 702
7.89999989047646 743
7.91999989002943 686
7.9399998895824 686
7.95999988913536 676
7.97999988868833 696
7.99999988824129 696
8.01999988779426 701
8.03999988734722 715
8.05999988690019 688
8.07999988645315 668
8.09999988600612 668
8.11999988555908 696
8.13999988511205 690
8.15999988466501 695
8.17999988421798 693
8.19999988377094 693
8.21999988332391 693
8.23999988287687 716
8.25999988242984 681
8.2799998819828 670
8.29999988153577 696
8.31999988108873 683
8.3399998806417 744
8.35999988019466 718
8.37999987974763 722
8.39999987930059 689
8.41999987885356 716
8.43999987840652 720
8.45999987795949 726
8.47999987751245 746
8.49999987706542 709
8.51999987661839 696
8.53999987617135 723
8.55999987572432 684
8.57999987527728 700
8.59999987483025 734
8.61999987438321 722
8.63999987393618 686
8.65999987348914 704
8.67999987304211 731
8.69999987259507 691
8.71999987214804 694
8.739999871701 698
8.75999987125397 724
8.77999987080693 722
8.7999998703599 693
8.81999986991286 703
8.83999986946583 745
8.85999986901879 711
8.87999986857176 762
8.89999986812472 728
8.91999986767769 725
8.93999986723065 748
8.95999986678362 730
8.97999986633658 698
8.99999986588955 747
9.01999986544251 784
9.03999986499548 773
9.05999986454844 762
9.07999986410141 739
9.09999986365438 780
9.11999986320734 812
9.13999986276031 799
9.15999986231327 758
9.17999986186624 828
9.1999998614192 809
9.21999986097217 864
9.23999986052513 864
9.2599998600781 883
9.27999985963106 910
9.29999985918403 957
9.31999985873699 995
9.33999985828996 1029
9.35999985784292 1139
9.37999985739589 1212
9.39999985694885 1277
9.41999985650182 1375
9.43999985605478 1573
9.45999985560775 1686
9.47999985516071 1633
9.49999985471368 1380
9.51999985426664 1135
9.53999985381961 832
9.55999985337257 735
9.57999985292554 711
9.5999998524785 796
9.61999985203147 708
9.63999985158443 734
9.6599998511374 694
9.67999985069037 672
9.69999985024333 756
9.7199998497963 723
9.73999984934926 717
9.75999984890223 718
9.77999984845519 720
9.79999984800816 718
9.81999984756112 719
9.83999984711409 724
9.85999984666705 741
9.87999984622002 662
9.89999984577298 775
9.91999984532595 699
9.93999984487891 677
9.95999984443188 722
9.97999984398484 716
9.99999984353781 710
10.0199998430908 755
10.0399998426437 697
10.0599998421967 692
10.0799998417497 701
10.0999998413026 666
10.1199998408556 755
10.1399998404086 723
10.1599998399615 730
10.1799998395145 685
10.1999998390675 692
10.2199998386204 771
10.2399998381734 707
10.2599998377264 743
10.2799998372793 732
10.2999998368323 721
10.3199998363853 710
10.3399998359382 720
10.3599998354912 713
10.3799998350441 737
10.3999998345971 702
10.4199998341501 750
10.439999833703 722
10.459999833256 688
10.479999832809 683
10.4999998323619 764
10.5199998319149 706
10.5399998314679 695
10.5599998310208 724
10.5799998305738 710
10.5999998301268 730
10.6199998296797 740
10.6399998292327 764
10.6599998287857 767
10.6799998283386 803
10.6999998278916 746
10.7199998274446 781
10.7399998269975 794
10.7599998265505 814
10.7799998261034 773
10.7999998256564 807
10.8199998252094 872
10.8399998247623 898
10.8599998243153 897
10.8799998238683 968
10.8999998234212 941
10.9199998229742 1040
10.9399998225272 1078
10.9599998220801 1169
10.9799998216331 1262
10.9999998211861 1323
11.019999820739 1415
11.039999820292 1552
11.059999819845 1663
11.0799998193979 1649
11.0999998189509 1592
11.1199998185039 1270
11.1399998180568 1020
11.1599998176098 815
11.1799998171628 774
11.1999998167157 777
11.2199998162687 821
11.2399998158216 807
11.2599998153746 801
11.2799998149276 807
11.2999998144805 772
11.3199998140335 778
11.3399998135865 803
11.3599998131394 879
11.3799998126924 816
11.3999998122454 883
11.4199998117983 890
11.4399998113513 927
11.4599998109043 942
11.4799998104572 1045
11.4999998100102 1079
11.5199998095632 1160
11.5399998091161 1177
11.5599998086691 1158
11.5799998082221 1191
11.599999807775 1090
11.619999807328 888
11.639999806881 844
11.6599998064339 767
11.6799998059869 767
11.6999998055398 737
11.7199998050928 770
11.7399998046458 737
11.7599998041987 776
11.7799998037517 736
11.7999998033047 788
11.8199998028576 743
11.8399998024106 749
11.8599998019636 753
11.8799998015165 774
11.8999998010695 736
11.9199998006225 767
11.9399998001754 707
11.9599997997284 750
11.9799997992814 735
11.9999997988343 765
12.0199997983873 748
12.0399997979403 758
12.0599997974932 789
12.0799997970462 743
12.0999997965992 777
12.1199997961521 769
12.1399997957051 755
12.159999795258 751
12.179999794811 770
12.199999794364 786
12.2199997939169 727
12.2399997934699 739
12.2599997930229 734
12.2799997925758 761
12.2999997921288 733
12.3199997916818 721
12.3399997912347 762
12.3599997907877 747
12.3799997903407 790
12.3999997898936 740
12.4199997894466 769
12.4399997889996 795
12.4599997885525 784
12.4799997881055 737
12.4999997876585 774
12.5199997872114 739
12.5399997867644 761
12.5599997863173 718
12.5799997858703 749
12.5999997854233 754
12.6199997849762 729
12.6399997845292 763
12.6599997840822 710
12.6799997836351 763
12.6999997831881 791
12.7199997827411 768
12.739999782294 770
12.759999781847 816
12.7799997814 774
12.7999997809529 764
12.8199997805059 740
12.8399997800589 792
12.8599997796118 775
12.8799997791648 845
12.8999997787178 763
12.9199997782707 792
12.9399997778237 829
12.9599997773767 775
12.9799997769296 766
12.9999997764826 797
13.0199997760355 806
13.0399997755885 778
13.0599997751415 794
13.0799997746944 762
13.0999997742474 844
13.1199997738004 823
13.1399997733533 830
13.1599997729063 845
13.1799997724593 845
13.1999997720122 858
13.2199997715652 920
13.2399997711182 898
13.2599997706711 912
13.2799997702241 955
13.2999997697771 989
13.31999976933 1000
13.339999768883 952
13.359999768436 947
13.3799997679889 863
13.3999997675419 854
13.4199997670949 824
13.4399997666478 859
13.4599997662008 806
13.4799997657537 825
13.4999997653067 805
13.5199997648597 803
13.5399997644126 823
13.5599997639656 791
13.5799997635186 787
13.5999997630715 816
13.6199997626245 780
13.6399997621775 776
13.6599997617304 819
13.6799997612834 809
13.6999997608364 782
13.7199997603893 842
13.7399997599423 869
13.7599997594953 857
13.7799997590482 841
13.7999997586012 834
13.8199997581542 829
13.8399997577071 850
13.8599997572601 799
13.879999756813 790
13.899999756366 777
13.919999755919 839
13.9399997554719 828
13.9599997550249 866
13.9799997545779 794
13.9999997541308 813
14.0199997536838 793
14.0399997532368 817
14.0599997527897 864
14.0799997523427 841
14.0999997518957 843
14.1199997514486 909
14.1399997510016 812
14.1599997505546 885
14.1799997501075 883
14.1999997496605 858
14.2199997492135 865
14.2399997487664 854
14.2599997483194 875
14.2799997478724 866
14.2999997474253 903
14.3199997469783 900
14.3399997465312 942
14.3599997460842 915
14.3799997456372 917
14.3999997451901 952
14.4199997447431 921
14.4399997442961 923
14.459999743849 1019
14.479999743402 1045
14.499999742955 1060
14.5199997425079 1041
14.5399997420609 1054
14.5599997416139 1055
14.5799997411668 931
14.5999997407198 887
14.6199997402728 964
14.6399997398257 906
14.6599997393787 888
14.6799997389317 978
14.6999997384846 889
14.7199997380376 880
14.7399997375906 913
14.7599997371435 928
14.7799997366965 984
14.7999997362494 918
14.8199997358024 979
14.8399997353554 958
14.8599997349083 914
14.8799997344613 923
14.8999997340143 910
14.9199997335672 1000
14.9399997331202 938
14.9599997326732 913
14.9799997322261 882
14.9999997317791 932
15.0199997313321 968
15.039999730885 953
15.059999730438 894
15.079999729991 914
15.0999997295439 945
15.1199997290969 945
15.1399997286499 939
15.1599997282028 897
15.1799997277558 966
15.1999997273088 957
15.2199997268617 952
15.2399997264147 946
15.2599997259676 977
15.2799997255206 994
15.2999997250736 986
15.3199997246265 958
15.3399997241795 919
15.3599997237325 938
15.3799997232854 997
15.3999997228384 992
15.4199997223914 987
15.4399997219443 999
15.4599997214973 1005
15.4799997210503 976
15.4999997206032 968
15.5199997201562 985
15.5399997197092 975
15.5599997192621 992
15.5799997188151 1024
15.5999997183681 986
15.619999717921 972
15.639999717474 958
15.659999717027 950
15.6799997165799 1017
15.6999997161329 1005
15.7199997156858 1076
15.7399997152388 1002
15.7599997147918 992
15.7799997143447 990
15.7999997138977 1059
15.8199997134507 1038
15.8399997130036 1030
15.8599997125566 1070
15.8799997121096 1085
15.8999997116625 1060
15.9199997112155 1052
15.9399997107685 1082
15.9599997103214 1080
15.9799997098744 1036
15.9999997094274 1048
16.0199997089803 1048
16.0399997085333 1001
16.0599997080863 1050
16.0799997076392 1009
16.0999997071922 1054
16.1199997067451 1093
16.1399997062981 1118
16.1599997058511 1089
16.179999705404 1114
16.199999704957 1074
16.21999970451 1076
16.2399997040629 1103
16.2599997036159 1130
16.2799997031689 1100
16.2999997027218 1126
16.3199997022748 1133
16.3399997018278 1086
16.3599997013807 1064
16.3799997009337 1113
16.3999997004867 1124
16.4199997000396 1118
16.4399996995926 1063
16.4599996991456 1054
16.4799996986985 1183
16.4999996982515 1110
16.5199996978045 1107
16.5399996973574 1120
16.5599996969104 1146
16.5799996964633 1119
16.5999996960163 1206
16.6199996955693 1157
16.6399996951222 1253
16.6599996946752 1167
16.6799996942282 1167
16.6999996937811 1146
16.7199996933341 1177
16.7399996928871 1213
16.75999969244 1150
16.779999691993 1132
16.799999691546 1173
16.8199996910989 1190
16.8399996906519 1206
16.8599996902049 1182
16.8799996897578 1179
16.8999996893108 1181
16.9199996888638 1220
16.9399996884167 1268
16.9599996879697 1256
16.9799996875226 1283
16.9999996870756 1311
17.0199996866286 1256
17.0399996861815 1275
17.0599996857345 1243
17.0799996852875 1294
17.0999996848404 1299
17.1199996843934 1291
17.1399996839464 1310
17.1599996834993 1286
17.1799996830523 1380
17.1999996826053 1401
17.2199996821582 1457
17.2399996817112 1485
17.2599996812642 1432
17.2799996808171 1454
17.2999996803701 1481
17.3199996799231 1538
17.339999679476 1458
17.359999679029 1379
17.379999678582 1323
17.3999996781349 1340
17.4199996776879 1377
17.4399996772408 1259
17.4599996767938 1314
17.4799996763468 1277
17.4999996758997 1292
17.5199996754527 1384
17.5399996750057 1340
17.5599996745586 1332
17.5799996741116 1361
17.5999996736646 1382
17.6199996732175 1323
17.6399996727705 1431
17.6599996723235 1366
17.6799996718764 1361
17.6999996714294 1376
17.7199996709824 1419
17.7399996705353 1466
17.7599996700883 1443
17.7799996696413 1398
17.7999996691942 1386
17.8199996687472 1475
17.8399996683002 1423
17.8599996678531 1403
17.8799996674061 1462
17.899999666959 1439
17.919999666512 1460
17.939999666065 1435
17.9599996656179 1374
17.9799996651709 1476
17.9999996647239 1488
18.0199996642768 1575
18.0399996638298 1478
18.0599996633828 1464
18.0799996629357 1480
18.0999996624887 1461
18.1199996620417 1513
18.1399996615946 1456
18.1599996611476 1514
18.1799996607006 1588
18.1999996602535 1558
18.2199996598065 1464
18.2399996593595 1510
18.2599996589124 1446
18.2799996584654 1461
18.2999996580184 1494
18.3199996575713 1492
18.3399996571243 1474
18.3599996566772 1551
18.3799996562302 1556
18.3999996557832 1529
18.4199996553361 1548
18.4399996548891 1542
18.4599996544421 1570
18.479999653995 1571
18.499999653548 1536
18.519999653101 1560
18.5399996526539 1589
18.5599996522069 1574
18.5799996517599 1601
18.5999996513128 1659
18.6199996508658 1553
18.6399996504188 1676
18.6599996499717 1545
18.6799996495247 1602
18.6999996490777 1689
18.7199996486306 1635
18.7399996481836 1662
18.7599996477366 1619
18.7799996472895 1529
18.7999996468425 1701
18.8199996463954 1629
18.8399996459484 1680
18.8599996455014 1675
18.8799996450543 1687
18.8999996446073 1663
18.9199996441603 1645
18.9399996437132 1722
18.9599996432662 1705
18.9799996428192 1647
18.9999996423721 1704
19.0199996419251 1593
19.0399996414781 1626
19.059999641031 1710
19.079999640584 1714
19.099999640137 1767
19.1199996396899 1743
19.1399996392429 1720
19.1599996387959 1718
19.1799996383488 1749
19.1999996379018 1803
19.2199996374547 1709
19.2399996370077 1818
19.2599996365607 1756
19.2799996361136 1773
19.2999996356666 1838
19.3199996352196 1782
19.3399996347725 1711
19.3599996343255 1751
19.3799996338785 1792
19.3999996334314 1819
19.4199996329844 1828
19.4399996325374 1862
19.4599996320903 1805
19.4799996316433 1892
19.4999996311963 1901
19.5199996307492 1976
19.5399996303022 1933
19.5599996298552 2045
19.5799996294081 2144
19.5999996289611 2284
19.6199996285141 2264
19.639999628067 2346
19.65999962762 2442
19.6799996271729 2513
19.6999996267259 2480
19.7199996262789 2355
19.7399996258318 2253
19.7599996253848 2193
19.7799996249378 2194
19.7999996244907 2037
19.8199996240437 2064
19.8399996235967 2204
19.8599996231496 2369
19.8799996227026 2514
19.8999996222556 2538
19.9199996218085 2636
19.9399996213615 2704
19.9599996209145 2738
19.9799996204674 2690
19.9999996200204 2589
20.0199996195734 2330
20.0399996191263 2153
20.0599996186793 2137
20.0799996182322 1961
20.0999996177852 1892
20.1199996173382 1879
20.1399996168911 1878
20.1599996164441 1942
20.1799996159971 1922
20.19999961555 1943
20.219999615103 1821
20.239999614656 1982
20.2599996142089 1925
20.2799996137619 1941
20.2999996133149 1898
20.3199996128678 1950
20.3399996124208 1846
20.3599996119738 1855
20.3799996115267 1973
20.3999996110797 1927
20.4199996106327 1868
20.4399996101856 1945
20.4599996097386 1966
20.4799996092916 1894
20.4999996088445 1906
20.5199996083975 1929
20.5399996079504 1979
20.5599996075034 1860
20.5799996070564 1921
20.5999996066093 1926
20.6199996061623 1983
20.6399996057153 1951
20.6599996052682 1890
20.6799996048212 1971
20.6999996043742 1909
20.7199996039271 1906
20.7399996034801 1930
20.7599996030331 1863
20.779999602586 1974
20.799999602139 1932
20.819999601692 1981
20.8399996012449 1939
20.8599996007979 1931
20.8799996003509 2003
20.8999995999038 1908
20.9199995994568 1913
20.9399995990098 1929
20.9599995985627 2005
20.9799995981157 2015
20.9999995976686 1950
21.0199995972216 1914
21.0399995967746 1942
21.0599995963275 1871
21.0799995958805 1996
21.0999995954335 1914
21.1199995949864 1892
21.1399995945394 1919
21.1599995940924 1873
21.1799995936453 1963
21.1999995931983 1978
21.2199995927513 1957
21.2399995923042 1941
21.2599995918572 1976
21.2799995914102 1967
21.2999995909631 1927
21.3199995905161 1970
21.3399995900691 2015
21.359999589622 1998
21.379999589175 1980
21.399999588728 1876
21.4199995882809 1917
21.4399995878339 1934
21.4599995873868 1891
21.4799995869398 1973
21.4999995864928 1975
21.5199995860457 1893
21.5399995855987 1960
21.5599995851517 1979
21.5799995847046 1871
21.5999995842576 1950
21.6199995838106 1942
21.6399995833635 1943
21.6599995829165 2023
21.6799995824695 2006
21.6999995820224 2035
21.7199995815754 2055
21.7399995811284 2122
21.7599995806813 2136
21.7799995802343 2150
21.7999995797873 2196
21.8199995793402 2226
21.8399995788932 2162
21.8599995784462 2113
21.8799995779991 2132
21.8999995775521 2027
21.919999577105 1882
21.939999576658 1936
21.959999576211 1927
21.9799995757639 1912
21.9999995753169 1945
22.0199995748699 1865
22.0399995744228 1924
22.0599995739758 1880
22.0799995735288 1924
22.0999995730817 1949
22.1199995726347 1870
22.1399995721877 1948
22.1599995717406 1805
22.1799995712936 1901
22.1999995708466 1882
22.2199995703995 1921
22.2399995699525 1880
22.2599995695055 1893
22.2799995690584 1769
22.2999995686114 1915
22.3199995681643 1870
22.3399995677173 1855
22.3599995672703 1908
22.3799995668232 1889
22.3999995663762 1976
22.4199995659292 1876
22.4399995654821 1859
22.4599995650351 1859
22.4799995645881 1912
22.499999564141 1834
22.519999563694 1820
22.539999563247 1773
22.5599995627999 1833
22.5799995623529 1852
22.5999995619059 1823
22.6199995614588 1847
22.6399995610118 1802
22.6599995605648 1836
22.6799995601177 1826
22.6999995596707 1846
22.7199995592237 1856
22.7399995587766 1847
22.7599995583296 1797
22.7799995578825 1822
22.7999995574355 1862
22.8199995569885 1766
22.8399995565414 1786
22.8599995560944 1782
22.8799995556474 1865
22.8999995552003 1813
22.9199995547533 1866
22.9399995543063 1857
22.9599995538592 1888
22.9799995534122 1854
22.9999995529652 1905
23.0199995525181 1967
23.0399995520711 1978
23.0599995516241 1865
23.079999551177 1878
23.09999955073 1875
23.119999550283 1922
23.1399995498359 1767
23.1599995493889 1796
23.1799995489418 1708
23.1999995484948 1759
23.2199995480478 1738
23.2399995476007 1749
23.2599995471537 1808
23.2799995467067 1747
23.2999995462596 1708
23.3199995458126 1702
23.3399995453656 1731
23.3599995449185 1724
23.3799995444715 1707
23.3999995440245 1657
23.4199995435774 1714
23.4399995431304 1753
23.4599995426834 1707
23.4799995422363 1749
23.4999995417893 1686
23.5199995413423 1779
23.5399995408952 1786
23.5599995404482 1692
23.5799995400012 1773
23.5999995395541 1770
23.6199995391071 1781
23.63999953866 1852
23.659999538213 1895
23.679999537766 1993
23.6999995373189 2186
23.7199995368719 2297
23.7399995364249 2399
23.7599995359778 2489
23.7799995355308 2489
23.7999995350838 2383
23.8199995346367 2314
23.8399995341897 2175
23.8599995337427 2006
23.8799995332956 1907
23.8999995328486 1727
23.9199995324016 1736
23.9399995319545 1751
23.9599995315075 1821
23.9799995310605 1753
23.9999995306134 1776
24.0199995301664 1788
24.0399995297194 1788
24.0599995292723 1791
24.0799995288253 1732
24.0999995283782 1741
24.1199995279312 1649
24.1399995274842 1623
24.1599995270371 1584
24.1799995265901 1630
24.1999995261431 1617
24.219999525696 1640
24.239999525249 1620
24.259999524802 1646
24.2799995243549 1627
24.2999995239079 1583
24.3199995234609 1590
24.3399995230138 1643
24.3599995225668 1617
24.3799995221198 1632
24.3999995216727 1585
24.4199995212257 1587
24.4399995207787 1577
24.4599995203316 1570
24.4799995198846 1615
24.4999995194376 1594
24.5199995189905 1520
24.5399995185435 1582
24.5599995180964 1569
24.5799995176494 1564
24.5999995172024 1607
24.6199995167553 1602
24.6399995163083 1580
24.6599995158613 1556
24.6799995154142 1576
24.6999995149672 1619
24.7199995145202 1540
24.7399995140731 1577
24.7599995136261 1654
24.7799995131791 1673
24.799999512732 1667
24.819999512285 1792
24.839999511838 1800
24.8599995113909 1979
24.8799995109439 1959
24.8999995104969 2026
24.9199995100498 2156
24.9399995096028 2066
24.9599995091558 1996
24.9799995087087 1910
24.9999995082617 1747
25.0199995078146 1709
25.0399995073676 1604
25.0599995069206 1583
25.0799995064735 1554
25.0999995060265 1500
25.1199995055795 1526
25.1399995051324 1503
25.1599995046854 1473
25.1799995042384 1506
25.1999995037913 1476
25.2199995033443 1608
25.2399995028973 1504
25.2599995024502 1628
25.2799995020032 1552
25.2999995015562 1496
25.3199995011091 1491
25.3399995006621 1505
25.3599995002151 1590
25.379999499768 1513
25.399999499321 1550
25.4199994988739 1589
25.4399994984269 1586
25.4599994979799 1657
25.4799994975328 1751
25.4999994970858 1900
25.5199994966388 2019
25.5399994961917 2219
25.5599994957447 2299
25.5799994952977 2458
25.5999994948506 2421
25.6199994944036 2267
25.6399994939566 2214
25.6599994935095 1885
25.6799994930625 1782
25.6999994926155 1694
25.7199994921684 1553
25.7399994917214 1565
25.7599994912744 1462
25.7799994908273 1510
25.7999994903803 1449
25.8199994899333 1402
25.8399994894862 1452
25.8599994890392 1403
25.8799994885921 1436
25.8999994881451 1429
25.9199994876981 1406
25.939999487251 1371
25.959999486804 1400
25.979999486357 1491
25.9999994859099 1411
26.0199994854629 1428
26.0399994850159 1401
26.0599994845688 1442
26.0799994841218 1381
26.0999994836748 1418
26.1199994832277 1416
26.1399994827807 1405
26.1599994823337 1362
26.1799994818866 1384
26.1999994814396 1308
26.2199994809926 1436
26.2399994805455 1387
26.2599994800985 1391
26.2799994796514 1340
26.2999994792044 1411
26.3199994787574 1386
26.3399994783103 1319
26.3599994778633 1394
26.3799994774163 1413
26.3999994769692 1340
26.4199994765222 1372
26.4399994760752 1408
26.4599994756281 1356
26.4799994751811 1411
26.4999994747341 1451
26.519999474287 1405
26.53999947384 1484
26.559999473393 1545
26.5799994729459 1649
26.5999994724989 1719
26.6199994720519 1788
26.6399994716048 1929
26.6599994711578 1937
26.6799994707108 1948
26.6999994702637 1906
26.7199994698167 1785
26.7399994693697 1664
26.7599994689226 1549
26.7799994684756 1489
26.7999994680285 1423
26.8199994675815 1388
26.8399994671345 1393
26.8599994666874 1339
26.8799994662404 1341
26.8999994657934 1345
26.9199994653463 1424
26.9399994648993 1363
26.9599994644523 1348
26.9799994640052 1290
26.9999994635582 1329
27.0199994631112 1331
27.0399994626641 1280
27.0599994622171 1315
27.0799994617701 1328
27.099999461323 1314
27.119999460876 1338
27.139999460429 1307
27.1599994599819 1325
27.1799994595349 1396
27.1999994590878 1289
27.2199994586408 1313
27.2399994581938 1365
27.2599994577467 1307
27.2799994572997 1376
27.2999994568527 1404
27.3199994564056 1346
27.3399994559586 1349
27.3599994555116 1451
27.3799994550645 1518
27.3999994546175 1578
27.4199994541705 1687
27.4399994537234 1754
27.4599994532764 1872
27.4799994528294 1898
27.4999994523823 1976
27.5199994519353 1886
27.5399994514883 1795
27.5599994510412 1665
27.5799994505942 1565
27.5999994501472 1513
27.6199994497001 1411
27.6399994492531 1390
27.659999448806 1386
27.679999448359 1284
27.699999447912 1187
27.7199994474649 1212
27.7399994470179 1317
27.7599994465709 1282
27.7799994461238 1278
27.7999994456768 1233
27.8199994452298 1309
27.8399994447827 1292
27.8599994443357 1279
27.8799994438887 1257
27.8999994434416 1241
27.9199994429946 1295
27.9399994425476 1275
27.9599994421005 1262
27.9799994416535 1249
27.9999994412065 1272
28.0199994407594 1251
28.0399994403124 1257
28.0599994398654 1294
28.0799994394183 1258
28.0999994389713 1200
28.1199994385242 1234
28.1399994380772 1350
28.1599994376302 1243
28.1799994371831 1274
28.1999994367361 1289
28.2199994362891 1382
28.239999435842 1381
28.259999435395 1458
28.279999434948 1406
28.2999994345009 1449
28.3199994340539 1418
28.3399994336069 1361
28.3599994331598 1290
28.3799994327128 1362
28.3999994322658 1318
28.4199994318187 1337
28.4399994313717 1189
28.4599994309247 1176
28.4799994304776 1272
28.4999994300306 1245
28.5199994295835 1167
28.5399994291365 1241
28.5599994286895 1228
28.5799994282424 1203
28.5999994277954 1211
28.6199994273484 1227
28.6399994269013 1234
28.6599994264543 1237
28.6799994260073 1285
28.6999994255602 1312
28.7199994251132 1242
28.7399994246662 1304
28.7599994242191 1305
28.7799994237721 1393
28.7999994233251 1456
28.819999422878 1512
28.839999422431 1646
28.859999421984 1673
28.8799994215369 1696
28.8999994210899 1741
28.9199994206429 1719
28.9399994201958 1706
28.9599994197488 1674
28.9799994193017 1652
28.9999994188547 1658
29.0199994184077 1665
29.0399994179606 1615
29.0599994175136 1696
29.0799994170666 1814
29.0999994166195 1851
29.1199994161725 1817
29.1399994157255 1701
29.1599994152784 1482
29.1799994148314 1431
29.1999994143844 1453
29.2199994139373 1285
29.2399994134903 1207
29.2599994130433 1212
29.2799994125962 1227
29.2999994121492 1203
29.3199994117022 1192
29.3399994112551 1181
29.3599994108081 1172
29.379999410361 1222
29.399999409914 1179
29.419999409467 1143
29.4399994090199 1160
29.4599994085729 1160
29.4799994081259 1155
29.4999994076788 1186
29.5199994072318 1197
29.5399994067848 1181
29.5599994063377 1188
29.5799994058907 1194
29.5999994054437 1150
29.6199994049966 1247
29.6399994045496 1185
29.6599994041026 1105
29.6799994036555 1106
29.6999994032085 1147
29.7199994027615 1147
29.7399994023144 1127
29.7599994018674 1222
29.7799994014204 1193
29.7999994009733 1201
29.8199994005263 1186
29.8399994000793 1131
29.8599993996322 1142
29.8799993991852 1146
29.8999993987381 1172
29.9199993982911 1205
29.9399993978441 1219
29.959999397397 1160
29.97999939695 1202
29.999999396503 1141
