3 2119
3.01999999955297 1943
3.03999999910593 1870
3.0599999986589 1725
3.07999999821186 1622
3.09999999776483 1581
3.11999999731779 1556
3.13999999687076 1471
3.15999999642372 1540
3.17999999597669 1470
3.19999999552965 1478
3.21999999508262 1398
3.23999999463558 1379
3.25999999418855 1376
3.27999999374151 1441
3.29999999329448 1415
3.31999999284744 1348
3.33999999240041 1362
3.35999999195337 1337
3.37999999150634 1267
3.3999999910593 1267
3.41999999061227 1322
3.43999999016523 1353
3.4599999897182 1314
3.47999998927116 1283
3.49999998882413 1272
3.51999998837709 1335
3.53999998793006 1295
3.55999998748302 1223
3.57999998703599 1217
3.59999998658895 1198
3.61999998614192 1222
3.63999998569489 1234
3.65999998524785 1253
3.67999998480082 1286
3.69999998435378 1281
3.71999998390675 1258
3.73999998345971 1193
3.75999998301268 1290
3.77999998256564 1186
3.79999998211861 1222
3.81999998167157 1226
3.83999998122454 1219
3.8599999807775 1228
3.87999998033047 1201
3.89999997988343 1249
3.9199999794364 1169
3.93999997898936 1238
3.95999997854233 1323
3.97999997809529 1229
3.99999997764826 1374
4.01999997720122 1397
4.03999997675419 1350
4.05999997630715 1370
4.07999997586012 1434
4.09999997541308 1546
4.11999997496605 1648
4.13999997451901 1743
4.15999997407198 1637
4.17999997362494 1647
4.19999997317791 1527
4.21999997273087 1336
4.23999997228384 1212
4.25999997183681 1099
4.27999997138977 1068
4.29999997094274 1035
4.3199999704957 1009
4.33999997004867 1064
4.35999996960163 1031
4.3799999691546 1076
4.39999996870756 1130
4.41999996826053 1027
4.43999996781349 1067
4.45999996736646 1066
4.47999996691942 1045
4.49999996647239 1008
4.51999996602535 1048
4.53999996557832 1063
4.55999996513128 1072
4.57999996468425 1037
4.59999996423721 1098
4.61999996379018 1056
4.63999996334314 976
4.65999996289611 1055
4.67999996244907 1062
4.69999996200204 1029
4.719999961555 1029
4.73999996110797 1093
4.75999996066093 1087
4.7799999602139 1073
4.79999995976686 1064
4.81999995931983 1157
4.83999995887279 1136
4.85999995842576 1105
4.87999995797873 1177
4.89999995753169 1183
4.91999995708466 1140
4.93999995663762 1150
4.95999995619059 1179
4.97999995574355 1229
4.99999995529652 1147
5.01999995484948 1178
5.03999995440245 1265
5.05999995395541 1260
5.07999995350838 1219
5.09999995306134 1296
5.11999995261431 1297
5.13999995216727 1343
5.15999995172024 1424
5.1799999512732 1395
5.19999995082617 1412
5.21999995037913 1556
5.2399999499321 1531
5.25999994948506 1607
5.27999994903803 1723
5.29999994859099 1788
5.31999994814396 1811
5.33999994769692 1847
5.35999994724989 1987
5.37999994680285 2120
5.39999994635582 2273
5.41999994590878 2582
5.43999994546175 2941
5.45999994501471 2938
5.47999994456768 2907
5.49999994412065 2839
5.51999994367361 2498
5.53999994322658 2047
5.55999994277954 1931
5.57999994233251 1895
5.59999994188547 1997
5.61999994143844 2138
5.6399999409914 2221
5.65999994054437 2375
5.67999994009733 2500
5.6999999396503 2741
5.71999993920326 2930
5.73999993875623 3213
5.75999993830919 3657
5.77999993786216 4325
5.79999993741512 5274
5.81999993696809 6077
5.83999993652105 5654
5.85999993607402 5036
5.87999993562698 4195
5.89999993517995 2488
5.91999993473291 1387
5.93999993428588 1154
5.95999993383884 1027
5.97999993339181 969
5.99999993294477 956
6.01999993249774 922
6.0399999320507 926
6.05999993160367 927
6.07999993115663 878
6.0999999307096 822
6.11999993026257 851
6.13999992981553 875
6.1599999293685 853
6.17999992892146 864
6.19999992847443 835
6.21999992802739 816
6.23999992758036 791
6.25999992713332 848
6.27999992668629 823
6.29999992623925 752
6.31999992579222 833
6.33999992534518 826
6.35999992489815 813
6.37999992445111 805
6.39999992400408 808
6.41999992355704 920
6.43999992311001 848
6.45999992266297 850
6.47999992221594 808
6.4999999217689 820
6.51999992132187 862
6.53999992087483 874
6.5599999204278 846
6.57999991998076 887
6.59999991953373 871
6.61999991908669 958
6.63999991863966 939
6.65999991819262 921
6.67999991774559 980
6.69999991729855 1013
6.71999991685152 964
6.73999991640449 1029
6.75999991595745 1086
6.77999991551042 1120
6.79999991506338 1339
6.81999991461635 1325
6.83999991416931 1230
6.85999991372228 1126
6.87999991327524 956
6.89999991282821 842
6.91999991238117 760
6.93999991193414 755
6.9599999114871 765
6.97999991104007 773
6.99999991059303 759
7.019999910146 739
7.03999990969896 672
7.05999990925193 740
7.07999990880489 721
7.09999990835786 713
7.11999990791082 712
7.13999990746379 670
7.15999990701675 678
7.17999990656972 713
7.19999990612268 713
7.21999990567565 672
7.23999990522861 694
7.25999990478158 719
7.27999990433454 694
7.29999990388751 696
7.31999990344047 665
7.33999990299344 676
7.35999990254641 703
7.37999990209937 704
7.39999990165234 752
7.4199999012053 750
7.43999990075827 700
7.45999990031123 676
7.4799998998642 667
7.49999989941716 676
7.51999989897013 692
7.53999989852309 695
7.55999989807606 672
7.57999989762902 688
7.59999989718199 677
7.61999989673495 674
7.63999989628792 731
7.65999989584088 724
7.67999989539385 674
7.69999989494681 685
7.71999989449978 673
7.73999989405274 714
7.75999989360571 709
7.77999989315867 687
7.79999989271164 695
7.8199998922646 708
7.83999989181757 671
7.85999989137053 723
7.8799998909235 710
7.89999989047646 712
7.91999989002943 710
7.9399998895824 721
7.95999988913536 676
7.97999988868833 719
7.99999988824129 661
8.01999988779426 708
8.03999988734722 754
8.05999988690019 739
8.07999988645315 760
8.09999988600612 751
8.11999988555908 787
8.13999988511205 738
8.15999988466501 810
8.17999988421798 816
8.19999988377094 860
8.21999988332391 847
8.23999988287687 853
8.25999988242984 752
8.2799998819828 715
8.29999988153577 676
8.31999988108873 704
8.3399998806417 690
8.35999988019466 661
8.37999987974763 687
8.39999987930059 698
8.41999987885356 671
8.43999987840652 688
8.45999987795949 729
8.47999987751245 702
8.49999987706542 703
8.51999987661839 695
8.53999987617135 669
8.55999987572432 666
8.57999987527728 693
8.59999987483025 699
8.61999987438321 697
8.63999987393618 686
8.65999987348914 739
8.67999987304211 685
8.69999987259507 668
8.71999987214804 724
8.739999871701 696
8.75999987125397 716
8.77999987080693 676
8.7999998703599 713
8.81999986991286 749
8.83999986946583 717
8.85999986901879 701
8.87999986857176 701
8.89999986812472 759
8.91999986767769 704
8.93999986723065 683
8.95999986678362 737
8.97999986633658 780
8.99999986588955 746
9.01999986544251 815
9.03999986499548 780
9.05999986454844 834
9.07999986410141 819
9.09999986365438 875
9.11999986320734 859
9.13999986276031 884
9.15999986231327 939
9.17999986186624 1016
9.1999998614192 1017
9.21999986097217 1061
9.23999986052513 1135
9.2599998600781 1194
9.27999985963106 1267
9.29999985918403 1447
9.31999985873699 1599
9.33999985828996 1861
9.35999985784292 2173
9.37999985739589 2391
9.39999985694885 2330
9.41999985650182 2121
9.43999985605478 1597
9.45999985560775 1175
9.47999985516071 904
9.49999985471368 761
9.51999985426664 750
9.53999985381961 770
9.55999985337257 733
9.57999985292554 761
9.5999998524785 691
9.61999985203147 720
9.63999985158443 732
9.6599998511374 714
9.67999985069037 697
9.69999985024333 733
9.7199998497963 720
9.73999984934926 741
9.75999984890223 765
9.77999984845519 786
9.79999984800816 773
9.81999984756112 805
9.83999984711409 798
9.85999984666705 774
9.87999984622002 783
9.89999984577298 776
9.91999984532595 790
9.93999984487891 735
9.95999984443188 805
9.97999984398484 808
9.99999984353781 777
10.0199998430908 839
10.0399998426437 810
10.0599998421967 909
10.0799998417497 881
10.0999998413026 921
10.1199998408556 953
10.1399998404086 962
10.1599998399615 1009
10.1799998395145 1151
10.1999998390675 1243
10.2199998386204 1388
10.2399998381734 1391
10.2599998377264 1314
10.2799998372793 1156
10.2999998368323 934
10.3199998363853 789
10.3399998359382 742
10.3599998354912 753
10.3799998350441 752
10.3999998345971 776
10.4199998341501 734
10.439999833703 765
10.459999833256 765
10.479999832809 769
10.4999998323619 729
10.5199998319149 740
10.5399998314679 806
10.5599998310208 761
10.5799998305738 763
10.5999998301268 788
10.6199998296797 835
10.6399998292327 850
10.6599998287857 841
10.6799998283386 839
10.6999998278916 837
10.7199998274446 950
10.7399998269975 957
10.7599998265505 1018
10.7799998261034 1086
10.7999998256564 1226
10.8199998252094 1268
10.8399998247623 1301
10.8599998243153 1211
10.8799998238683 1186
10.8999998234212 1096
10.9199998229742 1142
10.9399998225272 1261
10.9599998220801 1361
10.9799998216331 1612
10.9999998211861 1849
11.019999820739 1944
11.039999820292 1764
11.059999819845 1512
11.0799998193979 1086
11.0999998189509 921
11.1199998185039 812
11.1399998180568 766
11.1599998176098 786
11.1799998171628 731
11.1999998167157 749
11.2199998162687 794
11.2399998158216 768
11.2599998153746 800
11.2799998149276 741
11.2999998144805 793
11.3199998140335 797
11.3399998135865 780
11.3599998131394 787
11.3799998126924 811
11.3999998122454 838
11.4199998117983 831
11.4399998113513 923
11.4599998109043 970
11.4799998104572 997
11.4999998100102 1035
11.5199998095632 1165
11.5399998091161 1334
11.5599998086691 1427
11.5799998082221 1427
11.599999807775 1252
11.619999807328 1139
11.639999806881 895
11.6599998064339 759
11.6799998059869 740
11.6999998055398 759
11.7199998050928 728
11.7399998046458 766
11.7599998041987 722
11.7799998037517 776
11.7999998033047 718
11.8199998028576 765
11.8399998024106 719
11.8599998019636 774
11.8799998015165 703
11.8999998010695 700
11.9199998006225 711
11.9399998001754 746
11.9599997997284 765
11.9799997992814 806
11.9999997988343 753
12.0199997983873 751
12.0399997979403 798
12.0599997974932 784
12.0799997970462 869
12.0999997965992 753
12.1199997961521 781
12.1399997957051 826
12.159999795258 872
12.179999794811 893
12.199999794364 914
12.2199997939169 991
12.2399997934699 1056
12.2599997930229 1129
12.2799997925758 1108
12.2999997921288 1005
12.3199997916818 975
12.3399997912347 836
12.3599997907877 839
12.3799997903407 748
12.3999997898936 822
12.4199997894466 760
12.4399997889996 796
12.4599997885525 849
12.4799997881055 814
12.4999997876585 740
12.5199997872114 704
12.5399997867644 753
12.5599997863173 743
12.5799997858703 801
12.5999997854233 774
12.6199997849762 731
12.6399997845292 756
12.6599997840822 769
12.6799997836351 765
12.6999997831881 788
12.7199997827411 761
12.739999782294 724
12.759999781847 776
12.7799997814 701
12.7999997809529 706
12.8199997805059 797
12.8399997800589 786
12.8599997796118 774
12.8799997791648 775
12.8999997787178 803
12.9199997782707 743
12.9399997778237 726
12.9599997773767 791
12.9799997769296 755
12.9999997764826 779
13.0199997760355 760
13.0399997755885 816
13.0599997751415 775
13.0799997746944 787
13.0999997742474 817
13.1199997738004 822
13.1399997733533 790
13.1599997729063 830
13.1799997724593 757
13.1999997720122 761
13.2199997715652 771
13.2399997711182 788
13.2599997706711 762
13.2799997702241 832
13.2999997697771 809
13.31999976933 864
13.339999768883 859
13.359999768436 910
13.3799997679889 909
13.3999997675419 967
13.4199997670949 953
13.4399997666478 863
13.4599997662008 920
13.4799997657537 915
13.4999997653067 881
13.5199997648597 872
13.5399997644126 918
13.5599997639656 836
13.5799997635186 904
13.5999997630715 891
13.6199997626245 831
13.6399997621775 806
13.6599997617304 800
13.6799997612834 792
13.6999997608364 824
13.7199997603893 815
13.7399997599423 795
13.7599997594953 817
13.7799997590482 797
13.7999997586012 802
13.8199997581542 800
13.8399997577071 792
13.8599997572601 799
13.879999756813 823
13.899999756366 803
13.919999755919 794
13.9399997554719 752
13.9599997550249 829
13.9799997545779 832
13.9999997541308 803
14.0199997536838 788
14.0399997532368 834
14.0599997527897 851
14.0799997523427 874
14.0999997518957 858
14.1199997514486 791
14.1399997510016 810
14.1599997505546 846
14.1799997501075 855
14.1999997496605 884
14.2199997492135 854
14.2399997487664 823
14.2599997483194 933
14.2799997478724 958
14.2999997474253 868
14.3199997469783 928
14.3399997465312 923
14.3599997460842 972
14.3799997456372 882
14.3999997451901 973
14.4199997447431 908
14.4399997442961 976
14.459999743849 962
14.479999743402 993
14.499999742955 894
14.5199997425079 878
14.5399997420609 862
14.5599997416139 861
14.5799997411668 851
14.5999997407198 899
14.6199997402728 889
14.6399997398257 909
14.6599997393787 950
14.6799997389317 868
14.6999997384846 937
14.7199997380376 926
14.7399997375906 919
14.7599997371435 950
14.7799997366965 961
14.7999997362494 943
14.8199997358024 978
14.8399997353554 1054
14.8599997349083 1081
14.8799997344613 1081
14.8999997340143 1022
14.9199997335672 1032
14.9399997331202 955
14.9599997326732 921
14.9799997322261 927
14.9999997317791 919
15.0199997313321 865
15.039999730885 905
15.059999730438 864
15.079999729991 954
15.0999997295439 940
15.1199997290969 875
15.1399997286499 966
15.1599997282028 920
15.1799997277558 971
15.1999997273088 953
15.2199997268617 955
15.2399997264147 1015
15.2599997259676 1006
15.2799997255206 1047
15.2999997250736 1031
15.3199997246265 1034
15.3399997241795 996
15.3599997237325 928
15.3799997232854 964
15.3999997228384 990
15.4199997223914 980
15.4399997219443 951
15.4599997214973 940
15.4799997210503 924
15.4999997206032 939
15.5199997201562 961
15.5399997197092 934
15.5599997192621 992
15.5799997188151 990
15.5999997183681 987
15.619999717921 1037
15.639999717474 946
15.659999717027 934
15.6799997165799 971
15.6999997161329 984
15.7199997156858 968
15.7399997152388 970
15.7599997147918 1067
15.7799997143447 950
15.7999997138977 982
15.8199997134507 959
15.8399997130036 987
15.8599997125566 983
15.8799997121096 1004
15.8999997116625 1014
15.9199997112155 987
15.9399997107685 991
15.9599997103214 1006
15.9799997098744 1027
15.9999997094274 1019
16.0199997089803 1031
16.0399997085333 999
16.0599997080863 1030
16.0799997076392 1019
16.0999997071922 1010
16.1199997067451 1052
16.1399997062981 1088
16.1599997058511 1085
16.179999705404 1076
16.199999704957 1078
16.21999970451 1120
16.2399997040629 1127
16.2599997036159 1139
16.2799997031689 1210
16.2999997027218 1158
16.3199997022748 1320
16.3399997018278 1203
16.3599997013807 1254
16.3799997009337 1293
16.3999997004867 1228
16.4199997000396 1084
16.4399996995926 1098
16.4599996991456 1134
16.4799996986985 1135
16.4999996982515 1090
16.5199996978045 1143
16.5399996973574 1089
16.5599996969104 1113
16.5799996964633 1081
16.5999996960163 1123
16.6199996955693 1095
16.6399996951222 1098
16.6599996946752 1150
16.6799996942282 1159
16.6999996937811 1191
16.7199996933341 1184
16.7399996928871 1155
16.75999969244 1202
16.779999691993 1245
16.799999691546 1227
16.8199996910989 1174
16.8399996906519 1266
16.8599996902049 1223
16.8799996897578 1311
16.8999996893108 1413
16.9199996888638 1383
16.9399996884167 1516
16.9599996879697 1665
16.9799996875226 1722
16.9999996870756 1795
17.0199996866286 1761
17.0399996861815 1609
17.0599996857345 1466
17.0799996852875 1318
17.0999996848404 1325
17.1199996843934 1227
17.1399996839464 1199
17.1599996834993 1196
17.1799996830523 1253
17.1999996826053 1318
17.2199996821582 1185
17.2399996817112 1224
17.2599996812642 1226
17.2799996808171 1257
17.2999996803701 1365
17.3199996799231 1306
17.339999679476 1391
17.359999679029 1358
17.379999678582 1350
17.3999996781349 1308
17.4199996776879 1305
17.4399996772408 1257
17.4599996767938 1226
17.4799996763468 1266
17.4999996758997 1255
17.5199996754527 1304
17.5399996750057 1320
17.5599996745586 1322
17.5799996741116 1313
17.5999996736646 1271
17.6199996732175 1304
17.6399996727705 1327
17.6599996723235 1317
17.6799996718764 1269
17.6999996714294 1317
17.7199996709824 1305
17.7399996705353 1267
17.7599996700883 1260
17.7799996696413 1319
17.7999996691942 1341
17.8199996687472 1369
17.8399996683002 1328
17.8599996678531 1352
17.8799996674061 1417
17.899999666959 1432
17.919999666512 1483
17.939999666065 1471
17.9599996656179 1470
17.9799996651709 1411
17.9999996647239 1324
18.0199996642768 1350
18.0399996638298 1396
18.0599996633828 1392
18.0799996629357 1327
18.0999996624887 1407
18.1199996620417 1399
18.1399996615946 1350
18.1599996611476 1384
18.1799996607006 1411
18.1999996602535 1357
18.2199996598065 1369
18.2399996593595 1338
18.2599996589124 1375
18.2799996584654 1349
18.2999996580184 1427
18.3199996575713 1404
18.3399996571243 1386
18.3599996566772 1434
18.3799996562302 1360
18.3999996557832 1375
18.4199996553361 1447
18.4399996548891 1325
18.4599996544421 1452
18.479999653995 1473
18.499999653548 1357
18.519999653101 1364
18.5399996526539 1363
18.5599996522069 1461
18.5799996517599 1483
18.5999996513128 1426
18.6199996508658 1469
18.6399996504188 1476
18.6599996499717 1525
18.6799996495247 1521
18.6999996490777 1505
18.7199996486306 1559
18.7399996481836 1502
18.7599996477366 1572
18.7799996472895 1685
18.7999996468425 1706
18.8199996463954 1725
18.8399996459484 1763
18.8599996455014 1767
18.8799996450543 1640
18.8999996446073 1629
18.9199996441603 1620
18.9399996437132 1598
18.9599996432662 1590
18.9799996428192 1587
18.9999996423721 1611
19.0199996419251 1666
19.0399996414781 1652
19.059999641031 1618
19.079999640584 1752
19.099999640137 1840
19.1199996396899 2002
19.1399996392429 2105
19.1599996387959 2218
19.1799996383488 2195
19.1999996379018 2156
19.2199996374547 2027
19.2399996370077 1788
19.2599996365607 1684
19.2799996361136 1634
19.2999996356666 1639
19.3199996352196 1572
19.3399996347725 1586
19.3599996343255 1614
19.3799996338785 1638
19.3999996334314 1681
19.4199996329844 1677
19.4399996325374 1788
19.4599996320903 1817
19.4799996316433 1984
19.4999996311963 2041
19.5199996307492 2046
19.5399996303022 2029
19.5599996298552 2069
19.5799996294081 2192
19.5999996289611 2227
19.6199996285141 2121
19.639999628067 1971
19.65999962762 1925
19.6799996271729 1888
19.6999996267259 1733
19.7199996262789 1720
19.7399996258318 1718
19.7599996253848 1698
19.7799996249378 1740
19.7999996244907 1624
19.8199996240437 1808
19.8399996235967 1808
19.8599996231496 1812
19.8799996227026 1878
19.8999996222556 1950
19.9199996218085 2013
19.9399996213615 1984
19.9599996209145 1956
19.9799996204674 1796
19.9999996200204 1746
20.0199996195734 1689
20.0399996191263 1694
20.0599996186793 1762
20.0799996182322 1735
20.0999996177852 1726
20.1199996173382 1681
20.1399996168911 1694
20.1599996164441 1723
20.1799996159971 1802
20.19999961555 1863
20.219999615103 1812
20.239999614656 1883
20.2599996142089 1947
20.2799996137619 1956
20.2999996133149 1976
20.3199996128678 2048
20.3399996124208 2031
20.3599996119738 2060
20.3799996115267 1991
20.3999996110797 1947
20.4199996106327 1932
20.4399996101856 1900
20.4599996097386 1875
20.4799996092916 1878
20.4999996088445 1818
20.5199996083975 1773
20.5399996079504 1727
20.5599996075034 1693
20.5799996070564 1761
20.5999996066093 1761
20.6199996061623 1754
20.6399996057153 1759
20.6599996052682 1742
20.6799996048212 1728
20.6999996043742 1812
20.7199996039271 1805
20.7399996034801 1782
20.7599996030331 1762
20.779999602586 1692
20.799999602139 1782
20.819999601692 1745
20.8399996012449 1788
20.8599996007979 1788
20.8799996003509 1802
20.8999995999038 1807
20.9199995994568 1830
20.9399995990098 1749
20.9599995985627 1717
20.9799995981157 1883
20.9999995976686 1836
21.0199995972216 1831
21.0399995967746 1752
21.0599995963275 1761
21.0799995958805 1904
21.0999995954335 1987
21.1199995949864 1893
21.1399995945394 1942
21.1599995940924 1933
21.1799995936453 1957
21.1999995931983 1921
21.2199995927513 1815
21.2399995923042 1927
21.2599995918572 1774
21.2799995914102 1840
21.2999995909631 1741
21.3199995905161 1841
21.3399995900691 1841
21.359999589622 1815
21.379999589175 1816
21.399999588728 1859
21.4199995882809 1808
21.4399995878339 1826
21.4599995873868 1795
21.4799995869398 1803
21.4999995864928 1759
21.5199995860457 1866
21.5399995855987 1889
21.5599995851517 1794
21.5799995847046 1791
21.5999995842576 1858
21.6199995838106 1919
21.6399995833635 1843
21.6599995829165 1888
21.6799995824695 1899
21.6999995820224 1928
21.7199995815754 1892
21.7399995811284 1914
21.7599995806813 1910
21.7799995802343 1854
21.7999995797873 1858
21.8199995793402 1886
21.8399995788932 1836
21.8599995784462 1900
21.8799995779991 1864
21.8999995775521 1897
21.919999577105 1871
21.939999576658 1928
21.959999576211 2033
21.9799995757639 2116
21.9999995753169 2317
22.0199995748699 2351
22.0399995744228 2272
22.0599995739758 2228
22.0799995735288 2134
22.0999995730817 1970
22.1199995726347 1987
22.1399995721877 1847
22.1599995717406 1859
22.1799995712936 1806
22.1999995708466 1836
22.2199995703995 1876
22.2399995699525 1883
22.2599995695055 1819
22.2799995690584 1837
22.2999995686114 1840
22.3199995681643 1834
22.3399995677173 1863
22.3599995672703 1815
22.3799995668232 1912
22.3999995663762 1825
22.4199995659292 1851
22.4399995654821 1861
22.4599995650351 1995
22.4799995645881 1913
22.499999564141 2045
22.519999563694 1981
22.539999563247 2021
22.5599995627999 1877
22.5799995623529 1902
22.5999995619059 1784
22.6199995614588 1708
22.6399995610118 1833
22.6599995605648 1822
22.6799995601177 1787
22.6999995596707 1835
22.7199995592237 1752
22.7399995587766 1859
22.7599995583296 1844
22.7799995578825 1822
22.7999995574355 1810
22.8199995569885 1858
22.8399995565414 1816
22.8599995560944 1773
22.8799995556474 1799
22.8999995552003 1863
22.9199995547533 1829
22.9399995543063 1874
22.9599995538592 1873
22.9799995534122 1958
22.9999995529652 1971
23.0199995525181 1995
23.0399995520711 2024
23.0599995516241 2132
23.079999551177 2144
23.09999955073 2203
23.119999550283 2356
23.1399995498359 2385
23.1599995493889 2348
23.1799995489418 2238
23.1999995484948 2139
23.2199995480478 2060
23.2399995476007 1945
23.2599995471537 1871
23.2799995467067 1876
23.2999995462596 1848
23.3199995458126 1898
23.3399995453656 1883
23.3599995449185 1839
23.3799995444715 1829
23.3999995440245 1791
23.4199995435774 1863
23.4399995431304 1782
23.4599995426834 1855
23.4799995422363 1872
23.4999995417893 1816
23.5199995413423 1783
23.5399995408952 1849
23.5599995404482 1957
23.5799995400012 1905
23.5999995395541 1879
23.6199995391071 1982
23.63999953866 2058
23.659999538213 2141
23.679999537766 2184
23.6999995373189 2134
23.7199995368719 2132
23.7399995364249 2031
23.7599995359778 1870
23.7799995355308 1834
23.7999995350838 1822
23.8199995346367 1770
23.8399995341897 1839
23.8599995337427 1734
23.8799995332956 1865
23.8999995328486 1792
23.9199995324016 1875
23.9399995319545 1958
23.9599995315075 1970
23.9799995310605 1910
23.9999995306134 1955
24.0199995301664 1890
24.0399995297194 1806
24.0599995292723 1743
24.0799995288253 1768
24.0999995283782 1731
24.1199995279312 1731
24.1399995274842 1727
24.1599995270371 1736
24.1799995265901 1706
24.1999995261431 1663
24.219999525696 1760
24.239999525249 1765
24.259999524802 1760
24.2799995243549 1701
24.2999995239079 1740
24.3199995234609 1832
24.3399995230138 1786
24.3599995225668 1790
24.3799995221198 1837
24.3999995216727 1840
24.4199995212257 1938
24.4399995207787 1939
24.4599995203316 2030
24.4799995198846 2030
24.4999995194376 2144
24.5199995189905 2210
24.5399995185435 2453
24.5599995180964 2495
24.5799995176494 2444
24.5999995172024 2339
24.6199995167553 2268
24.6399995163083 2064
24.6599995158613 1931
24.6799995154142 1914
24.6999995149672 1890
24.7199995145202 1832
24.7399995140731 1952
24.7599995136261 2022
24.7799995131791 2202
24.799999512732 2319
24.819999512285 2468
24.839999511838 2496
24.8599995113909 2423
24.8799995109439 2249
24.8999995104969 2167
24.9199995100498 2121
24.9399995096028 2093
24.9599995091558 2068
24.9799995087087 2078
24.9999995082617 2037
25.0199995078146 2092
25.0399995073676 1938
25.0599995069206 1964
25.0799995064735 2049
25.0999995060265 2114
25.1199995055795 2125
25.1399995051324 2358
25.1599995046854 2418
25.1799995042384 2420
25.1999995037913 2467
25.2199995033443 2508
25.2399995028973 2543
25.2599995024502 2518
25.2799995020032 2555
25.2999995015562 2561
25.3199995011091 2397
25.3399995006621 2194
25.3599995002151 2167
25.379999499768 2004
25.399999499321 1925
25.4199994988739 1866
25.4399994984269 1870
25.4599994979799 1876
25.4799994975328 1941
25.4999994970858 1926
25.5199994966388 1998
25.5399994961917 2184
25.5599994957447 2379
25.5799994952977 2338
25.5999994948506 2335
25.6199994944036 2163
25.6399994939566 2067
25.6599994935095 1915
25.6799994930625 1901
25.6999994926155 1817
25.7199994921684 1743
25.7399994917214 1784
25.7599994912744 1726
25.7799994908273 1804
25.7999994903803 1802
25.8199994899333 1762
25.8399994894862 1687
25.8599994890392 1747
25.8799994885921 1690
25.8999994881451 1674
25.9199994876981 1688
25.939999487251 1686
25.959999486804 1702
25.979999486357 1680
25.9999994859099 1748
26.0199994854629 1761
26.0399994850159 1723
26.0599994845688 1706
26.0799994841218 1689
26.0999994836748 1716
26.1199994832277 1723
26.1399994827807 1742
26.1599994823337 1715
26.1799994818866 1650
26.1999994814396 1718
26.2199994809926 1702
26.2399994805455 1791
26.2599994800985 1779
26.2799994796514 1853
26.2999994792044 1889
26.3199994787574 2001
26.3399994783103 1878
26.3599994778633 1832
26.3799994774163 1787
26.3999994769692 1713
26.4199994765222 1738
26.4399994760752 1667
26.4599994756281 1656
26.4799994751811 1643
26.4999994747341 1641
26.519999474287 1640
26.53999947384 1667
26.559999473393 1670
26.5799994729459 1617
26.5999994724989 1655
26.6199994720519 1722
26.6399994716048 1595
26.6599994711578 1706
26.6799994707108 1740
26.6999994702637 1771
26.7199994698167 1782
26.7399994693697 1882
26.7599994689226 1864
26.7799994684756 1954
26.7999994680285 2123
26.8199994675815 2227
26.8399994671345 2409
26.8599994666874 2530
26.8799994662404 2654
26.8999994657934 2599
26.9199994653463 2453
26.9399994648993 2334
26.9599994644523 2155
26.9799994640052 2021
26.9999994635582 1858
27.0199994631112 1842
27.0399994626641 1819
27.0599994622171 1833
27.0799994617701 1825
27.099999461323 1983
27.119999460876 2185
27.139999460429 2336
27.1599994599819 2731
27.1799994595349 2819
27.1999994590878 2711
27.2199994586408 2584
27.2399994581938 2414
27.2599994577467 2214
27.2799994572997 2006
27.2999994568527 1901
27.3199994564056 1735
27.3399994559586 1697
27.3599994555116 1717
27.3799994550645 1818
27.3999994546175 1865
27.4199994541705 1890
27.4399994537234 1917
27.4599994532764 1862
27.4799994528294 1776
27.4999994523823 1677
27.5199994519353 1748
27.5399994514883 1713
27.5599994510412 1668
27.5799994505942 1604
27.5999994501472 1595
27.6199994497001 1622
27.6399994492531 1615
27.659999448806 1590
27.679999448359 1652
27.699999447912 1723
27.7199994474649 1734
27.7399994470179 1767
27.7599994465709 1870
27.7799994461238 1922
27.7999994456768 1807
27.8199994452298 1886
27.8399994447827 1904
27.8599994443357 1833
27.8799994438887 1709
27.8999994434416 1701
27.9199994429946 1698
27.9399994425476 1649
27.9599994421005 1597
27.9799994416535 1631
27.9999994412065 1597
28.0199994407594 1678
28.0399994403124 1574
28.0599994398654 1658
28.0799994394183 1568
28.0999994389713 1653
28.1199994385242 1703
28.1399994380772 1713
28.1599994376302 1706
28.1799994371831 1743
28.1999994367361 1781
28.2199994362891 1882
28.239999435842 1824
28.259999435395 1781
28.279999434948 1940
28.2999994345009 2105
28.3199994340539 2314
28.3399994336069 2328
28.3599994331598 2376
28.3799994327128 2248
28.3999994322658 2169
28.4199994318187 2145
28.4399994313717 2001
28.4599994309247 1911
28.4799994304776 1895
28.4999994300306 1864
28.5199994295835 1854
28.5399994291365 1820
28.5599994286895 1732
28.5799994282424 1712
28.5999994277954 1710
28.6199994273484 1755
28.6399994269013 1710
28.6599994264543 1813
28.6799994260073 1877
28.6999994255602 1942
28.7199994251132 2122
28.7399994246662 2211
28.7599994242191 2257
28.7799994237721 2379
28.7999994233251 2368
28.819999422878 2250
28.839999422431 2107
28.859999421984 1948
28.8799994215369 1924
28.8999994210899 1775
28.9199994206429 1751
28.9399994201958 1643
28.9599994197488 1778
28.9799994193017 1835
28.9999994188547 1976
29.0199994184077 1974
29.0399994179606 1958
29.0599994175136 1849
29.0799994170666 1867
29.0999994166195 1818
29.1199994161725 1777
29.1399994157255 1711
29.1599994152784 1648
29.1799994148314 1741
29.1999994143844 1725
29.2199994139373 1699
29.2399994134903 1735
29.2599994130433 1743
29.2799994125962 1713
29.2999994121492 1617
29.3199994117022 1620
29.3399994112551 1539
29.3599994108081 1551
29.379999410361 1566
29.399999409914 1484
29.419999409467 1480
29.4399994090199 1501
29.4599994085729 1525
29.4799994081259 1535
29.4999994076788 1521
29.5199994072318 1533
29.5399994067848 1483
29.5599994063377 1584
29.5799994058907 1516
29.5999994054437 1513
29.6199994049966 1508
29.6399994045496 1426
29.6599994041026 1531
29.6799994036555 1523
29.6999994032085 1560
29.7199994027615 1557
29.7399994023144 1547
29.7599994018674 1603
29.7799994014204 1594
29.7999994009733 1715
29.8199994005263 1783
29.8399994000793 1970
29.8599993996322 2110
29.8799993991852 2183
29.8999993987381 2230
29.9199993982911 2214
29.9399993978441 1975
29.959999397397 1799
29.97999939695 1717
29.999999396503 1671
