3 2001
3.01999999955297 1887
3.03999999910593 1762
3.0599999986589 1725
3.07999999821186 1684
3.09999999776483 1587
3.11999999731779 1594
3.13999999687076 1571
3.15999999642372 1581
3.17999999597669 1549
3.19999999552965 1556
3.21999999508262 1591
3.23999999463558 1504
3.25999999418855 1403
3.27999999374151 1459
3.29999999329448 1369
3.31999999284744 1466
3.33999999240041 1410
3.35999999195337 1419
3.37999999150634 1405
3.3999999910593 1370
3.41999999061227 1359
3.43999999016523 1346
3.4599999897182 1340
3.47999998927116 1352
3.49999998882413 1336
3.51999998837709 1294
3.53999998793006 1351
3.55999998748302 1292
3.57999998703599 1278
3.59999998658895 1301
3.61999998614192 1242
3.63999998569489 1227
3.65999998524785 1224
3.67999998480082 1270
3.69999998435378 1160
3.71999998390675 1189
3.73999998345971 1159
3.75999998301268 1168
3.77999998256564 1158
3.79999998211861 1245
3.81999998167157 1139
3.83999998122454 1173
3.8599999807775 1123
3.87999998033047 1115
3.89999997988343 1112
3.9199999794364 1139
3.93999997898936 1110
3.95999997854233 1079
3.97999997809529 1070
3.99999997764826 1060
4.01999997720122 1071
4.03999997675419 1143
4.05999997630715 1014
4.07999997586012 1100
4.09999997541308 954
4.11999997496605 987
4.13999997451901 1016
4.15999997407198 1013
4.17999997362494 1025
4.19999997317791 974
4.21999997273087 1036
4.23999997228384 986
4.25999997183681 1011
4.27999997138977 997
4.29999997094274 968
4.3199999704957 972
4.33999997004867 931
4.35999996960163 957
4.3799999691546 983
4.39999996870756 974
4.41999996826053 992
4.43999996781349 906
4.45999996736646 891
4.47999996691942 892
4.49999996647239 936
4.51999996602535 911
4.53999996557832 955
4.55999996513128 911
4.57999996468425 938
4.59999996423721 869
4.61999996379018 956
4.63999996334314 880
4.65999996289611 902
4.67999996244907 882
4.69999996200204 861
4.719999961555 873
4.73999996110797 837
4.75999996066093 870
4.7799999602139 900
4.79999995976686 843
4.81999995931983 899
4.83999995887279 856
4.85999995842576 845
4.87999995797873 844
4.89999995753169 855
4.91999995708466 811
4.93999995663762 811
4.95999995619059 810
4.97999995574355 850
4.99999995529652 840
5.01999995484948 867
5.03999995440245 839
5.05999995395541 858
5.07999995350838 895
5.09999995306134 830
5.11999995261431 842
5.13999995216727 885
5.15999995172024 836
5.1799999512732 915
5.19999995082617 826
5.21999995037913 830
5.2399999499321 804
5.25999994948506 837
5.27999994903803 863
5.29999994859099 864
5.31999994814396 892
5.33999994769692 862
5.35999994724989 853
5.37999994680285 889
5.39999994635582 827
5.41999994590878 872
5.43999994546175 852
5.45999994501471 824
5.47999994456768 873
5.49999994412065 918
5.51999994367361 924
5.53999994322658 970
5.55999994277954 983
5.57999994233251 962
5.59999994188547 1004
5.61999994143844 1092
5.6399999409914 1084
5.65999994054437 1145
5.67999994009733 1187
5.6999999396503 1266
5.71999993920326 1439
5.73999993875623 1645
5.75999993830919 1937
5.77999993786216 2335
5.79999993741512 2105
5.81999993696809 1392
5.83999993652105 837
5.85999993607402 751
5.87999993562698 750
5.89999993517995 737
5.91999993473291 704
5.93999993428588 747
5.95999993383884 684
5.97999993339181 723
5.99999993294477 673
6.01999993249774 750
6.0399999320507 698
6.05999993160367 675
6.07999993115663 684
6.0999999307096 612
6.11999993026257 635
6.13999992981553 624
6.1599999293685 675
6.17999992892146 672
6.19999992847443 651
6.21999992802739 653
6.23999992758036 682
6.25999992713332 675
6.27999992668629 630
6.29999992623925 656
6.31999992579222 678
6.33999992534518 666
6.35999992489815 695
6.37999992445111 693
6.39999992400408 726
6.41999992355704 695
6.43999992311001 724
6.45999992266297 740
6.47999992221594 755
6.4999999217689 766
6.51999992132187 791
6.53999992087483 799
6.5599999204278 875
6.57999991998076 904
6.59999991953373 915
6.61999991908669 1053
6.63999991863966 1238
6.65999991819262 1440
6.67999991774559 1402
6.69999991729855 994
6.71999991685152 673
6.73999991640449 641
6.75999991595745 578
6.77999991551042 626
6.79999991506338 623
6.81999991461635 587
6.83999991416931 603
6.85999991372228 573
6.87999991327524 583
6.89999991282821 568
6.91999991238117 556
6.93999991193414 581
6.9599999114871 575
6.97999991104007 577
6.99999991059303 555
7.019999910146 548
7.03999990969896 614
7.05999990925193 563
7.07999990880489 557
7.09999990835786 573
7.11999990791082 507
7.13999990746379 564
7.15999990701675 561
7.17999990656972 542
7.19999990612268 549
7.21999990567565 561
7.23999990522861 537
7.25999990478158 513
7.27999990433454 564
7.29999990388751 504
7.31999990344047 522
7.33999990299344 532
7.35999990254641 527
7.37999990209937 506
7.39999990165234 563
7.4199999012053 540
7.43999990075827 552
7.45999990031123 567
7.4799998998642 525
7.49999989941716 535
7.51999989897013 565
7.53999989852309 571
7.55999989807606 538
7.57999989762902 559
7.59999989718199 551
7.61999989673495 528
7.63999989628792 529
7.65999989584088 558
7.67999989539385 577
7.69999989494681 535
7.71999989449978 531
7.73999989405274 527
7.75999989360571 514
7.77999989315867 528
7.79999989271164 525
7.8199998922646 528
7.83999989181757 527
7.85999989137053 552
7.8799998909235 560
7.89999989047646 531
7.91999989002943 560
7.9399998895824 532
7.95999988913536 558
7.97999988868833 506
7.99999988824129 543
8.01999988779426 480
8.03999988734722 505
8.05999988690019 537
8.07999988645315 528
8.09999988600612 530
8.11999988555908 523
8.13999988511205 519
8.15999988466501 521
8.17999988421798 500
8.19999988377094 533
8.21999988332391 499
8.23999988287687 548
8.25999988242984 559
8.2799998819828 505
8.29999988153577 509
8.31999988108873 480
8.3399998806417 512
8.35999988019466 497
8.37999987974763 556
8.39999987930059 514
8.41999987885356 506
8.43999987840652 538
8.45999987795949 512
8.47999987751245 516
8.49999987706542 549
8.51999987661839 520
8.53999987617135 528
8.55999987572432 505
8.57999987527728 476
8.59999987483025 487
8.61999987438321 503
8.63999987393618 495
8.65999987348914 525
8.67999987304211 530
8.69999987259507 502
8.71999987214804 521
8.739999871701 491
8.75999987125397 491
8.77999987080693 509
8.7999998703599 537
8.81999986991286 450
8.83999986946583 542
8.85999986901879 502
8.87999986857176 518
8.89999986812472 489
8.91999986767769 501
8.93999986723065 549
8.95999986678362 542
8.97999986633658 533
8.99999986588955 503
9.01999986544251 489
9.03999986499548 527
9.05999986454844 510
9.07999986410141 530
9.09999986365438 590
9.11999986320734 550
9.13999986276031 538
9.15999986231327 529
9.17999986186624 586
9.1999998614192 583
9.21999986097217 637
9.23999986052513 669
9.2599998600781 721
9.27999985963106 736
9.29999985918403 743
9.31999985873699 796
9.33999985828996 905
9.35999985784292 1030
9.37999985739589 1179
9.39999985694885 1217
9.41999985650182 928
9.43999985605478 699
9.45999985560775 591
9.47999985516071 575
9.49999985471368 530
9.51999985426664 506
9.53999985381961 463
9.55999985337257 492
9.57999985292554 495
9.5999998524785 487
9.61999985203147 481
9.63999985158443 508
9.6599998511374 538
9.67999985069037 495
9.69999985024333 493
9.7199998497963 477
9.73999984934926 479
9.75999984890223 489
9.77999984845519 506
9.79999984800816 497
9.81999984756112 517
9.83999984711409 544
9.85999984666705 503
9.87999984622002 482
9.89999984577298 519
9.91999984532595 492
9.93999984487891 494
9.95999984443188 520
9.97999984398484 519
9.99999984353781 499
10.0199998430908 468
10.0399998426437 451
10.0599998421967 492
10.0799998417497 512
10.0999998413026 485
10.1199998408556 469
10.1399998404086 488
10.1599998399615 521
10.1799998395145 495
10.1999998390675 517
10.2199998386204 491
10.2399998381734 503
10.2599998377264 467
10.2799998372793 490
10.2999998368323 487
10.3199998363853 497
10.3399998359382 513
10.3599998354912 491
10.3799998350441 507
10.3999998345971 481
10.4199998341501 477
10.439999833703 493
10.459999833256 467
10.479999832809 509
10.4999998323619 456
10.5199998319149 460
10.5399998314679 522
10.5599998310208 524
10.5799998305738 501
10.5999998301268 517
10.6199998296797 488
10.6399998292327 514
10.6599998287857 465
10.6799998283386 497
10.6999998278916 548
10.7199998274446 518
10.7399998269975 518
10.7599998265505 520
10.7799998261034 554
10.7999998256564 591
10.8199998252094 592
10.8399998247623 573
10.8599998243153 619
10.8799998238683 678
10.8999998234212 685
10.9199998229742 735
10.9399998225272 846
10.9599998220801 1029
10.9799998216331 1152
10.9999998211861 1232
11.019999820739 1019
11.039999820292 829
11.059999819845 650
11.0799998193979 504
11.0999998189509 517
11.1199998185039 524
11.1399998180568 518
11.1599998176098 491
11.1799998171628 559
11.1999998167157 481
11.2199998162687 512
11.2399998158216 497
11.2599998153746 494
11.2799998149276 543
11.2999998144805 525
11.3199998140335 534
11.3399998135865 539
11.3599998131394 554
11.3799998126924 589
11.3999998122454 637
11.4199998117983 664
11.4399998113513 709
11.4599998109043 822
11.4799998104572 870
11.4999998100102 824
11.5199998095632 708
11.5399998091161 605
11.5599998086691 468
11.5799998082221 515
11.599999807775 486
11.619999807328 451
11.639999806881 472
11.6599998064339 481
11.6799998059869 484
11.6999998055398 474
11.7199998050928 452
11.7399998046458 466
11.7599998041987 454
11.7799998037517 460
11.7999998033047 506
11.8199998028576 410
11.8399998024106 501
11.8599998019636 471
11.8799998015165 501
11.8999998010695 470
11.9199998006225 485
11.9399998001754 479
11.9599997997284 506
11.9799997992814 492
11.9999997988343 487
12.0199997983873 490
12.0399997979403 489
12.0599997974932 486
12.0799997970462 461
12.0999997965992 508
12.1199997961521 507
12.1399997957051 463
12.159999795258 481
12.179999794811 450
12.199999794364 494
12.2199997939169 467
12.2399997934699 450
12.2599997930229 472
12.2799997925758 500
12.2999997921288 471
12.3199997916818 452
12.3399997912347 480
12.3599997907877 478
12.3799997903407 484
12.3999997898936 511
12.4199997894466 485
12.4399997889996 479
12.4599997885525 454
12.4799997881055 476
12.4999997876585 469
12.5199997872114 462
12.5399997867644 504
12.5599997863173 468
12.5799997858703 484
12.5999997854233 482
12.6199997849762 503
12.6399997845292 459
12.6599997840822 497
12.6799997836351 448
12.6999997831881 478
12.7199997827411 490
12.739999782294 469
12.759999781847 441
12.7799997814 486
12.7999997809529 481
12.8199997805059 472
12.8399997800589 487
12.8599997796118 502
12.8799997791648 507
12.8999997787178 479
12.9199997782707 492
12.9399997778237 525
12.9599997773767 520
12.9799997769296 495
12.9999997764826 527
13.0199997760355 490
13.0399997755885 501
13.0599997751415 503
13.0799997746944 511
13.0999997742474 515
13.1199997738004 537
13.1399997733533 510
13.1599997729063 533
13.1799997724593 565
13.1999997720122 590
13.2199997715652 664
13.2399997711182 669
13.2599997706711 628
13.2799997702241 614
13.2999997697771 568
13.31999976933 506
13.339999768883 510
13.359999768436 494
13.3799997679889 528
13.3999997675419 506
13.4199997670949 508
13.4399997666478 519
13.4599997662008 518
13.4799997657537 507
13.4999997653067 529
13.5199997648597 521
13.5399997644126 519
13.5599997639656 536
13.5799997635186 486
13.5999997630715 489
13.6199997626245 496
13.6399997621775 519
13.6599997617304 486
13.6799997612834 483
13.6999997608364 514
13.7199997603893 522
13.7399997599423 509
13.7599997594953 511
13.7799997590482 538
13.7999997586012 471
13.8199997581542 525
13.8399997577071 470
13.8599997572601 522
13.879999756813 537
13.899999756366 569
13.919999755919 540
13.9399997554719 524
13.9599997550249 535
13.9799997545779 499
13.9999997541308 489
14.0199997536838 509
14.0399997532368 496
14.0599997527897 525
14.0799997523427 475
14.0999997518957 522
14.1199997514486 490
14.1399997510016 545
14.1599997505546 519
14.1799997501075 541
14.1999997496605 527
14.2199997492135 547
14.2399997487664 520
14.2599997483194 510
14.2799997478724 504
14.2999997474253 530
14.3199997469783 543
14.3399997465312 532
14.3599997460842 556
14.3799997456372 557
14.3999997451901 590
14.4199997447431 633
14.4399997442961 599
14.459999743849 705
14.479999743402 608
14.499999742955 543
14.5199997425079 535
14.5399997420609 581
14.5599997416139 529
14.5799997411668 523
14.5999997407198 537
14.6199997402728 537
14.6399997398257 553
14.6599997393787 539
14.6799997389317 531
14.6999997384846 541
14.7199997380376 569
14.7399997375906 561
14.7599997371435 624
14.7799997366965 550
14.7999997362494 573
14.8199997358024 554
14.8399997353554 543
14.8599997349083 570
14.8799997344613 553
14.8999997340143 549
14.9199997335672 532
14.9399997331202 537
14.9599997326732 517
14.9799997322261 524
14.9999997317791 572
15.0199997313321 552
15.039999730885 544
15.059999730438 587
15.079999729991 562
15.0999997295439 554
15.1199997290969 541
15.1399997286499 548
15.1599997282028 561
15.1799997277558 559
15.1999997273088 570
15.2199997268617 600
15.2399997264147 595
15.2599997259676 617
15.2799997255206 599
15.2999997250736 600
15.3199997246265 578
15.3399997241795 558
15.3599997237325 539
15.3799997232854 588
15.3999997228384 596
15.4199997223914 601
15.4399997219443 572
15.4599997214973 591
15.4799997210503 554
15.4999997206032 535
15.5199997201562 623
15.5399997197092 604
15.5599997192621 576
15.5799997188151 585
15.5999997183681 619
15.619999717921 550
15.639999717474 578
15.659999717027 619
15.6799997165799 574
15.6999997161329 596
15.7199997156858 582
15.7399997152388 593
15.7599997147918 584
15.7799997143447 613
15.7999997138977 620
15.8199997134507 618
15.8399997130036 649
15.8599997125566 611
15.8799997121096 616
15.8999997116625 598
15.9199997112155 601
15.9399997107685 640
15.9599997103214 649
15.9799997098744 578
15.9999997094274 572
16.0199997089803 595
16.0399997085333 626
16.0599997080863 620
16.0799997076392 617
16.0999997071922 578
16.1199997067451 663
16.1399997062981 657
16.1599997058511 604
16.179999705404 637
16.199999704957 593
16.21999970451 636
16.2399997040629 602
16.2599997036159 613
16.2799997031689 608
16.2999997027218 646
16.3199997022748 581
16.3399997018278 674
16.3599997013807 659
16.3799997009337 639
16.3999997004867 686
16.4199997000396 599
16.4399996995926 662
16.4599996991456 599
16.4799996986985 649
16.4999996982515 629
16.5199996978045 660
16.5399996973574 688
16.5599996969104 663
16.5799996964633 669
16.5999996960163 684
16.6199996955693 654
16.6399996951222 657
16.6599996946752 646
16.6799996942282 689
16.6999996937811 637
16.7199996933341 651
16.7399996928871 635
16.75999969244 681
16.779999691993 653
16.799999691546 680
16.8199996910989 643
16.8399996906519 666
16.8599996902049 665
16.8799996897578 699
16.8999996893108 669
16.9199996888638 686
16.9399996884167 681
16.9599996879697 680
16.9799996875226 669
16.9999996870756 697
17.0199996866286 691
17.0399996861815 699
17.0599996857345 695
17.0799996852875 668
17.0999996848404 734
17.1199996843934 703
17.1399996839464 744
17.1599996834993 824
17.1799996830523 827
17.1999996826053 837
17.2199996821582 827
17.2399996817112 878
17.2599996812642 804
17.2799996808171 749
17.2999996803701 699
17.3199996799231 742
17.339999679476 668
17.359999679029 708
17.379999678582 701
17.3999996781349 724
17.4199996776879 742
17.4399996772408 702
17.4599996767938 689
17.4799996763468 715
17.4999996758997 709
17.5199996754527 746
17.5399996750057 724
17.5599996745586 738
17.5799996741116 760
17.5999996736646 752
17.6199996732175 778
17.6399996727705 772
17.6599996723235 715
17.6799996718764 753
17.6999996714294 745
17.7199996709824 744
17.7399996705353 750
17.7599996700883 786
17.7799996696413 724
17.7999996691942 767
17.8199996687472 723
17.8399996683002 779
17.8599996678531 751
17.8799996674061 742
17.899999666959 783
17.919999666512 760
17.939999666065 762
17.9599996656179 742
17.9799996651709 771
17.9999996647239 773
18.0199996642768 764
18.0399996638298 782
18.0599996633828 784
18.0799996629357 788
18.0999996624887 755
18.1199996620417 762
18.1399996615946 821
18.1599996611476 758
18.1799996607006 765
18.1999996602535 798
18.2199996598065 785
18.2399996593595 773
18.2599996589124 801
18.2799996584654 803
18.2999996580184 758
18.3199996575713 779
18.3399996571243 774
18.3599996566772 821
18.3799996562302 805
18.3999996557832 803
18.4199996553361 829
18.4399996548891 771
18.4599996544421 798
18.479999653995 813
18.499999653548 829
18.519999653101 823
18.5399996526539 878
18.5599996522069 843
18.5799996517599 816
18.5999996513128 814
18.6199996508658 854
18.6399996504188 832
18.6599996499717 802
18.6799996495247 815
18.6999996490777 831
18.7199996486306 859
18.7399996481836 868
18.7599996477366 834
18.7799996472895 839
18.7999996468425 818
18.8199996463954 843
18.8399996459484 846
18.8599996455014 925
18.8799996450543 859
18.8999996446073 858
18.9199996441603 843
18.9399996437132 891
18.9599996432662 862
18.9799996428192 855
18.9999996423721 872
19.0199996419251 889
19.0399996414781 862
19.059999641031 828
19.079999640584 886
19.099999640137 814
19.1199996396899 883
19.1399996392429 907
19.1599996387959 850
19.1799996383488 853
19.1999996379018 897
19.2199996374547 896
19.2399996370077 905
19.2599996365607 895
19.2799996361136 923
19.2999996356666 934
19.3199996352196 885
19.3399996347725 859
19.3599996343255 881
19.3799996338785 924
19.3999996334314 908
19.4199996329844 926
19.4399996325374 907
19.4599996320903 972
19.4799996316433 992
19.4999996311963 1028
19.5199996307492 1058
19.5399996303022 1042
19.5599996298552 1168
19.5799996294081 1324
19.5999996289611 1370
19.6199996285141 1386
19.639999628067 1333
19.65999962762 1247
19.6799996271729 1100
19.6999996267259 1096
19.7199996262789 985
19.7399996258318 1028
19.7599996253848 1059
19.7799996249378 1050
19.7999996244907 1081
19.8199996240437 1173
19.8399996235967 1287
19.8599996231496 1514
19.8799996227026 1582
19.8999996222556 1666
19.9199996218085 1548
19.9399996213615 1283
19.9599996209145 1174
19.9799996204674 1104
19.9999996200204 1007
20.0199996195734 941
20.0399996191263 953
20.0599996186793 939
20.0799996182322 916
20.0999996177852 940
20.1199996173382 956
20.1399996168911 947
20.1599996164441 992
20.1799996159971 942
20.19999961555 960
20.219999615103 992
20.239999614656 990
20.2599996142089 922
20.2799996137619 932
20.2999996133149 930
20.3199996128678 936
20.3399996124208 883
20.3599996119738 944
20.3799996115267 910
20.3999996110797 991
20.4199996106327 965
20.4399996101856 942
20.4599996097386 937
20.4799996092916 982
20.4999996088445 942
20.5199996083975 992
20.5399996079504 941
20.5599996075034 956
20.5799996070564 981
20.5999996066093 1017
20.6199996061623 1011
20.6399996057153 1004
20.6599996052682 1047
20.6799996048212 949
20.6999996043742 943
20.7199996039271 1005
20.7399996034801 977
20.7599996030331 976
20.779999602586 951
20.799999602139 912
20.819999601692 969
20.8399996012449 1055
20.8599996007979 1012
20.8799996003509 1008
20.8999995999038 1001
20.9199995994568 1028
20.9399995990098 976
20.9599995985627 959
20.9799995981157 1038
20.9999995976686 1028
21.0199995972216 980
21.0399995967746 1009
21.0599995963275 1043
21.0799995958805 986
21.0999995954335 1027
21.1199995949864 1004
21.1399995945394 1062
21.1599995940924 955
21.1799995936453 1035
21.1999995931983 1013
21.2199995927513 967
21.2399995923042 997
21.2599995918572 998
21.2799995914102 1022
21.2999995909631 969
21.3199995905161 967
21.3399995900691 999
21.359999589622 1029
21.379999589175 1002
21.399999588728 974
21.4199995882809 1004
21.4399995878339 1052
21.4599995873868 979
21.4799995869398 1040
21.4999995864928 969
21.5199995860457 1016
21.5399995855987 1080
21.5599995851517 1010
21.5799995847046 1005
21.5999995842576 1057
21.6199995838106 1091
21.6399995833635 1059
21.6599995829165 1100
21.6799995824695 1092
21.6999995820224 1134
21.7199995815754 1262
21.7399995811284 1245
21.7599995806813 1255
21.7799995802343 1238
21.7999995797873 1174
21.8199995793402 1124
21.8399995788932 1111
21.8599995784462 1092
21.8799995779991 1045
21.8999995775521 1058
21.919999577105 983
21.939999576658 1057
21.959999576211 1007
21.9799995757639 1057
21.9999995753169 1040
22.0199995748699 1002
22.0399995744228 1070
22.0599995739758 1053
22.0799995735288 1037
22.0999995730817 961
22.1199995726347 999
22.1399995721877 1067
22.1599995717406 1030
22.1799995712936 1081
22.1999995708466 1068
22.2199995703995 1004
22.2399995699525 987
22.2599995695055 1010
22.2799995690584 1024
22.2999995686114 1044
22.3199995681643 1015
22.3399995677173 1046
22.3599995672703 1055
22.3799995668232 1062
22.3999995663762 992
22.4199995659292 1022
22.4399995654821 1046
22.4599995650351 1023
22.4799995645881 982
22.499999564141 1045
22.519999563694 1006
22.539999563247 1002
22.5599995627999 1030
22.5799995623529 1053
22.5999995619059 1112
22.6199995614588 1077
22.6399995610118 1058
22.6599995605648 1039
22.6799995601177 1030
22.6999995596707 1049
22.7199995592237 1076
22.7399995587766 1043
22.7599995583296 1010
22.7799995578825 1052
22.7999995574355 1038
22.8199995569885 1087
22.8399995565414 1083
22.8599995560944 1069
22.8799995556474 1051
22.8999995552003 1095
22.9199995547533 1105
22.9399995543063 1115
22.9599995538592 1107
22.9799995534122 1179
22.9999995529652 1193
23.0199995525181 1171
23.0399995520711 1110
23.0599995516241 1119
23.079999551177 1087
23.09999955073 1090
23.119999550283 1046
23.1399995498359 1067
23.1599995493889 1041
23.1799995489418 1041
23.1999995484948 1087
23.2199995480478 1090
23.2399995476007 1047
23.2599995471537 1045
23.2799995467067 1084
23.2999995462596 1078
23.3199995458126 1055
23.3399995453656 1052
23.3599995449185 1039
23.3799995444715 1030
23.3999995440245 1018
23.4199995435774 1017
23.4399995431304 1037
23.4599995426834 1125
23.4799995422363 1069
23.4999995417893 1044
23.5199995413423 1078
23.5399995408952 1118
23.5599995404482 1064
23.5799995400012 1111
23.5999995395541 1149
23.6199995391071 1244
23.63999953866 1268
23.659999538213 1416
23.679999537766 1495
23.6999995373189 1687
23.7199995368719 1662
23.7399995364249 1598
23.7599995359778 1452
23.7799995355308 1305
23.7999995350838 1227
23.8199995346367 1146
23.8399995341897 1081
23.8599995337427 1065
23.8799995332956 1043
23.8999995328486 1139
23.9199995324016 1135
23.9399995319545 1171
23.9599995315075 1171
23.9799995310605 1165
23.9999995306134 1140
24.0199995301664 1124
24.0399995297194 1115
24.0599995292723 1057
24.0799995288253 1030
24.0999995283782 1050
24.1199995279312 1088
24.1399995274842 1044
24.1599995270371 1028
24.1799995265901 1058
24.1999995261431 1004
24.219999525696 977
24.239999525249 1018
24.259999524802 1058
24.2799995243549 1035
24.2999995239079 955
24.3199995234609 1064
24.3399995230138 999
24.3599995225668 1034
24.3799995221198 1013
24.3999995216727 1066
24.4199995212257 1022
24.4399995207787 1047
24.4599995203316 1022
24.4799995198846 1035
24.4999995194376 1044
24.5199995189905 1032
24.5399995185435 1007
24.5599995180964 999
24.5799995176494 1053
24.5999995172024 1009
24.6199995167553 1017
24.6399995163083 1062
24.6599995158613 1088
24.6799995154142 1023
24.6999995149672 1065
24.7199995145202 1088
24.7399995140731 1099
24.7599995136261 1107
24.7799995131791 1162
24.799999512732 1198
24.819999512285 1366
24.839999511838 1467
24.8599995113909 1463
24.8799995109439 1426
24.8999995104969 1341
24.9199995100498 1266
24.9399995096028 1124
24.9599995091558 1162
24.9799995087087 1099
24.9999995082617 1041
25.0199995078146 1028
25.0399995073676 1016
25.0599995069206 987
25.0799995064735 1041
25.0999995060265 996
25.1199995055795 1011
25.1399995051324 1035
25.1599995046854 1040
25.1799995042384 1096
25.1999995037913 1000
25.2199995033443 1047
25.2399995028973 1032
25.2599995024502 994
25.2799995020032 1035
25.2999995015562 1085
25.3199995011091 1071
25.3399995006621 1019
25.3599995002151 1030
25.379999499768 1042
25.399999499321 1086
25.4199994988739 1122
25.4399994984269 1189
25.4599994979799 1305
25.4799994975328 1562
25.4999994970858 1635
25.5199994966388 1641
25.5399994961917 1688
25.5599994957447 1643
25.5799994952977 1422
25.5999994948506 1319
25.6199994944036 1128
25.6399994939566 1023
25.6599994935095 1058
25.6799994930625 1033
25.6999994926155 980
25.7199994921684 1003
25.7399994917214 1038
25.7599994912744 1121
25.7799994908273 996
25.7999994903803 1034
25.8199994899333 968
25.8399994894862 962
25.8599994890392 941
25.8799994885921 959
25.8999994881451 1002
25.9199994876981 989
25.939999487251 992
25.959999486804 1000
25.979999486357 916
25.9999994859099 1020
26.0199994854629 977
26.0399994850159 947
26.0599994845688 976
26.0799994841218 927
26.0999994836748 971
26.1199994832277 976
26.1399994827807 1039
26.1599994823337 1007
26.1799994818866 988
26.1999994814396 1057
26.2199994809926 1012
26.2399994805455 971
26.2599994800985 981
26.2799994796514 963
26.2999994792044 966
26.3199994787574 950
26.3399994783103 954
26.3599994778633 976
26.3799994774163 979
26.3999994769692 1002
26.4199994765222 1014
26.4399994760752 1051
26.4599994756281 1046
26.4799994751811 1025
26.4999994747341 1015
26.519999474287 1036
26.53999947384 1215
26.559999473393 1287
26.5799994729459 1404
26.5999994724989 1416
26.6199994720519 1362
26.6399994716048 1276
26.6599994711578 1178
26.6799994707108 1178
26.6999994702637 1092
26.7199994698167 972
26.7399994693697 1014
26.7599994689226 981
26.7799994684756 981
26.7999994680285 944
26.8199994675815 999
26.8399994671345 976
26.8599994666874 997
26.8799994662404 953
26.8999994657934 934
26.9199994653463 989
26.9399994648993 915
26.9599994644523 941
26.9799994640052 973
26.9999994635582 951
27.0199994631112 977
27.0399994626641 976
27.0599994622171 958
27.0799994617701 1004
27.099999461323 952
27.119999460876 923
27.139999460429 925
27.1599994599819 943
27.1799994595349 1050
27.1999994590878 998
27.2199994586408 979
27.2399994581938 986
27.2599994577467 1011
27.2799994572997 956
27.2999994568527 962
27.3199994564056 1063
27.3399994559586 1062
27.3599994555116 1134
27.3799994550645 1184
27.3999994546175 1385
27.4199994541705 1389
27.4399994537234 1371
27.4599994532764 1345
27.4799994528294 1338
27.4999994523823 1210
27.5199994519353 1141
27.5399994514883 1085
27.5599994510412 973
27.5799994505942 940
27.5999994501472 953
27.6199994497001 935
27.6399994492531 907
27.659999448806 915
27.679999448359 947
27.699999447912 914
27.7199994474649 961
27.7399994470179 870
27.7599994465709 922
27.7799994461238 925
27.7999994456768 895
27.8199994452298 939
27.8399994447827 971
27.8599994443357 935
27.8799994438887 947
27.8999994434416 931
27.9199994429946 917
27.9399994425476 935
27.9599994421005 956
27.9799994416535 878
27.9999994412065 954
28.0199994407594 876
28.0399994403124 959
28.0599994398654 938
28.0799994394183 917
28.0999994389713 903
28.1199994385242 949
28.1399994380772 923
28.1599994376302 986
28.1799994371831 1071
28.1999994367361 1050
28.2199994362891 1030
28.239999435842 1115
28.259999435395 1134
28.279999434948 1102
28.2999994345009 997
28.3199994340539 973
28.3399994336069 1012
28.3599994331598 945
28.3799994327128 915
28.3999994322658 894
28.4199994318187 924
28.4399994313717 898
28.4599994309247 906
28.4799994304776 905
28.4999994300306 905
28.5199994295835 922
28.5399994291365 936
28.5599994286895 928
28.5799994282424 920
28.5999994277954 901
28.6199994273484 925
28.6399994269013 898
28.6599994264543 990
28.6799994260073 975
28.6999994255602 965
28.7199994251132 947
28.7399994246662 929
28.7599994242191 1052
28.7799994237721 1101
28.7999994233251 1250
28.819999422878 1299
28.839999422431 1265
28.859999421984 1244
28.8799994215369 1191
28.8999994210899 1186
28.9199994206429 1106
28.9399994201958 1060
28.9599994197488 1095
28.9799994193017 1121
28.9999994188547 1195
29.0199994184077 1295
29.0399994179606 1263
29.0599994175136 1214
29.0799994170666 1178
29.0999994166195 1065
29.1199994161725 1095
29.1399994157255 1025
29.1599994152784 888
29.1799994148314 903
29.1999994143844 952
29.2199994139373 960
29.2399994134903 872
29.2599994130433 898
29.2799994125962 898
29.2999994121492 954
29.3199994117022 890
29.3399994112551 870
29.3599994108081 889
29.379999410361 931
29.399999409914 911
29.419999409467 955
29.4399994090199 906
29.4599994085729 864
29.4799994081259 890
29.4999994076788 929
29.5199994072318 945
29.5399994067848 895
29.5599994063377 908
29.5799994058907 860
29.5999994054437 916
29.6199994049966 882
29.6399994045496 920
29.6599994041026 913
29.6799994036555 899
29.6999994032085 968
29.7199994027615 867
29.7399994023144 925
29.7599994018674 882
29.7799994014204 875
29.7999994009733 892
29.8199994005263 890
29.8399994000793 893
29.8599993996322 862
29.8799993991852 875
29.8999993987381 892
29.9199993982911 902
29.9399993978441 915
29.959999397397 850
29.97999939695 870
29.999999396503 903
