3 2146
3.01999999955297 1997
3.03999999910593 1844
3.0599999986589 1737
3.07999999821186 1671
3.09999999776483 1617
3.11999999731779 1603
3.13999999687076 1565
3.15999999642372 1530
3.17999999597669 1492
3.19999999552965 1458
3.21999999508262 1431
3.23999999463558 1456
3.25999999418855 1383
3.27999999374151 1340
3.29999999329448 1351
3.31999999284744 1420
3.33999999240041 1345
3.35999999195337 1358
3.37999999150634 1368
3.3999999910593 1284
3.41999999061227 1252
3.43999999016523 1162
3.4599999897182 1247
3.47999998927116 1196
3.49999998882413 1191
3.51999998837709 1267
3.53999998793006 1232
3.55999998748302 1210
3.57999998703599 1169
3.59999998658895 1159
3.61999998614192 1163
3.63999998569489 1118
3.65999998524785 1146
3.67999998480082 1113
3.69999998435378 1102
3.71999998390675 1114
3.73999998345971 1126
3.75999998301268 1086
3.77999998256564 1141
3.79999998211861 1038
3.81999998167157 1070
3.83999998122454 1063
3.8599999807775 1075
3.87999998033047 1009
3.89999997988343 1005
3.9199999794364 1014
3.93999997898936 1000
3.95999997854233 969
3.97999997809529 948
3.99999997764826 990
4.01999997720122 1000
4.03999997675419 1007
4.05999997630715 925
4.07999997586012 924
4.09999997541308 934
4.11999997496605 966
4.13999997451901 927
4.15999997407198 939
4.17999997362494 919
4.19999997317791 949
4.21999997273087 935
4.23999997228384 885
4.25999997183681 989
4.27999997138977 953
4.29999997094274 962
4.3199999704957 869
4.33999997004867 867
4.35999996960163 849
4.3799999691546 846
4.39999996870756 860
4.41999996826053 792
4.43999996781349 811
4.45999996736646 846
4.47999996691942 915
4.49999996647239 847
4.51999996602535 831
4.53999996557832 846
4.55999996513128 796
4.57999996468425 838
4.59999996423721 770
4.61999996379018 803
4.63999996334314 813
4.65999996289611 804
4.67999996244907 797
4.69999996200204 788
4.719999961555 820
4.73999996110797 799
4.75999996066093 810
4.7799999602139 796
4.79999995976686 807
4.81999995931983 810
4.83999995887279 824
4.85999995842576 839
4.87999995797873 807
4.89999995753169 813
4.91999995708466 771
4.93999995663762 882
4.95999995619059 808
4.97999995574355 780
4.99999995529652 832
5.01999995484948 824
5.03999995440245 839
5.05999995395541 835
5.07999995350838 775
5.09999995306134 851
5.11999995261431 840
5.13999995216727 882
5.15999995172024 854
5.1799999512732 918
5.19999995082617 854
5.21999995037913 899
5.2399999499321 861
5.25999994948506 883
5.27999994903803 928
5.29999994859099 943
5.31999994814396 933
5.33999994769692 921
5.35999994724989 973
5.37999994680285 1012
5.39999994635582 995
5.41999994590878 1063
5.43999994546175 1070
5.45999994501471 1077
5.47999994456768 1073
5.49999994412065 1131
5.51999994367361 1252
5.53999994322658 1191
5.55999994277954 1243
5.57999994233251 1310
5.59999994188547 1330
5.61999994143844 1329
5.6399999409914 1498
5.65999994054437 1577
5.67999994009733 1657
5.6999999396503 1724
5.71999993920326 1939
5.73999993875623 2108
5.75999993830919 2352
5.77999993786216 2631
5.79999993741512 3174
5.81999993696809 3649
5.83999993652105 3223
5.85999993607402 1838
5.87999993562698 1090
5.89999993517995 923
5.91999993473291 876
5.93999993428588 849
5.95999993383884 821
5.97999993339181 831
5.99999993294477 854
6.01999993249774 780
6.0399999320507 771
6.05999993160367 813
6.07999993115663 788
6.0999999307096 794
6.11999993026257 796
6.13999992981553 811
6.1599999293685 810
6.17999992892146 741
6.19999992847443 789
6.21999992802739 856
6.23999992758036 814
6.25999992713332 788
6.27999992668629 869
6.29999992623925 854
6.31999992579222 814
6.33999992534518 827
6.35999992489815 865
6.37999992445111 876
6.39999992400408 874
6.41999992355704 889
6.43999992311001 947
6.45999992266297 976
6.47999992221594 969
6.4999999217689 1004
6.51999992132187 1096
6.53999992087483 1154
6.5599999204278 1215
6.57999991998076 1264
6.59999991953373 1324
6.61999991908669 1452
6.63999991863966 1556
6.65999991819262 1803
6.67999991774559 2040
6.69999991729855 2355
6.71999991685152 2112
6.73999991640449 1296
6.75999991595745 874
6.77999991551042 743
6.79999991506338 765
6.81999991461635 733
6.83999991416931 728
6.85999991372228 762
6.87999991327524 690
6.89999991282821 725
6.91999991238117 751
6.93999991193414 722
6.9599999114871 700
6.97999991104007 750
6.99999991059303 653
7.019999910146 671
7.03999990969896 640
7.05999990925193 642
7.07999990880489 674
7.09999990835786 676
7.11999990791082 688
7.13999990746379 702
7.15999990701675 724
7.17999990656972 657
7.19999990612268 681
7.21999990567565 639
7.23999990522861 718
7.25999990478158 692
7.27999990433454 648
7.29999990388751 646
7.31999990344047 645
7.33999990299344 681
7.35999990254641 666
7.37999990209937 697
7.39999990165234 634
7.4199999012053 690
7.43999990075827 664
7.45999990031123 672
7.4799998998642 697
7.49999989941716 663
7.51999989897013 661
7.53999989852309 649
7.55999989807606 679
7.57999989762902 657
7.59999989718199 679
7.61999989673495 693
7.63999989628792 626
7.65999989584088 669
7.67999989539385 657
7.69999989494681 633
7.71999989449978 698
7.73999989405274 670
7.75999989360571 684
7.77999989315867 652
7.79999989271164 698
7.8199998922646 654
7.83999989181757 706
7.85999989137053 678
7.8799998909235 674
7.89999989047646 683
7.91999989002943 678
7.9399998895824 652
7.95999988913536 617
7.97999988868833 646
7.99999988824129 640
8.01999988779426 668
8.03999988734722 686
8.05999988690019 663
8.07999988645315 710
8.09999988600612 686
8.11999988555908 631
8.13999988511205 688
8.15999988466501 675
8.17999988421798 645
8.19999988377094 642
8.21999988332391 681
8.23999988287687 690
8.25999988242984 715
8.2799998819828 631
8.29999988153577 655
8.31999988108873 701
8.3399998806417 658
8.35999988019466 703
8.37999987974763 667
8.39999987930059 696
8.41999987885356 654
8.43999987840652 666
8.45999987795949 690
8.47999987751245 693
8.49999987706542 649
8.51999987661839 676
8.53999987617135 694
8.55999987572432 705
8.57999987527728 668
8.59999987483025 709
8.61999987438321 652
8.63999987393618 690
8.65999987348914 666
8.67999987304211 658
8.69999987259507 720
8.71999987214804 707
8.739999871701 681
8.75999987125397 692
8.77999987080693 697
8.7999998703599 672
8.81999986991286 708
8.83999986946583 711
8.85999986901879 720
8.87999986857176 652
8.89999986812472 706
8.91999986767769 686
8.93999986723065 680
8.95999986678362 729
8.97999986633658 697
8.99999986588955 709
9.01999986544251 748
9.03999986499548 715
9.05999986454844 754
9.07999986410141 778
9.09999986365438 771
9.11999986320734 815
9.13999986276031 818
9.15999986231327 806
9.17999986186624 873
9.1999998614192 869
9.21999986097217 898
9.23999986052513 957
9.2599998600781 993
9.27999985963106 1023
9.29999985918403 1077
9.31999985873699 1208
9.33999985828996 1339
9.35999985784292 1428
9.37999985739589 1602
9.39999985694885 1838
9.41999985650182 1948
9.43999985605478 1817
9.45999985560775 1423
9.47999985516071 951
9.49999985471368 780
9.51999985426664 688
9.53999985381961 743
9.55999985337257 738
9.57999985292554 716
9.5999998524785 706
9.61999985203147 701
9.63999985158443 616
9.6599998511374 671
9.67999985069037 644
9.69999985024333 731
9.7199998497963 701
9.73999984934926 693
9.75999984890223 708
9.77999984845519 667
9.79999984800816 659
9.81999984756112 658
9.83999984711409 669
9.85999984666705 716
9.87999984622002 734
9.89999984577298 724
9.91999984532595 697
9.93999984487891 727
9.95999984443188 710
9.97999984398484 676
9.99999984353781 692
10.0199998430908 702
10.0399998426437 686
10.0599998421967 701
10.0799998417497 713
10.0999998413026 659
10.1199998408556 737
10.1399998404086 743
10.1599998399615 716
10.1799998395145 650
10.1999998390675 736
10.2199998386204 686
10.2399998381734 692
10.2599998377264 724
10.2799998372793 686
10.2999998368323 733
10.3199998363853 728
10.3399998359382 700
10.3599998354912 748
10.3799998350441 706
10.3999998345971 711
10.4199998341501 721
10.439999833703 674
10.459999833256 701
10.479999832809 759
10.4999998323619 747
10.5199998319149 691
10.5399998314679 740
10.5599998310208 748
10.5799998305738 731
10.5999998301268 736
10.6199998296797 737
10.6399998292327 743
10.6599998287857 779
10.6799998283386 779
10.6999998278916 832
10.7199998274446 811
10.7399998269975 825
10.7599998265505 824
10.7799998261034 876
10.7999998256564 875
10.8199998252094 881
10.8399998247623 912
10.8599998243153 948
10.8799998238683 994
10.8999998234212 1067
10.9199998229742 1121
10.9399998225272 1229
10.9599998220801 1371
10.9799998216331 1550
10.9999998211861 1832
11.019999820739 2104
11.039999820292 2107
11.059999819845 1769
11.0799998193979 1295
11.0999998189509 883
11.1199998185039 820
11.1399998180568 828
11.1599998176098 751
11.1799998171628 729
11.1999998167157 781
11.2199998162687 749
11.2399998158216 745
11.2599998153746 787
11.2799998149276 793
11.2999998144805 818
11.3199998140335 810
11.3399998135865 827
11.3599998131394 850
11.3799998126924 870
11.3999998122454 919
11.4199998117983 989
11.4399998113513 1055
11.4599998109043 1138
11.4799998104572 1197
11.4999998100102 1359
11.5199998095632 1455
11.5399998091161 1299
11.5599998086691 1057
11.5799998082221 875
11.599999807775 767
11.619999807328 772
11.639999806881 738
11.6599998064339 749
11.6799998059869 753
11.6999998055398 724
11.7199998050928 728
11.7399998046458 690
11.7599998041987 733
11.7799998037517 690
11.7999998033047 765
11.8199998028576 715
11.8399998024106 749
11.8599998019636 715
11.8799998015165 725
11.8999998010695 758
11.9199998006225 730
11.9399998001754 790
11.9599997997284 744
11.9799997992814 751
11.9999997988343 791
12.0199997983873 751
12.0399997979403 774
12.0599997974932 732
12.0799997970462 770
12.0999997965992 770
12.1199997961521 759
12.1399997957051 735
12.159999795258 781
12.179999794811 728
12.199999794364 778
12.2199997939169 776
12.2399997934699 817
12.2599997930229 759
12.2799997925758 725
12.2999997921288 806
12.3199997916818 756
12.3399997912347 777
12.3599997907877 741
12.3799997903407 794
12.3999997898936 792
12.4199997894466 756
12.4399997889996 768
12.4599997885525 737
12.4799997881055 759
12.4999997876585 786
12.5199997872114 781
12.5399997867644 727
12.5599997863173 805
12.5799997858703 791
12.5999997854233 764
12.6199997849762 762
12.6399997845292 775
12.6599997840822 725
12.6799997836351 781
12.6999997831881 790
12.7199997827411 747
12.739999782294 812
12.759999781847 822
12.7799997814 840
12.7999997809529 781
12.8199997805059 801
12.8399997800589 839
12.8599997796118 785
12.8799997791648 789
12.8999997787178 798
12.9199997782707 810
12.9399997778237 739
12.9599997773767 824
12.9799997769296 855
12.9999997764826 810
13.0199997760355 800
13.0399997755885 785
13.0599997751415 826
13.0799997746944 855
13.0999997742474 819
13.1199997738004 873
13.1399997733533 856
13.1599997729063 899
13.1799997724593 844
13.1999997720122 902
13.2199997715652 941
13.2399997711182 993
13.2599997706711 1024
13.2799997702241 1038
13.2999997697771 1121
13.31999976933 993
13.339999768883 910
13.359999768436 891
13.3799997679889 848
13.3999997675419 859
13.4199997670949 831
13.4399997666478 870
13.4599997662008 822
13.4799997657537 791
13.4999997653067 805
13.5199997648597 842
13.5399997644126 831
13.5599997639656 859
13.5799997635186 877
13.5999997630715 834
13.6199997626245 854
13.6399997621775 797
13.6599997617304 853
13.6799997612834 842
13.6999997608364 844
13.7199997603893 886
13.7399997599423 872
13.7599997594953 821
13.7799997590482 832
13.7999997586012 853
13.8199997581542 884
13.8399997577071 931
13.8599997572601 848
13.879999756813 908
13.899999756366 860
13.919999755919 882
13.9399997554719 904
13.9599997550249 920
13.9799997545779 876
13.9999997541308 847
14.0199997536838 902
14.0399997532368 891
14.0599997527897 911
14.0799997523427 901
14.0999997518957 942
14.1199997514486 913
14.1399997510016 922
14.1599997505546 906
14.1799997501075 934
14.1999997496605 903
14.2199997492135 951
14.2399997487664 940
14.2599997483194 959
14.2799997478724 1004
14.2999997474253 977
14.3199997469783 930
14.3399997465312 910
14.3599997460842 986
14.3799997456372 962
14.3999997451901 1055
14.4199997447431 1072
14.4399997442961 1079
14.459999743849 1166
14.479999743402 1166
14.499999742955 1094
14.5199997425079 1058
14.5399997420609 999
14.5599997416139 948
14.5799997411668 1041
14.5999997407198 970
14.6199997402728 977
14.6399997398257 932
14.6599997393787 962
14.6799997389317 996
14.6999997384846 991
14.7199997380376 985
14.7399997375906 998
14.7599997371435 984
14.7799997366965 997
14.7999997362494 985
14.8199997358024 1060
14.8399997353554 1018
14.8599997349083 981
14.8799997344613 997
14.8999997340143 1017
14.9199997335672 1052
14.9399997331202 1028
14.9599997326732 1021
14.9799997322261 1017
14.9999997317791 1025
15.0199997313321 1052
15.039999730885 1025
15.059999730438 1000
15.079999729991 1086
15.0999997295439 1021
15.1199997290969 1028
15.1399997286499 1015
15.1599997282028 1068
15.1799997277558 1000
15.1999997273088 1012
15.2199997268617 1059
15.2399997264147 1031
15.2599997259676 1085
15.2799997255206 1053
15.2999997250736 1075
15.3199997246265 1057
15.3399997241795 1026
15.3599997237325 1137
15.3799997232854 1147
15.3999997228384 1062
15.4199997223914 1108
15.4399997219443 1149
15.4599997214973 1064
15.4799997210503 1090
15.4999997206032 1093
15.5199997201562 1134
15.5399997197092 1087
15.5599997192621 1135
15.5799997188151 1158
15.5999997183681 1116
15.619999717921 1155
15.639999717474 1139
15.659999717027 1121
15.6799997165799 1183
15.6999997161329 1189
15.7199997156858 1151
15.7399997152388 1162
15.7599997147918 1091
15.7799997143447 1196
15.7999997138977 1093
15.8199997134507 1198
15.8399997130036 1125
15.8599997125566 1175
15.8799997121096 1249
15.8999997116625 1223
15.9199997112155 1223
15.9399997107685 1203
15.9599997103214 1171
15.9799997098744 1167
15.9999997094274 1219
16.0199997089803 1144
16.0399997085333 1215
16.0599997080863 1186
16.0799997076392 1270
16.0999997071922 1201
16.1199997067451 1223
16.1399997062981 1200
16.1599997058511 1200
16.179999705404 1259
16.199999704957 1307
16.21999970451 1236
16.2399997040629 1211
16.2599997036159 1199
16.2799997031689 1277
16.2999997027218 1345
16.3199997022748 1319
16.3399997018278 1284
16.3599997013807 1338
16.3799997009337 1262
16.3999997004867 1276
16.4199997000396 1209
16.4399996995926 1307
16.4599996991456 1338
16.4799996986985 1346
16.4999996982515 1338
16.5199996978045 1321
16.5399996973574 1225
16.5599996969104 1343
16.5799996964633 1346
16.5999996960163 1367
16.6199996955693 1336
16.6399996951222 1301
16.6599996946752 1312
16.6799996942282 1360
16.6999996937811 1382
16.7199996933341 1332
16.7399996928871 1426
16.75999969244 1352
16.779999691993 1391
16.799999691546 1384
16.8199996910989 1364
16.8399996906519 1392
16.8599996902049 1356
16.8799996897578 1386
16.8999996893108 1473
16.9199996888638 1417
16.9399996884167 1405
16.9599996879697 1392
16.9799996875226 1418
16.9999996870756 1431
17.0199996866286 1474
17.0399996861815 1499
17.0599996857345 1521
17.0799996852875 1549
17.0999996848404 1463
17.1199996843934 1547
17.1399996839464 1533
17.1599996834993 1579
17.1799996830523 1637
17.1999996826053 1627
17.2199996821582 1724
17.2399996817112 1809
17.2599996812642 1812
17.2799996808171 1689
17.2999996803701 1597
17.3199996799231 1601
17.339999679476 1564
17.359999679029 1539
17.379999678582 1478
17.3999996781349 1542
17.4199996776879 1579
17.4399996772408 1555
17.4599996767938 1565
17.4799996763468 1574
17.4999996758997 1614
17.5199996754527 1571
17.5399996750057 1576
17.5599996745586 1661
17.5799996741116 1577
17.5999996736646 1614
17.6199996732175 1499
17.6399996727705 1653
17.6599996723235 1661
17.6799996718764 1662
17.6999996714294 1643
17.7199996709824 1621
17.7399996705353 1691
17.7599996700883 1621
17.7799996696413 1591
17.7999996691942 1692
17.8199996687472 1687
17.8399996683002 1722
17.8599996678531 1674
17.8799996674061 1631
17.899999666959 1697
17.919999666512 1696
17.939999666065 1698
17.9599996656179 1680
17.9799996651709 1745
17.9999996647239 1746
18.0199996642768 1741
18.0399996638298 1779
18.0599996633828 1747
18.0799996629357 1782
18.0999996624887 1781
18.1199996620417 1744
18.1399996615946 1719
18.1599996611476 1778
18.1799996607006 1752
18.1999996602535 1703
18.2199996598065 1803
18.2399996593595 1757
18.2599996589124 1755
18.2799996584654 1761
18.2999996580184 1885
18.3199996575713 1810
18.3399996571243 1879
18.3599996566772 1851
18.3799996562302 1915
18.3999996557832 1845
18.4199996553361 1826
18.4399996548891 1894
18.4599996544421 1913
18.479999653995 1956
18.499999653548 1817
18.519999653101 1758
18.5399996526539 1883
18.5599996522069 1869
18.5799996517599 1916
18.5999996513128 1850
18.6199996508658 1912
18.6399996504188 1929
18.6599996499717 1876
18.6799996495247 1951
18.6999996490777 1867
18.7199996486306 1984
18.7399996481836 2006
18.7599996477366 2008
18.7799996472895 1920
18.7999996468425 1993
18.8199996463954 1970
18.8399996459484 1930
18.8599996455014 1976
18.8799996450543 1922
18.8999996446073 1968
18.9199996441603 1920
18.9399996437132 2018
18.9599996432662 2015
18.9799996428192 2002
18.9999996423721 2000
19.0199996419251 2071
19.0399996414781 2042
19.059999641031 2037
19.079999640584 2048
19.099999640137 2092
19.1199996396899 2009
19.1399996392429 2026
19.1599996387959 2099
19.1799996383488 2015
19.1999996379018 2139
19.2199996374547 2088
19.2399996370077 2084
19.2599996365607 2130
19.2799996361136 2104
19.2999996356666 2112
19.3199996352196 2111
19.3399996347725 2155
19.3599996343255 2055
19.3799996338785 2165
19.3999996334314 2255
19.4199996329844 2183
19.4399996325374 2268
19.4599996320903 2237
19.4799996316433 2229
19.4999996311963 2233
19.5199996307492 2255
19.5399996303022 2345
19.5599996298552 2562
19.5799996294081 2597
19.5999996289611 2805
19.6199996285141 2983
19.639999628067 2995
19.65999962762 3036
19.6799996271729 2749
19.6999996267259 2684
19.7199996262789 2580
19.7399996258318 2470
19.7599996253848 2409
19.7799996249378 2423
19.7999996244907 2508
19.8199996240437 2628
19.8399996235967 2657
19.8599996231496 2866
19.8799996227026 3137
19.8999996222556 3241
19.9199996218085 3406
19.9399996213615 3397
19.9599996209145 3160
19.9799996204674 2856
19.9999996200204 2562
20.0199996195734 2389
20.0399996191263 2278
20.0599996186793 2365
20.0799996182322 2303
20.0999996177852 2214
20.1199996173382 2293
20.1399996168911 2212
20.1599996164441 2265
20.1799996159971 2343
20.19999961555 2180
20.219999615103 2274
20.239999614656 2267
20.2599996142089 2229
20.2799996137619 2224
20.2999996133149 2187
20.3199996128678 2300
20.3399996124208 2326
20.3599996119738 2303
20.3799996115267 2321
20.3999996110797 2315
20.4199996106327 2328
20.4399996101856 2193
20.4599996097386 2280
20.4799996092916 2329
20.4999996088445 2284
20.5199996083975 2398
20.5399996079504 2236
20.5599996075034 2294
20.5799996070564 2341
20.5999996066093 2374
20.6199996061623 2305
20.6399996057153 2252
20.6599996052682 2194
20.6799996048212 2315
20.6999996043742 2242
20.7199996039271 2347
20.7399996034801 2373
20.7599996030331 2256
20.779999602586 2359
20.799999602139 2313
20.819999601692 2316
20.8399996012449 2255
20.8599996007979 2297
20.8799996003509 2345
20.8999995999038 2318
20.9199995994568 2380
20.9399995990098 2370
20.9599995985627 2294
20.9799995981157 2333
20.9999995976686 2298
21.0199995972216 2337
21.0399995967746 2243
21.0599995963275 2293
21.0799995958805 2272
21.0999995954335 2212
21.1199995949864 2285
21.1399995945394 2301
21.1599995940924 2255
21.1799995936453 2310
21.1999995931983 2302
21.2199995927513 2339
21.2399995923042 2314
21.2599995918572 2367
21.2799995914102 2372
21.2999995909631 2307
21.3199995905161 2348
21.3399995900691 2318
21.359999589622 2364
21.379999589175 2347
21.399999588728 2305
21.4199995882809 2333
21.4399995878339 2374
21.4599995873868 2264
21.4799995869398 2349
21.4999995864928 2326
21.5199995860457 2249
21.5399995855987 2309
21.5599995851517 2385
21.5799995847046 2372
21.5999995842576 2368
21.6199995838106 2394
21.6399995833635 2372
21.6599995829165 2384
21.6799995824695 2426
21.6999995820224 2489
21.7199995815754 2493
21.7399995811284 2546
21.7599995806813 2695
21.7799995802343 2721
21.7999995797873 2718
21.8199995793402 2501
21.8399995788932 2511
21.8599995784462 2477
21.8799995779991 2337
21.8999995775521 2436
21.919999577105 2326
21.939999576658 2333
21.959999576211 2322
21.9799995757639 2335
21.9999995753169 2310
22.0199995748699 2261
22.0399995744228 2223
22.0599995739758 2276
22.0799995735288 2352
22.0999995730817 2352
22.1199995726347 2354
22.1399995721877 2340
22.1599995717406 2323
22.1799995712936 2308
22.1999995708466 2260
22.2199995703995 2255
22.2399995699525 2253
22.2599995695055 2282
22.2799995690584 2278
22.2999995686114 2303
22.3199995681643 2262
22.3399995677173 2258
22.3599995672703 2295
22.3799995668232 2316
22.3999995663762 2260
22.4199995659292 2313
22.4399995654821 2252
22.4599995650351 2246
22.4799995645881 2279
22.499999564141 2231
22.519999563694 2218
22.539999563247 2250
22.5599995627999 2265
22.5799995623529 2197
22.5999995619059 2276
22.6199995614588 2239
22.6399995610118 2215
22.6599995605648 2223
22.6799995601177 2274
22.6999995596707 2223
22.7199995592237 2238
22.7399995587766 2262
22.7599995583296 2266
22.7799995578825 2168
22.7999995574355 2172
22.8199995569885 2190
22.8399995565414 2162
22.8599995560944 2200
22.8799995556474 2126
22.8999995552003 2257
22.9199995547533 2208
22.9399995543063 2323
22.9599995538592 2387
22.9799995534122 2402
22.9999995529652 2349
23.0199995525181 2387
23.0399995520711 2401
23.0599995516241 2367
23.079999551177 2337
23.09999955073 2234
23.119999550283 2257
23.1399995498359 2219
23.1599995493889 2163
23.1799995489418 2222
23.1999995484948 2205
23.2199995480478 2148
23.2399995476007 2157
23.2599995471537 2165
23.2799995467067 2183
23.2999995462596 2202
23.3199995458126 2170
23.3399995453656 2130
23.3599995449185 2238
23.3799995444715 2138
23.3999995440245 2179
23.4199995435774 2193
23.4399995431304 2141
23.4599995426834 2152
23.4799995422363 2217
23.4999995417893 2214
23.5199995413423 2199
23.5399995408952 2155
23.5599995404482 2283
23.5799995400012 2280
23.5999995395541 2275
23.6199995391071 2381
23.63999953866 2362
23.659999538213 2492
23.679999537766 2639
23.6999995373189 2815
23.7199995368719 3034
23.7399995364249 3148
23.7599995359778 3195
23.7799995355308 2949
23.7999995350838 2694
23.8199995346367 2545
23.8399995341897 2426
23.8599995337427 2253
23.8799995332956 2172
23.8999995328486 2246
23.9199995324016 2261
23.9399995319545 2258
23.9599995315075 2324
23.9799995310605 2377
23.9999995306134 2328
24.0199995301664 2291
24.0399995297194 2195
24.0599995292723 2152
24.0799995288253 2158
24.0999995283782 1971
24.1199995279312 2009
24.1399995274842 2067
24.1599995270371 2020
24.1799995265901 2026
24.1999995261431 2035
24.219999525696 2065
24.239999525249 2014
24.259999524802 2049
24.2799995243549 1985
24.2999995239079 2016
24.3199995234609 1997
24.3399995230138 2039
24.3599995225668 2050
24.3799995221198 2036
24.3999995216727 2067
24.4199995212257 2055
24.4399995207787 2047
24.4599995203316 1996
24.4799995198846 2072
24.4999995194376 2021
24.5199995189905 2044
24.5399995185435 2049
24.5599995180964 1969
24.5799995176494 2019
24.5999995172024 1968
24.6199995167553 2055
24.6399995163083 2088
24.6599995158613 2004
24.6799995154142 2121
24.6999995149672 1995
24.7199995145202 2040
24.7399995140731 2103
24.7599995136261 2117
24.7799995131791 2193
24.799999512732 2284
24.819999512285 2254
24.839999511838 2379
24.8599995113909 2621
24.8799995109439 2740
24.8999995104969 2689
24.9199995100498 2689
24.9399995096028 2519
24.9599995091558 2421
24.9799995087087 2207
24.9999995082617 2088
25.0199995078146 2053
25.0399995073676 1978
25.0599995069206 1999
25.0799995064735 1973
25.0999995060265 2010
25.1199995055795 1911
25.1399995051324 1991
25.1599995046854 1985
25.1799995042384 2039
25.1999995037913 2094
25.2199995033443 2024
25.2399995028973 2010
25.2599995024502 2018
25.2799995020032 2041
25.2999995015562 1998
25.3199995011091 2008
25.3399995006621 1979
25.3599995002151 2108
25.379999499768 2008
25.399999499321 2009
25.4199994988739 2147
25.4399994984269 2139
25.4599994979799 2332
25.4799994975328 2429
25.4999994970858 2605
25.5199994966388 2772
25.5399994961917 3027
25.5599994957447 3054
25.5799994952977 2929
25.5999994948506 2650
25.6199994944036 2491
25.6399994939566 2341
25.6599994935095 2164
25.6799994930625 1997
25.6999994926155 1963
25.7199994921684 1961
25.7399994917214 1876
25.7599994912744 1828
25.7799994908273 1894
25.7999994903803 1848
25.8199994899333 1801
25.8399994894862 1843
25.8599994890392 1854
25.8799994885921 1883
25.8999994881451 1875
25.9199994876981 1876
25.939999487251 1941
25.959999486804 1878
25.979999486357 1855
25.9999994859099 1891
26.0199994854629 1862
26.0399994850159 1888
26.0599994845688 1790
26.0799994841218 1772
26.0999994836748 1813
26.1199994832277 1855
26.1399994827807 1817
26.1599994823337 1867
26.1799994818866 1867
26.1999994814396 1842
26.2199994809926 1792
26.2399994805455 1770
26.2599994800985 1848
26.2799994796514 1827
26.2999994792044 1820
26.3199994787574 1772
26.3399994783103 1842
26.3599994778633 1817
26.3799994774163 1799
26.3999994769692 1807
26.4199994765222 1793
26.4399994760752 1842
26.4599994756281 1837
26.4799994751811 1833
26.4999994747341 1849
26.519999474287 1952
26.53999947384 1955
26.559999473393 2056
26.5799994729459 2209
26.5999994724989 2411
26.6199994720519 2432
26.6399994716048 2541
26.6599994711578 2462
26.6799994707108 2309
26.6999994702637 2135
26.7199994698167 2034
26.7399994693697 1903
26.7599994689226 1813
26.7799994684756 1742
26.7999994680285 1840
26.8199994675815 1826
26.8399994671345 1819
26.8599994666874 1818
26.8799994662404 1866
26.8999994657934 1809
26.9199994653463 1803
26.9399994648993 1769
26.9599994644523 1790
26.9799994640052 1808
26.9999994635582 1739
27.0199994631112 1738
27.0399994626641 1765
27.0599994622171 1682
27.0799994617701 1777
27.099999461323 1752
27.119999460876 1776
27.139999460429 1737
27.1599994599819 1800
27.1799994595349 1794
27.1999994590878 1839
27.2199994586408 1770
27.2399994581938 1826
27.2599994577467 1801
27.2799994572997 1788
27.2999994568527 1846
27.3199994564056 1906
27.3399994559586 1949
27.3599994555116 1925
27.3799994550645 2026
27.3999994546175 2146
27.4199994541705 2271
27.4399994537234 2393
27.4599994532764 2508
27.4799994528294 2485
27.4999994523823 2334
27.5199994519353 2124
27.5399994514883 2153
27.5599994510412 1956
27.5799994505942 1813
27.5999994501472 1653
27.6199994497001 1628
27.6399994492531 1721
27.659999448806 1671
27.679999448359 1698
27.699999447912 1628
27.7199994474649 1706
27.7399994470179 1706
27.7599994465709 1675
27.7799994461238 1739
27.7999994456768 1620
27.8199994452298 1663
27.8399994447827 1647
27.8599994443357 1641
27.8799994438887 1589
27.8999994434416 1677
27.9199994429946 1679
27.9399994425476 1688
27.9599994421005 1641
27.9799994416535 1679
27.9999994412065 1682
28.0199994407594 1716
28.0399994403124 1610
28.0599994398654 1640
28.0799994394183 1593
28.0999994389713 1681
28.1199994385242 1718
28.1399994380772 1660
28.1599994376302 1642
28.1799994371831 1722
28.1999994367361 1756
28.2199994362891 1759
28.239999435842 1903
28.259999435395 1868
28.279999434948 1864
28.2999994345009 1914
28.3199994340539 1790
28.3399994336069 1783
28.3599994331598 1756
28.3799994327128 1776
28.3999994322658 1655
28.4199994318187 1650
28.4399994313717 1634
28.4599994309247 1635
28.4799994304776 1621
28.4999994300306 1670
28.5199994295835 1640
28.5399994291365 1638
28.5599994286895 1600
28.5799994282424 1604
28.5999994277954 1587
28.6199994273484 1651
28.6399994269013 1679
28.6599994264543 1613
28.6799994260073 1723
28.6999994255602 1693
28.7199994251132 1635
28.7399994246662 1747
28.7599994242191 1798
28.7799994237721 1898
28.7999994233251 1894
28.819999422878 1983
28.839999422431 2252
28.859999421984 2328
28.8799994215369 2302
28.8999994210899 2147
28.9199994206429 2067
28.9399994201958 2003
28.9599994197488 2113
28.9799994193017 1977
28.9999994188547 1960
29.0199994184077 2061
29.0399994179606 2173
29.0599994175136 2222
29.0799994170666 2207
29.0999994166195 2018
29.1199994161725 1842
29.1399994157255 1828
29.1599994152784 1754
29.1799994148314 1671
29.1999994143844 1582
29.2199994139373 1506
29.2399994134903 1557
29.2599994130433 1537
29.2799994125962 1632
29.2999994121492 1557
29.3199994117022 1562
29.3399994112551 1517
29.3599994108081 1441
29.379999410361 1523
29.399999409914 1501
29.419999409467 1589
29.4399994090199 1504
29.4599994085729 1555
29.4799994081259 1571
29.4999994076788 1554
29.5199994072318 1576
29.5399994067848 1540
29.5599994063377 1501
29.5799994058907 1517
29.5999994054437 1507
29.6199994049966 1475
29.6399994045496 1496
29.6599994041026 1550
29.6799994036555 1432
29.6999994032085 1434
29.7199994027615 1496
29.7399994023144 1509
29.7599994018674 1513
29.7799994014204 1545
29.7999994009733 1494
29.8199994005263 1543
29.8399994000793 1521
29.8599993996322 1519
29.8799993991852 1515
29.8999993987381 1498
29.9199993982911 1474
29.9399993978441 1517
29.959999397397 1493
29.97999939695 1483
29.999999396503 1456
