3 2457
3.01999999955297 2314
3.03999999910593 2138
3.0599999986589 1969
3.07999999821186 1840
3.09999999776483 1790
3.11999999731779 1742
3.13999999687076 1742
3.15999999642372 1679
3.17999999597669 1615
3.19999999552965 1644
3.21999999508262 1628
3.23999999463558 1574
3.25999999418855 1589
3.27999999374151 1552
3.29999999329448 1595
3.31999999284744 1534
3.33999999240041 1446
3.35999999195337 1526
3.37999999150634 1435
3.3999999910593 1439
3.41999999061227 1327
3.43999999016523 1361
3.4599999897182 1355
3.47999998927116 1347
3.49999998882413 1263
3.51999998837709 1289
3.53999998793006 1306
3.55999998748302 1308
3.57999998703599 1262
3.59999998658895 1239
3.61999998614192 1163
3.63999998569489 1198
3.65999998524785 1204
3.67999998480082 1228
3.69999998435378 1200
3.71999998390675 1192
3.73999998345971 1177
3.75999998301268 1177
3.77999998256564 1207
3.79999998211861 1095
3.81999998167157 1151
3.83999998122454 1053
3.8599999807775 1070
3.87999998033047 1122
3.89999997988343 1046
3.9199999794364 1055
3.93999997898936 1041
3.95999997854233 1042
3.97999997809529 996
3.99999997764826 1032
4.01999997720122 1077
4.03999997675419 981
4.05999997630715 1023
4.07999997586012 997
4.09999997541308 966
4.11999997496605 949
4.13999997451901 923
4.15999997407198 973
4.17999997362494 947
4.19999997317791 908
4.21999997273087 937
4.23999997228384 875
4.25999997183681 927
4.27999997138977 912
4.29999997094274 900
4.3199999704957 922
4.33999997004867 891
4.35999996960163 919
4.3799999691546 902
4.39999996870756 896
4.41999996826053 852
4.43999996781349 874
4.45999996736646 889
4.47999996691942 868
4.49999996647239 832
4.51999996602535 850
4.53999996557832 897
4.55999996513128 889
4.57999996468425 840
4.59999996423721 846
4.61999996379018 818
4.63999996334314 861
4.65999996289611 843
4.67999996244907 853
4.69999996200204 847
4.719999961555 844
4.73999996110797 880
4.75999996066093 823
4.7799999602139 800
4.79999995976686 805
4.81999995931983 810
4.83999995887279 835
4.85999995842576 843
4.87999995797873 817
4.89999995753169 826
4.91999995708466 789
4.93999995663762 822
4.95999995619059 833
4.97999995574355 786
4.99999995529652 804
5.01999995484948 822
5.03999995440245 857
5.05999995395541 783
5.07999995350838 870
5.09999995306134 861
5.11999995261431 850
5.13999995216727 794
5.15999995172024 835
5.1799999512732 872
5.19999995082617 891
5.21999995037913 893
5.2399999499321 858
5.25999994948506 890
5.27999994903803 811
5.29999994859099 879
5.31999994814396 877
5.33999994769692 934
5.35999994724989 943
5.37999994680285 940
5.39999994635582 961
5.41999994590878 1007
5.43999994546175 1050
5.45999994501471 1092
5.47999994456768 1030
5.49999994412065 1103
5.51999994367361 1156
5.53999994322658 1225
5.55999994277954 1262
5.57999994233251 1278
5.59999994188547 1283
5.61999994143844 1385
5.6399999409914 1496
5.65999994054437 1593
5.67999994009733 1733
5.6999999396503 1966
5.71999993920326 2264
5.73999993875623 2533
5.75999993830919 2852
5.77999993786216 3333
5.79999993741512 3277
5.81999993696809 2335
5.83999993652105 1193
5.85999993607402 938
5.87999993562698 793
5.89999993517995 811
5.91999993473291 810
5.93999993428588 782
5.95999993383884 779
5.97999993339181 730
5.99999993294477 740
6.01999993249774 750
6.0399999320507 762
6.05999993160367 769
6.07999993115663 759
6.0999999307096 716
6.11999993026257 808
6.13999992981553 755
6.1599999293685 735
6.17999992892146 694
6.19999992847443 727
6.21999992802739 794
6.23999992758036 756
6.25999992713332 766
6.27999992668629 856
6.29999992623925 742
6.31999992579222 779
6.33999992534518 796
6.35999992489815 820
6.37999992445111 875
6.39999992400408 831
6.41999992355704 926
6.43999992311001 935
6.45999992266297 940
6.47999992221594 977
6.4999999217689 1056
6.51999992132187 1050
6.53999992087483 1144
6.5599999204278 1279
6.57999991998076 1315
6.59999991953373 1538
6.61999991908669 1662
6.63999991863966 1796
6.65999991819262 2052
6.67999991774559 2105
6.69999991729855 1554
6.71999991685152 970
6.73999991640449 751
6.75999991595745 678
6.77999991551042 679
6.79999991506338 704
6.81999991461635 668
6.83999991416931 628
6.85999991372228 665
6.87999991327524 668
6.89999991282821 684
6.91999991238117 652
6.93999991193414 644
6.9599999114871 681
6.97999991104007 642
6.99999991059303 604
7.019999910146 649
7.03999990969896 635
7.05999990925193 643
7.07999990880489 638
7.09999990835786 658
7.11999990791082 662
7.13999990746379 608
7.15999990701675 638
7.17999990656972 643
7.19999990612268 618
7.21999990567565 570
7.23999990522861 605
7.25999990478158 642
7.27999990433454 608
7.29999990388751 618
7.31999990344047 657
7.33999990299344 614
7.35999990254641 631
7.37999990209937 629
7.39999990165234 653
7.4199999012053 631
7.43999990075827 598
7.45999990031123 597
7.4799998998642 582
7.49999989941716 642
7.51999989897013 594
7.53999989852309 651
7.55999989807606 638
7.57999989762902 644
7.59999989718199 638
7.61999989673495 611
7.63999989628792 595
7.65999989584088 601
7.67999989539385 614
7.69999989494681 597
7.71999989449978 589
7.73999989405274 585
7.75999989360571 652
7.77999989315867 636
7.79999989271164 576
7.8199998922646 620
7.83999989181757 600
7.85999989137053 629
7.8799998909235 610
7.89999989047646 616
7.91999989002943 601
7.9399998895824 637
7.95999988913536 589
7.97999988868833 600
7.99999988824129 626
8.01999988779426 591
8.03999988734722 624
8.05999988690019 594
8.07999988645315 595
8.09999988600612 603
8.11999988555908 624
8.13999988511205 617
8.15999988466501 629
8.17999988421798 590
8.19999988377094 580
8.21999988332391 608
8.23999988287687 596
8.25999988242984 580
8.2799998819828 572
8.29999988153577 586
8.31999988108873 580
8.3399998806417 571
8.35999988019466 608
8.37999987974763 626
8.39999987930059 614
8.41999987885356 613
8.43999987840652 614
8.45999987795949 584
8.47999987751245 603
8.49999987706542 639
8.51999987661839 615
8.53999987617135 630
8.55999987572432 581
8.57999987527728 608
8.59999987483025 610
8.61999987438321 588
8.63999987393618 623
8.65999987348914 581
8.67999987304211 625
8.69999987259507 601
8.71999987214804 600
8.739999871701 605
8.75999987125397 606
8.77999987080693 583
8.7999998703599 574
8.81999986991286 589
8.83999986946583 630
8.85999986901879 652
8.87999986857176 595
8.89999986812472 614
8.91999986767769 628
8.93999986723065 626
8.95999986678362 605
8.97999986633658 644
8.99999986588955 638
9.01999986544251 662
9.03999986499548 661
9.05999986454844 640
9.07999986410141 652
9.09999986365438 664
9.11999986320734 670
9.13999986276031 703
9.15999986231327 729
9.17999986186624 736
9.1999998614192 768
9.21999986097217 766
9.23999986052513 779
9.2599998600781 854
9.27999985963106 927
9.29999985918403 1002
9.31999985873699 1131
9.33999985828996 1256
9.35999985784292 1411
9.37999985739589 1516
9.39999985694885 1563
9.41999985650182 1350
9.43999985605478 1019
9.45999985560775 729
9.47999985516071 669
9.49999985471368 621
9.51999985426664 661
9.53999985381961 632
9.55999985337257 591
9.57999985292554 581
9.5999998524785 589
9.61999985203147 603
9.63999985158443 597
9.6599998511374 591
9.67999985069037 578
9.69999985024333 636
9.7199998497963 593
9.73999984934926 619
9.75999984890223 595
9.77999984845519 633
9.79999984800816 605
9.81999984756112 585
9.83999984711409 599
9.85999984666705 593
9.87999984622002 604
9.89999984577298 596
9.91999984532595 617
9.93999984487891 621
9.95999984443188 571
9.97999984398484 592
9.99999984353781 558
10.0199998430908 597
10.0399998426437 589
10.0599998421967 589
10.0799998417497 554
10.0999998413026 597
10.1199998408556 592
10.1399998404086 615
10.1599998399615 620
10.1799998395145 610
10.1999998390675 535
10.2199998386204 606
10.2399998381734 610
10.2599998377264 596
10.2799998372793 586
10.2999998368323 580
10.3199998363853 586
10.3399998359382 586
10.3599998354912 591
10.3799998350441 600
10.3999998345971 600
10.4199998341501 564
10.439999833703 555
10.459999833256 591
10.479999832809 623
10.4999998323619 617
10.5199998319149 555
10.5399998314679 537
10.5599998310208 602
10.5799998305738 577
10.5999998301268 606
10.6199998296797 628
10.6399998292327 609
10.6599998287857 663
10.6799998283386 685
10.6999998278916 690
10.7199998274446 702
10.7399998269975 670
10.7599998265505 690
10.7799998261034 693
10.7999998256564 781
10.8199998252094 793
10.8399998247623 797
10.8599998243153 854
10.8799998238683 894
10.8999998234212 947
10.9199998229742 1071
10.9399998225272 1190
10.9599998220801 1352
10.9799998216331 1409
10.9999998211861 1550
11.019999820739 1540
11.039999820292 1181
11.059999819845 865
11.0799998193979 702
11.0999998189509 674
11.1199998185039 634
11.1399998180568 619
11.1599998176098 651
11.1799998171628 667
11.1999998167157 638
11.2199998162687 608
11.2399998158216 645
11.2599998153746 674
11.2799998149276 704
11.2999998144805 704
11.3199998140335 739
11.3399998135865 723
11.3599998131394 743
11.3799998126924 781
11.3999998122454 850
11.4199998117983 893
11.4399998113513 985
11.4599998109043 1037
11.4799998104572 1151
11.4999998100102 1159
11.5199998095632 925
11.5399998091161 792
11.5599998086691 664
11.5799998082221 640
11.599999807775 672
11.619999807328 658
11.639999806881 608
11.6599998064339 645
11.6799998059869 638
11.6999998055398 663
11.7199998050928 611
11.7399998046458 590
11.7599998041987 605
11.7799998037517 611
11.7999998033047 613
11.8199998028576 620
11.8399998024106 618
11.8599998019636 637
11.8799998015165 633
11.8999998010695 563
11.9199998006225 594
11.9399998001754 649
11.9599997997284 630
11.9799997992814 620
11.9999997988343 592
12.0199997983873 607
12.0399997979403 574
12.0599997974932 597
12.0799997970462 590
12.0999997965992 609
12.1199997961521 636
12.1399997957051 593
12.159999795258 636
12.179999794811 581
12.199999794364 658
12.2199997939169 633
12.2399997934699 613
12.2599997930229 625
12.2799997925758 615
12.2999997921288 668
12.3199997916818 637
12.3399997912347 640
12.3599997907877 663
12.3799997903407 608
12.3999997898936 616
12.4199997894466 698
12.4399997889996 633
12.4599997885525 628
12.4799997881055 630
12.4999997876585 588
12.5199997872114 656
12.5399997867644 641
12.5599997863173 617
12.5799997858703 629
12.5999997854233 674
12.6199997849762 616
12.6399997845292 615
12.6599997840822 657
12.6799997836351 648
12.6999997831881 592
12.7199997827411 642
12.739999782294 630
12.759999781847 619
12.7799997814 635
12.7999997809529 640
12.8199997805059 660
12.8399997800589 633
12.8599997796118 634
12.8799997791648 703
12.8999997787178 654
12.9199997782707 646
12.9399997778237 642
12.9599997773767 644
12.9799997769296 638
12.9999997764826 632
13.0199997760355 657
13.0399997755885 648
13.0599997751415 651
13.0799997746944 688
13.0999997742474 700
13.1199997738004 709
13.1399997733533 739
13.1599997729063 711
13.1799997724593 693
13.1999997720122 719
13.2199997715652 791
13.2399997711182 814
13.2599997706711 837
13.2799997702241 757
13.2999997697771 760
13.31999976933 711
13.339999768883 715
13.359999768436 680
13.3799997679889 691
13.3999997675419 651
13.4199997670949 696
13.4399997666478 679
13.4599997662008 678
13.4799997657537 689
13.4999997653067 670
13.5199997648597 685
13.5399997644126 684
13.5599997639656 730
13.5799997635186 682
13.5999997630715 704
13.6199997626245 697
13.6399997621775 719
13.6599997617304 736
13.6799997612834 666
13.6999997608364 715
13.7199997603893 704
13.7399997599423 641
13.7599997594953 694
13.7799997590482 656
13.7999997586012 667
13.8199997581542 672
13.8399997577071 736
13.8599997572601 687
13.879999756813 701
13.899999756366 708
13.919999755919 749
13.9399997554719 699
13.9599997550249 700
13.9799997545779 749
13.9999997541308 696
14.0199997536838 715
14.0399997532368 721
14.0599997527897 666
14.0799997523427 719
14.0999997518957 728
14.1199997514486 723
14.1399997510016 710
14.1599997505546 693
14.1799997501075 698
14.1999997496605 721
14.2199997492135 718
14.2399997487664 733
14.2599997483194 744
14.2799997478724 782
14.2999997474253 758
14.3199997469783 728
14.3399997465312 714
14.3599997460842 803
14.3799997456372 776
14.3999997451901 852
14.4199997447431 908
14.4399997442961 916
14.459999743849 891
14.479999743402 859
14.499999742955 833
14.5199997425079 815
14.5399997420609 775
14.5599997416139 737
14.5799997411668 803
14.5999997407198 809
14.6199997402728 733
14.6399997398257 729
14.6599997393787 749
14.6799997389317 797
14.6999997384846 781
14.7199997380376 733
14.7399997375906 797
14.7599997371435 746
14.7799997366965 835
14.7999997362494 798
14.8199997358024 758
14.8399997353554 752
14.8599997349083 766
14.8799997344613 800
14.8999997340143 770
14.9199997335672 808
14.9399997331202 752
14.9599997326732 771
14.9799997322261 806
14.9999997317791 771
15.0199997313321 758
15.039999730885 762
15.059999730438 769
15.079999729991 734
15.0999997295439 818
15.1199997290969 764
15.1399997286499 766
15.1599997282028 762
15.1799997277558 823
15.1999997273088 787
15.2199997268617 818
15.2399997264147 802
15.2599997259676 828
15.2799997255206 813
15.2999997250736 798
15.3199997246265 759
15.3399997241795 834
15.3599997237325 859
15.3799997232854 850
15.3999997228384 820
15.4199997223914 818
15.4399997219443 879
15.4599997214973 861
15.4799997210503 852
15.4999997206032 855
15.5199997201562 839
15.5399997197092 824
15.5599997192621 884
15.5799997188151 890
15.5999997183681 900
15.619999717921 905
15.639999717474 796
15.659999717027 855
15.6799997165799 869
15.6999997161329 868
15.7199997156858 884
15.7399997152388 915
15.7599997147918 842
15.7799997143447 885
15.7999997138977 874
15.8199997134507 865
15.8399997130036 890
15.8599997125566 847
15.8799997121096 911
15.8999997116625 898
15.9199997112155 916
15.9399997107685 952
15.9599997103214 920
15.9799997098744 913
15.9999997094274 920
16.0199997089803 903
16.0399997085333 882
16.0599997080863 922
16.0799997076392 903
16.0999997071922 939
16.1199997067451 1002
16.1399997062981 955
16.1599997058511 934
16.179999705404 952
16.199999704957 949
16.21999970451 952
16.2399997040629 954
16.2599997036159 970
16.2799997031689 921
16.2999997027218 970
16.3199997022748 947
16.3399997018278 975
16.3599997013807 967
16.3799997009337 947
16.3999997004867 971
16.4199997000396 939
16.4399996995926 993
16.4599996991456 953
16.4799996986985 995
16.4999996982515 1006
16.5199996978045 969
16.5399996973574 977
16.5599996969104 1002
16.5799996964633 964
16.5999996960163 973
16.6199996955693 996
16.6399996951222 1032
16.6599996946752 1056
16.6799996942282 1022
16.6999996937811 1064
16.7199996933341 1041
16.7399996928871 1023
16.75999969244 1050
16.779999691993 1022
16.799999691546 1007
16.8199996910989 1078
16.8399996906519 1033
16.8599996902049 1053
16.8799996897578 1071
16.8999996893108 1055
16.9199996888638 1041
16.9399996884167 1080
16.9599996879697 1151
16.9799996875226 1127
16.9999996870756 1122
17.0199996866286 1049
17.0399996861815 1128
17.0599996857345 1175
17.0799996852875 1087
17.0999996848404 1124
17.1199996843934 1196
17.1399996839464 1188
17.1599996834993 1225
17.1799996830523 1282
17.1999996826053 1234
17.2199996821582 1299
17.2399996817112 1249
17.2599996812642 1269
17.2799996808171 1195
17.2999996803701 1163
17.3199996799231 1142
17.339999679476 1135
17.359999679029 1111
17.379999678582 1077
17.3999996781349 1198
17.4199996776879 1155
17.4399996772408 1118
17.4599996767938 1070
17.4799996763468 1145
17.4999996758997 1188
17.5199996754527 1127
17.5399996750057 1169
17.5599996745586 1190
17.5799996741116 1176
17.5999996736646 1175
17.6199996732175 1135
17.6399996727705 1171
17.6599996723235 1200
17.6799996718764 1184
17.6999996714294 1200
17.7199996709824 1178
17.7399996705353 1162
17.7599996700883 1219
17.7799996696413 1239
17.7999996691942 1225
17.8199996687472 1181
17.8399996683002 1166
17.8599996678531 1227
17.8799996674061 1198
17.899999666959 1164
17.919999666512 1237
17.939999666065 1268
17.9599996656179 1215
17.9799996651709 1238
17.9999996647239 1247
18.0199996642768 1237
18.0399996638298 1199
18.0599996633828 1202
18.0799996629357 1227
18.0999996624887 1214
18.1199996620417 1223
18.1399996615946 1274
18.1599996611476 1216
18.1799996607006 1275
18.1999996602535 1266
18.2199996598065 1288
18.2399996593595 1319
18.2599996589124 1288
18.2799996584654 1279
18.2999996580184 1319
18.3199996575713 1296
18.3399996571243 1296
18.3599996566772 1355
18.3799996562302 1309
18.3999996557832 1327
18.4199996553361 1330
18.4399996548891 1291
18.4599996544421 1324
18.479999653995 1329
18.499999653548 1370
18.519999653101 1323
18.5399996526539 1379
18.5599996522069 1353
18.5799996517599 1397
18.5999996513128 1335
18.6199996508658 1387
18.6399996504188 1414
18.6599996499717 1351
18.6799996495247 1333
18.6999996490777 1352
18.7199996486306 1429
18.7399996481836 1415
18.7599996477366 1445
18.7799996472895 1313
18.7999996468425 1413
18.8199996463954 1398
18.8399996459484 1388
18.8599996455014 1394
18.8799996450543 1477
18.8999996446073 1402
18.9199996441603 1342
18.9399996437132 1388
18.9599996432662 1374
18.9799996428192 1433
18.9999996423721 1405
19.0199996419251 1388
19.0399996414781 1419
19.059999641031 1399
19.079999640584 1460
19.099999640137 1407
19.1199996396899 1405
19.1399996392429 1424
19.1599996387959 1397
19.1799996383488 1435
19.1999996379018 1499
19.2199996374547 1501
19.2399996370077 1450
19.2599996365607 1464
19.2799996361136 1413
19.2999996356666 1485
19.3199996352196 1423
19.3399996347725 1529
19.3599996343255 1464
19.3799996338785 1481
19.3999996334314 1558
19.4199996329844 1522
19.4399996325374 1614
19.4599996320903 1534
19.4799996316433 1626
19.4999996311963 1671
19.5199996307492 1716
19.5399996303022 1786
19.5599996298552 1972
19.5799996294081 2006
19.5999996289611 2098
19.6199996285141 2144
19.639999628067 2023
19.65999962762 1811
19.6799996271729 1801
19.6999996267259 1679
19.7199996262789 1611
19.7399996258318 1609
19.7599996253848 1593
19.7799996249378 1644
19.7999996244907 1832
19.8199996240437 1974
19.8399996235967 2070
19.8599996231496 2094
19.8799996227026 2224
19.8999996222556 2243
19.9199996218085 2118
19.9399996213615 1958
19.9599996209145 1806
19.9799996204674 1638
19.9999996200204 1505
20.0199996195734 1508
20.0399996191263 1575
20.0599996186793 1551
20.0799996182322 1454
20.0999996177852 1591
20.1199996173382 1499
20.1399996168911 1522
20.1599996164441 1577
20.1799996159971 1470
20.19999961555 1546
20.219999615103 1501
20.239999614656 1516
20.2599996142089 1541
20.2799996137619 1447
20.2999996133149 1510
20.3199996128678 1541
20.3399996124208 1506
20.3599996119738 1505
20.3799996115267 1578
20.3999996110797 1524
20.4199996106327 1585
20.4399996101856 1626
20.4599996097386 1559
20.4799996092916 1566
20.4999996088445 1611
20.5199996083975 1520
20.5399996079504 1591
20.5599996075034 1524
20.5799996070564 1507
20.5999996066093 1593
20.6199996061623 1582
20.6399996057153 1541
20.6599996052682 1618
20.6799996048212 1575
20.6999996043742 1482
20.7199996039271 1568
20.7399996034801 1580
20.7599996030331 1540
20.779999602586 1575
20.799999602139 1581
20.819999601692 1602
20.8399996012449 1571
20.8599996007979 1632
20.8799996003509 1502
20.8999995999038 1546
20.9199995994568 1587
20.9399995990098 1602
20.9599995985627 1579
20.9799995981157 1559
20.9999995976686 1601
21.0199995972216 1592
21.0399995967746 1614
21.0599995963275 1545
21.0799995958805 1627
21.0999995954335 1586
21.1199995949864 1557
21.1399995945394 1614
21.1599995940924 1618
21.1799995936453 1547
21.1999995931983 1612
21.2199995927513 1571
21.2399995923042 1622
21.2599995918572 1560
21.2799995914102 1564
21.2999995909631 1565
21.3199995905161 1654
21.3399995900691 1613
21.359999589622 1544
21.379999589175 1540
21.399999588728 1542
21.4199995882809 1583
21.4399995878339 1579
21.4599995873868 1563
21.4799995869398 1574
21.4999995864928 1480
21.5199995860457 1620
21.5399995855987 1607
21.5599995851517 1529
21.5799995847046 1591
21.5999995842576 1708
21.6199995838106 1617
21.6399995833635 1602
21.6599995829165 1666
21.6799995824695 1748
21.6999995820224 1698
21.7199995815754 1744
21.7399995811284 1784
21.7599995806813 1745
21.7799995802343 1763
21.7999995797873 1604
21.8199995793402 1605
21.8399995788932 1669
21.8599995784462 1616
21.8799995779991 1567
21.8999995775521 1552
21.919999577105 1569
21.939999576658 1532
21.959999576211 1542
21.9799995757639 1617
21.9999995753169 1584
22.0199995748699 1592
22.0399995744228 1599
22.0599995739758 1621
22.0799995735288 1552
22.0999995730817 1579
22.1199995726347 1595
22.1399995721877 1528
22.1599995717406 1546
22.1799995712936 1596
22.1999995708466 1546
22.2199995703995 1627
22.2399995699525 1615
22.2599995695055 1505
22.2799995690584 1600
22.2999995686114 1553
22.3199995681643 1613
22.3399995677173 1582
22.3599995672703 1560
22.3799995668232 1560
22.3999995663762 1491
22.4199995659292 1573
22.4399995654821 1574
22.4599995650351 1574
22.4799995645881 1529
22.499999564141 1561
22.519999563694 1520
22.539999563247 1508
22.5599995627999 1532
22.5799995623529 1576
22.5999995619059 1541
22.6199995614588 1550
22.6399995610118 1546
22.6599995605648 1525
22.6799995601177 1515
22.6999995596707 1560
22.7199995592237 1509
22.7399995587766 1592
22.7599995583296 1578
22.7799995578825 1554
22.7999995574355 1507
22.8199995569885 1534
22.8399995565414 1530
22.8599995560944 1589
22.8799995556474 1536
22.8999995552003 1540
22.9199995547533 1554
22.9399995543063 1629
22.9599995538592 1651
22.9799995534122 1667
22.9999995529652 1651
23.0199995525181 1620
23.0399995520711 1692
23.0599995516241 1595
23.079999551177 1578
23.09999955073 1589
23.119999550283 1503
23.1399995498359 1523
23.1599995493889 1517
23.1799995489418 1590
23.1999995484948 1540
23.2199995480478 1507
23.2399995476007 1580
23.2599995471537 1483
23.2799995467067 1531
23.2999995462596 1533
23.3199995458126 1569
23.3399995453656 1489
23.3599995449185 1553
23.3799995444715 1505
23.3999995440245 1491
23.4199995435774 1463
23.4399995431304 1516
23.4599995426834 1576
23.4799995422363 1554
23.4999995417893 1615
23.5199995413423 1551
23.5399995408952 1554
23.5599995404482 1628
23.5799995400012 1605
23.5999995395541 1699
23.6199995391071 1711
23.63999953866 1886
23.659999538213 2048
23.679999537766 2016
23.6999995373189 2054
23.7199995368719 2212
23.7399995364249 1989
23.7599995359778 1868
23.7799995355308 1729
23.7999995350838 1710
23.8199995346367 1542
23.8399995341897 1530
23.8599995337427 1517
23.8799995332956 1544
23.8999995328486 1517
23.9199995324016 1597
23.9399995319545 1589
23.9599995315075 1581
23.9799995310605 1520
23.9999995306134 1460
24.0199995301664 1602
24.0399995297194 1553
24.0599995292723 1539
24.0799995288253 1522
24.0999995283782 1439
24.1199995279312 1430
24.1399995274842 1462
24.1599995270371 1493
24.1799995265901 1487
24.1999995261431 1432
24.219999525696 1462
24.239999525249 1479
24.259999524802 1462
24.2799995243549 1501
24.2999995239079 1463
24.3199995234609 1402
24.3399995230138 1491
24.3599995225668 1462
24.3799995221198 1452
24.3999995216727 1505
24.4199995212257 1423
24.4399995207787 1503
24.4599995203316 1480
24.4799995198846 1480
24.4999995194376 1438
24.5199995189905 1492
24.5399995185435 1485
24.5599995180964 1453
24.5799995176494 1417
24.5999995172024 1458
24.6199995167553 1563
24.6399995163083 1436
24.6599995158613 1411
24.6799995154142 1457
24.6999995149672 1522
24.7199995145202 1520
24.7399995140731 1497
24.7599995136261 1645
24.7799995131791 1707
24.799999512732 1795
24.819999512285 1798
24.839999511838 1788
24.8599995113909 1853
24.8799995109439 1805
24.8999995104969 1691
24.9199995100498 1697
24.9399995096028 1576
24.9599995091558 1561
24.9799995087087 1518
24.9999995082617 1425
25.0199995078146 1412
25.0399995073676 1363
25.0599995069206 1507
25.0799995064735 1458
25.0999995060265 1420
25.1199995055795 1415
25.1399995051324 1394
25.1599995046854 1380
25.1799995042384 1441
25.1999995037913 1456
25.2199995033443 1418
25.2399995028973 1450
25.2599995024502 1458
25.2799995020032 1443
25.2999995015562 1509
25.3199995011091 1469
25.3399995006621 1446
25.3599995002151 1524
25.379999499768 1514
25.399999499321 1553
25.4199994988739 1584
25.4399994984269 1730
25.4599994979799 1855
25.4799994975328 1936
25.4999994970858 2020
25.5199994966388 2116
25.5399994961917 2121
25.5599994957447 1942
25.5799994952977 1810
25.5999994948506 1611
25.6199994944036 1598
25.6399994939566 1437
25.6599994935095 1486
25.6799994930625 1437
25.6999994926155 1495
25.7199994921684 1345
25.7399994917214 1367
25.7599994912744 1394
25.7799994908273 1360
25.7999994903803 1312
25.8199994899333 1379
25.8399994894862 1287
25.8599994890392 1386
25.8799994885921 1339
25.8999994881451 1397
25.9199994876981 1450
25.939999487251 1337
25.959999486804 1379
25.979999486357 1347
25.9999994859099 1406
26.0199994854629 1383
26.0399994850159 1386
26.0599994845688 1373
26.0799994841218 1372
26.0999994836748 1366
26.1199994832277 1373
26.1399994827807 1400
26.1599994823337 1350
26.1799994818866 1349
26.1999994814396 1379
26.2199994809926 1386
26.2399994805455 1330
26.2599994800985 1373
26.2799994796514 1306
26.2999994792044 1385
26.3199994787574 1329
26.3399994783103 1303
26.3599994778633 1370
26.3799994774163 1388
26.3999994769692 1342
26.4199994765222 1330
26.4399994760752 1409
26.4599994756281 1431
26.4799994751811 1435
26.4999994747341 1482
26.519999474287 1647
26.53999947384 1682
26.559999473393 1733
26.5799994729459 1750
26.5999994724989 1797
26.6199994720519 1748
26.6399994716048 1709
26.6599994711578 1590
26.6799994707108 1532
26.6999994702637 1415
26.7199994698167 1340
26.7399994693697 1304
26.7599994689226 1330
26.7799994684756 1388
26.7999994680285 1266
26.8199994675815 1355
26.8399994671345 1270
26.8599994666874 1274
26.8799994662404 1315
26.8999994657934 1352
26.9199994653463 1327
26.9399994648993 1311
26.9599994644523 1304
26.9799994640052 1320
26.9999994635582 1280
27.0199994631112 1302
27.0399994626641 1316
27.0599994622171 1267
27.0799994617701 1251
27.099999461323 1301
27.119999460876 1368
27.139999460429 1338
27.1599994599819 1341
27.1799994595349 1243
27.1999994590878 1364
27.2199994586408 1372
27.2399994581938 1394
27.2599994577467 1369
27.2799994572997 1415
27.2999994568527 1455
27.3199994564056 1549
27.3399994559586 1597
27.3599994555116 1613
27.3799994550645 1705
27.3999994546175 1725
27.4199994541705 1836
27.4399994537234 1738
27.4599994532764 1716
27.4799994528294 1535
27.4999994523823 1428
27.5199994519353 1539
27.5399994514883 1362
27.5599994510412 1295
27.5799994505942 1302
27.5999994501472 1303
27.6199994497001 1319
27.6399994492531 1263
27.659999448806 1332
27.679999448359 1255
27.699999447912 1222
27.7199994474649 1276
27.7399994470179 1338
27.7599994465709 1234
27.7799994461238 1257
27.7999994456768 1277
27.8199994452298 1253
27.8399994447827 1275
27.8599994443357 1248
27.8799994438887 1261
27.8999994434416 1224
27.9199994429946 1285
27.9399994425476 1230
27.9599994421005 1263
27.9799994416535 1302
27.9999994412065 1341
28.0199994407594 1303
28.0399994403124 1232
28.0599994398654 1304
28.0799994394183 1263
28.0999994389713 1310
28.1199994385242 1261
28.1399994380772 1281
28.1599994376302 1364
28.1799994371831 1379
28.1999994367361 1408
28.2199994362891 1441
28.239999435842 1446
28.259999435395 1398
28.279999434948 1411
28.2999994345009 1346
28.3199994340539 1351
28.3399994336069 1301
28.3599994331598 1251
28.3799994327128 1303
28.3999994322658 1191
28.4199994318187 1240
28.4399994313717 1220
28.4599994309247 1142
28.4799994304776 1259
28.4999994300306 1230
28.5199994295835 1217
28.5399994291365 1217
28.5599994286895 1249
28.5799994282424 1265
28.5999994277954 1265
28.6199994273484 1294
28.6399994269013 1321
28.6599994264543 1271
28.6799994260073 1282
28.6999994255602 1362
28.7199994251132 1348
28.7399994246662 1440
28.7599994242191 1446
28.7799994237721 1572
28.7999994233251 1666
28.819999422878 1651
28.839999422431 1739
28.859999421984 1611
28.8799994215369 1526
28.8999994210899 1554
28.9199994206429 1510
28.9399994201958 1546
28.9599994197488 1528
28.9799994193017 1571
28.9999994188547 1625
29.0199994184077 1694
29.0399994179606 1652
29.0599994175136 1587
29.0799994170666 1470
29.0999994166195 1353
29.1199994161725 1346
29.1399994157255 1316
29.1599994152784 1248
29.1799994148314 1246
29.1999994143844 1166
29.2199994139373 1174
29.2399994134903 1163
29.2599994130433 1154
29.2799994125962 1151
29.2999994121492 1149
29.3199994117022 1187
29.3399994112551 1229
29.3599994108081 1137
29.379999410361 1215
29.399999409914 1205
29.419999409467 1206
29.4399994090199 1151
29.4599994085729 1202
29.4799994081259 1236
29.4999994076788 1212
29.5199994072318 1130
29.5399994067848 1181
29.5599994063377 1185
29.5799994058907 1200
29.5999994054437 1182
29.6199994049966 1174
29.6399994045496 1176
29.6599994041026 1190
29.6799994036555 1142
29.6999994032085 1205
29.7199994027615 1188
29.7399994023144 1079
29.7599994018674 1155
29.7799994014204 1264
29.7999994009733 1185
29.8199994005263 1219
29.8399994000793 1180
29.8599993996322 1161
29.8799993991852 1163
29.8999993987381 1160
29.9199993982911 1180
29.9399993978441 1165
29.959999397397 1165
29.97999939695 1168
29.999999396503 1158
