3 2401
3.01999999955297 2293
3.03999999910593 2110
3.0599999986589 1947
3.07999999821186 1836
3.09999999776483 1845
3.11999999731779 1787
3.13999999687076 1705
3.15999999642372 1677
3.17999999597669 1645
3.19999999552965 1711
3.21999999508262 1596
3.23999999463558 1677
3.25999999418855 1570
3.27999999374151 1598
3.29999999329448 1602
3.31999999284744 1582
3.33999999240041 1553
3.35999999195337 1503
3.37999999150634 1519
3.3999999910593 1453
3.41999999061227 1482
3.43999999016523 1426
3.4599999897182 1459
3.47999998927116 1443
3.49999998882413 1405
3.51999998837709 1425
3.53999998793006 1353
3.55999998748302 1360
3.57999998703599 1408
3.59999998658895 1371
3.61999998614192 1360
3.63999998569489 1331
3.65999998524785 1251
3.67999998480082 1288
3.69999998435378 1255
3.71999998390675 1275
3.73999998345971 1267
3.75999998301268 1317
3.77999998256564 1232
3.79999998211861 1282
3.81999998167157 1260
3.83999998122454 1219
3.8599999807775 1230
3.87999998033047 1210
3.89999997988343 1261
3.9199999794364 1258
3.93999997898936 1217
3.95999997854233 1165
3.97999997809529 1212
3.99999997764826 1232
4.01999997720122 1230
4.03999997675419 1145
4.05999997630715 1168
4.07999997586012 1090
4.09999997541308 1086
4.11999997496605 1140
4.13999997451901 1093
4.15999997407198 1116
4.17999997362494 1159
4.19999997317791 1196
4.21999997273087 1101
4.23999997228384 1087
4.25999997183681 1083
4.27999997138977 1109
4.29999997094274 1050
4.3199999704957 1018
4.33999997004867 1112
4.35999996960163 1062
4.3799999691546 1095
4.39999996870756 1111
4.41999996826053 1053
4.43999996781349 1105
4.45999996736646 1097
4.47999996691942 1083
4.49999996647239 1040
4.51999996602535 1094
4.53999996557832 1067
4.55999996513128 1099
4.57999996468425 1065
4.59999996423721 996
4.61999996379018 1061
4.63999996334314 1018
4.65999996289611 1075
4.67999996244907 1056
4.69999996200204 1072
4.719999961555 1074
4.73999996110797 1039
4.75999996066093 1032
4.7799999602139 987
4.79999995976686 1023
4.81999995931983 1095
4.83999995887279 1000
4.85999995842576 1122
4.87999995797873 1114
4.89999995753169 1001
4.91999995708466 1021
4.93999995663762 1042
4.95999995619059 1093
4.97999995574355 1071
4.99999995529652 1061
5.01999995484948 1046
5.03999995440245 1061
5.05999995395541 1081
5.07999995350838 1098
5.09999995306134 1085
5.11999995261431 1168
5.13999995216727 1171
5.15999995172024 1142
5.1799999512732 1110
5.19999995082617 1196
5.21999995037913 1183
5.2399999499321 1215
5.25999994948506 1252
5.27999994903803 1281
5.29999994859099 1325
5.31999994814396 1371
5.33999994769692 1440
5.35999994724989 1490
5.37999994680285 1608
5.39999994635582 1642
5.41999994590878 1651
5.43999994546175 1712
5.45999994501471 1610
5.47999994456768 1524
5.49999994412065 1425
5.51999994367361 1390
5.53999994322658 1314
5.55999994277954 1239
5.57999994233251 1115
5.59999994188547 1133
5.61999994143844 1050
5.6399999409914 997
5.65999994054437 972
5.67999994009733 980
5.6999999396503 935
5.71999993920326 914
5.73999993875623 945
5.75999993830919 883
5.77999993786216 858
5.79999993741512 880
5.81999993696809 846
5.83999993652105 841
5.85999993607402 917
5.87999993562698 895
5.89999993517995 853
5.91999993473291 845
5.93999993428588 825
5.95999993383884 808
5.97999993339181 834
5.99999993294477 835
6.01999993249774 777
6.0399999320507 798
6.05999993160367 788
6.07999993115663 781
6.0999999307096 758
6.11999993026257 810
6.13999992981553 787
6.1599999293685 770
6.17999992892146 787
6.19999992847443 746
6.21999992802739 759
6.23999992758036 787
6.25999992713332 731
6.27999992668629 759
6.29999992623925 686
6.31999992579222 819
6.33999992534518 777
6.35999992489815 744
6.37999992445111 758
6.39999992400408 712
6.41999992355704 760
6.43999992311001 720
6.45999992266297 763
6.47999992221594 739
6.4999999217689 693
6.51999992132187 740
6.53999992087483 732
6.5599999204278 708
6.57999991998076 712
6.59999991953373 748
6.61999991908669 675
6.63999991863966 714
6.65999991819262 762
6.67999991774559 738
6.69999991729855 744
6.71999991685152 773
6.73999991640449 747
6.75999991595745 739
6.77999991551042 686
6.79999991506338 695
6.81999991461635 667
6.83999991416931 709
6.85999991372228 683
6.87999991327524 695
6.89999991282821 691
6.91999991238117 705
6.93999991193414 709
6.9599999114871 677
6.97999991104007 709
6.99999991059303 707
7.019999910146 712
7.03999990969896 702
7.05999990925193 668
7.07999990880489 688
7.09999990835786 705
7.11999990791082 658
7.13999990746379 646
7.15999990701675 686
7.17999990656972 660
7.19999990612268 724
7.21999990567565 695
7.23999990522861 638
7.25999990478158 686
7.27999990433454 694
7.29999990388751 657
7.31999990344047 692
7.33999990299344 709
7.35999990254641 699
7.37999990209937 629
7.39999990165234 698
7.4199999012053 638
7.43999990075827 644
7.45999990031123 680
7.4799998998642 709
7.49999989941716 655
7.51999989897013 710
7.53999989852309 662
7.55999989807606 627
7.57999989762902 652
7.59999989718199 670
7.61999989673495 675
7.63999989628792 675
7.65999989584088 630
7.67999989539385 663
7.69999989494681 683
7.71999989449978 678
7.73999989405274 680
7.75999989360571 612
7.77999989315867 624
7.79999989271164 675
7.8199998922646 642
7.83999989181757 617
7.85999989137053 666
7.8799998909235 633
7.89999989047646 626
7.91999989002943 639
7.9399998895824 665
7.95999988913536 636
7.97999988868833 625
7.99999988824129 647
8.01999988779426 637
8.03999988734722 637
8.05999988690019 643
8.07999988645315 612
8.09999988600612 643
8.11999988555908 631
8.13999988511205 619
8.15999988466501 645
8.17999988421798 636
8.19999988377094 610
8.21999988332391 627
8.23999988287687 575
8.25999988242984 656
8.2799998819828 660
8.29999988153577 665
8.31999988108873 641
8.3399998806417 609
8.35999988019466 614
8.37999987974763 649
8.39999987930059 609
8.41999987885356 617
8.43999987840652 619
8.45999987795949 649
8.47999987751245 634
8.49999987706542 625
8.51999987661839 630
8.53999987617135 614
8.55999987572432 622
8.57999987527728 638
8.59999987483025 642
8.61999987438321 598
8.63999987393618 653
8.65999987348914 639
8.67999987304211 607
8.69999987259507 595
8.71999987214804 652
8.739999871701 605
8.75999987125397 626
8.77999987080693 583
8.7999998703599 652
8.81999986991286 576
8.83999986946583 612
8.85999986901879 632
8.87999986857176 673
8.89999986812472 682
8.91999986767769 647
8.93999986723065 652
8.95999986678362 642
8.97999986633658 623
8.99999986588955 594
9.01999986544251 614
9.03999986499548 660
9.05999986454844 633
9.07999986410141 638
9.09999986365438 657
9.11999986320734 640
9.13999986276031 697
9.15999986231327 654
9.17999986186624 687
9.1999998614192 691
9.21999986097217 713
9.23999986052513 750
9.2599998600781 717
9.27999985963106 777
9.29999985918403 820
9.31999985873699 839
9.33999985828996 876
9.35999985784292 891
9.37999985739589 890
9.39999985694885 806
9.41999985650182 795
9.43999985605478 829
9.45999985560775 789
9.47999985516071 741
9.49999985471368 748
9.51999985426664 716
9.53999985381961 686
9.55999985337257 646
9.57999985292554 646
9.5999998524785 622
9.61999985203147 640
9.63999985158443 642
9.6599998511374 651
9.67999985069037 610
9.69999985024333 629
9.7199998497963 610
9.73999984934926 645
9.75999984890223 606
9.77999984845519 620
9.79999984800816 570
9.81999984756112 629
9.83999984711409 639
9.85999984666705 616
9.87999984622002 617
9.89999984577298 542
9.91999984532595 592
9.93999984487891 573
9.95999984443188 611
9.97999984398484 604
9.99999984353781 589
10.0199998430908 582
10.0399998426437 595
10.0599998421967 624
10.0799998417497 575
10.0999998413026 584
10.1199998408556 578
10.1399998404086 598
10.1599998399615 608
10.1799998395145 583
10.1999998390675 593
10.2199998386204 557
10.2399998381734 585
10.2599998377264 614
10.2799998372793 573
10.2999998368323 590
10.3199998363853 609
10.3399998359382 595
10.3599998354912 578
10.3799998350441 585
10.3999998345971 608
10.4199998341501 571
10.439999833703 592
10.459999833256 593
10.479999832809 637
10.4999998323619 573
10.5199998319149 596
10.5399998314679 597
10.5599998310208 601
10.5799998305738 591
10.5999998301268 607
10.6199998296797 607
10.6399998292327 621
10.6599998287857 630
10.6799998283386 626
10.6999998278916 671
10.7199998274446 669
10.7399998269975 658
10.7599998265505 668
10.7799998261034 644
10.7999998256564 684
10.8199998252094 663
10.8399998247623 691
10.8599998243153 647
10.8799998238683 627
10.8999998234212 635
10.9199998229742 616
10.9399998225272 587
10.9599998220801 618
10.9799998216331 594
10.9999998211861 596
11.019999820739 577
11.039999820292 575
11.059999819845 590
11.0799998193979 564
11.0999998189509 564
11.1199998185039 566
11.1399998180568 588
11.1599998176098 569
11.1799998171628 573
11.1999998167157 553
11.2199998162687 517
11.2399998158216 574
11.2599998153746 558
11.2799998149276 576
11.2999998144805 565
11.3199998140335 555
11.3399998135865 569
11.3599998131394 549
11.3799998126924 570
11.3999998122454 576
11.4199998117983 599
11.4399998113513 553
11.4599998109043 566
11.4799998104572 556
11.4999998100102 543
11.5199998095632 593
11.5399998091161 580
11.5599998086691 564
11.5799998082221 551
11.599999807775 612
11.619999807328 523
11.639999806881 571
11.6599998064339 586
11.6799998059869 530
11.6999998055398 585
11.7199998050928 558
11.7399998046458 595
11.7599998041987 540
11.7799998037517 551
11.7999998033047 585
11.8199998028576 541
11.8399998024106 560
11.8599998019636 559
11.8799998015165 546
11.8999998010695 580
11.9199998006225 550
11.9399998001754 523
11.9599997997284 592
11.9799997992814 588
11.9999997988343 568
12.0199997983873 538
12.0399997979403 550
12.0599997974932 575
12.0799997970462 537
12.0999997965992 557
12.1199997961521 587
12.1399997957051 592
12.159999795258 558
12.179999794811 585
12.199999794364 585
12.2199997939169 586
12.2399997934699 534
12.2599997930229 555
12.2799997925758 542
12.2999997921288 607
12.3199997916818 556
12.3399997912347 564
12.3599997907877 614
12.3799997903407 573
12.3999997898936 567
12.4199997894466 600
12.4399997889996 603
12.4599997885525 565
12.4799997881055 567
12.4999997876585 562
12.5199997872114 562
12.5399997867644 589
12.5599997863173 541
12.5799997858703 587
12.5999997854233 558
12.6199997849762 564
12.6399997845292 556
12.6599997840822 564
12.6799997836351 567
12.6999997831881 558
12.7199997827411 577
12.739999782294 582
12.759999781847 561
12.7799997814 568
12.7999997809529 576
12.8199997805059 613
12.8399997800589 616
12.8599997796118 584
12.8799997791648 572
12.8999997787178 591
12.9199997782707 573
12.9399997778237 598
12.9599997773767 609
12.9799997769296 584
12.9999997764826 586
13.0199997760355 564
13.0399997755885 558
13.0599997751415 642
13.0799997746944 596
13.0999997742474 568
13.1199997738004 585
13.1399997733533 596
13.1599997729063 586
13.1799997724593 606
13.1999997720122 589
13.2199997715652 597
13.2399997711182 585
13.2599997706711 618
13.2799997702241 640
13.2999997697771 568
13.31999976933 604
13.339999768883 566
13.359999768436 556
13.3799997679889 603
13.3999997675419 570
13.4199997670949 598
13.4399997666478 594
13.4599997662008 597
13.4799997657537 568
13.4999997653067 616
13.5199997648597 602
13.5399997644126 588
13.5599997639656 586
13.5799997635186 596
13.5999997630715 601
13.6199997626245 603
13.6399997621775 593
13.6599997617304 599
13.6799997612834 579
13.6999997608364 609
13.7199997603893 597
13.7399997599423 624
13.7599997594953 600
13.7799997590482 630
13.7999997586012 577
13.8199997581542 622
13.8399997577071 639
13.8599997572601 640
13.879999756813 646
13.899999756366 603
13.919999755919 615
13.9399997554719 599
13.9599997550249 599
13.9799997545779 647
13.9999997541308 628
14.0199997536838 607
14.0399997532368 635
14.0599997527897 588
14.0799997523427 608
14.0999997518957 610
14.1199997514486 650
14.1399997510016 651
14.1599997505546 616
14.1799997501075 701
14.1999997496605 621
14.2199997492135 631
14.2399997487664 669
14.2599997483194 646
14.2799997478724 591
14.2999997474253 669
14.3199997469783 660
14.3399997465312 644
14.3599997460842 644
14.3799997456372 615
14.3999997451901 655
14.4199997447431 680
14.4399997442961 612
14.459999743849 703
14.479999743402 679
14.499999742955 680
14.5199997425079 684
14.5399997420609 691
14.5599997416139 632
14.5799997411668 638
14.5999997407198 657
14.6199997402728 661
14.6399997398257 677
14.6599997393787 677
14.6799997389317 646
14.6999997384846 671
14.7199997380376 656
14.7399997375906 675
14.7599997371435 688
14.7799997366965 674
14.7999997362494 669
14.8199997358024 704
14.8399997353554 654
14.8599997349083 624
14.8799997344613 639
14.8999997340143 652
14.9199997335672 687
14.9399997331202 639
14.9599997326732 671
14.9799997322261 706
14.9999997317791 692
15.0199997313321 658
15.039999730885 652
15.059999730438 648
15.079999729991 682
15.0999997295439 682
15.1199997290969 646
15.1399997286499 660
15.1599997282028 673
15.1799997277558 698
15.1999997273088 676
15.2199997268617 651
15.2399997264147 673
15.2599997259676 693
15.2799997255206 677
15.2999997250736 698
15.3199997246265 725
15.3399997241795 742
15.3599997237325 723
15.3799997232854 693
15.3999997228384 706
15.4199997223914 648
15.4399997219443 731
15.4599997214973 735
15.4799997210503 730
15.4999997206032 685
15.5199997201562 735
15.5399997197092 722
15.5599997192621 714
15.5799997188151 718
15.5999997183681 737
15.619999717921 693
15.639999717474 770
15.659999717027 688
15.6799997165799 711
15.6999997161329 674
15.7199997156858 685
15.7399997152388 733
15.7599997147918 725
15.7799997143447 737
15.7999997138977 689
15.8199997134507 694
15.8399997130036 708
15.8599997125566 733
15.8799997121096 744
15.8999997116625 731
15.9199997112155 754
15.9399997107685 731
15.9599997103214 748
15.9799997098744 742
15.9999997094274 747
16.0199997089803 718
16.0399997085333 750
16.0599997080863 741
16.0799997076392 701
16.0999997071922 672
16.1199997067451 719
16.1399997062981 751
16.1599997058511 734
16.179999705404 759
16.199999704957 808
16.21999970451 732
16.2399997040629 746
16.2599997036159 742
16.2799997031689 767
16.2999997027218 776
16.3199997022748 756
16.3399997018278 803
16.3599997013807 714
16.3799997009337 831
16.3999997004867 732
16.4199997000396 762
16.4399996995926 767
16.4599996991456 808
16.4799996986985 732
16.4999996982515 827
16.5199996978045 786
16.5399996973574 793
16.5599996969104 809
16.5799996964633 819
16.5999996960163 875
16.6199996955693 796
16.6399996951222 763
16.6599996946752 857
16.6799996942282 831
16.6999996937811 807
16.7199996933341 834
16.7399996928871 877
16.75999969244 868
16.779999691993 857
16.799999691546 858
16.8199996910989 928
16.8399996906519 964
16.8599996902049 1010
16.8799996897578 1062
16.8999996893108 1080
16.9199996888638 1199
16.9399996884167 1319
16.9599996879697 1413
16.9799996875226 1569
16.9999996870756 1694
17.0199996866286 1721
17.0399996861815 1706
17.0599996857345 1562
17.0799996852875 1363
17.0999996848404 1242
17.1199996843934 1153
17.1399996839464 1010
17.1599996834993 1002
17.1799996830523 973
17.1999996826053 900
17.2199996821582 906
17.2399996817112 907
17.2599996812642 884
17.2799996808171 899
17.2999996803701 870
17.3199996799231 865
17.339999679476 878
17.359999679029 897
17.379999678582 932
17.3999996781349 886
17.4199996776879 851
17.4399996772408 923
17.4599996767938 894
17.4799996763468 872
17.4999996758997 934
17.5199996754527 899
17.5399996750057 916
17.5599996745586 928
17.5799996741116 929
17.5999996736646 899
17.6199996732175 883
17.6399996727705 946
17.6599996723235 951
17.6799996718764 1000
17.6999996714294 935
17.7199996709824 918
17.7399996705353 891
17.7599996700883 910
17.7799996696413 895
17.7999996691942 925
17.8199996687472 896
17.8399996683002 901
17.8599996678531 953
17.8799996674061 921
17.899999666959 904
17.919999666512 968
17.939999666065 1012
17.9599996656179 958
17.9799996651709 932
17.9999996647239 944
18.0199996642768 952
18.0399996638298 879
18.0599996633828 932
18.0799996629357 899
18.0999996624887 930
18.1199996620417 969
18.1399996615946 979
18.1599996611476 981
18.1799996607006 963
18.1999996602535 992
18.2199996598065 953
18.2399996593595 937
18.2599996589124 961
18.2799996584654 975
18.2999996580184 963
18.3199996575713 979
18.3399996571243 969
18.3599996566772 1039
18.3799996562302 945
18.3999996557832 987
18.4199996553361 1061
18.4399996548891 958
18.4599996544421 983
18.479999653995 989
18.499999653548 1081
18.519999653101 1064
18.5399996526539 1050
18.5599996522069 1031
18.5799996517599 1023
18.5999996513128 1029
18.6199996508658 974
18.6399996504188 1039
18.6599996499717 1013
18.6799996495247 1015
18.6999996490777 1078
18.7199996486306 1033
18.7399996481836 1127
18.7599996477366 1056
18.7799996472895 1038
18.7999996468425 1013
18.8199996463954 1021
18.8399996459484 1087
18.8599996455014 1013
18.8799996450543 1104
18.8999996446073 1038
18.9199996441603 1035
18.9399996437132 1058
18.9599996432662 1094
18.9799996428192 1088
18.9999996423721 1094
19.0199996419251 1078
19.0399996414781 1100
19.059999641031 1119
19.079999640584 1103
19.099999640137 1095
19.1199996396899 1049
19.1399996392429 1084
19.1599996387959 1106
19.1799996383488 1112
19.1999996379018 1074
19.2199996374547 1078
19.2399996370077 1121
19.2599996365607 1111
19.2799996361136 1122
19.2999996356666 1108
19.3199996352196 1122
19.3399996347725 1174
19.3599996343255 1132
19.3799996338785 1122
19.3999996334314 1203
19.4199996329844 1136
19.4399996325374 1265
19.4599996320903 1149
19.4799996316433 1162
19.4999996311963 1184
19.5199996307492 1240
19.5399996303022 1228
19.5599996298552 1261
19.5799996294081 1202
19.5999996289611 1182
19.6199996285141 1189
19.639999628067 1212
19.65999962762 1250
19.6799996271729 1188
19.6999996267259 1273
19.7199996262789 1167
19.7399996258318 1227
19.7599996253848 1202
19.7799996249378 1184
19.7999996244907 1254
19.8199996240437 1179
19.8399996235967 1256
19.8599996231496 1152
19.8799996227026 1191
19.8999996222556 1216
19.9199996218085 1187
19.9399996213615 1275
19.9599996209145 1221
19.9799996204674 1213
19.9999996200204 1236
