3 2290
3.01999999955297 2142
3.03999999910593 2059
3.0599999986589 1900
3.07999999821186 1850
3.09999999776483 1781
3.11999999731779 1727
3.13999999687076 1595
3.15999999642372 1500
3.17999999597669 1581
3.19999999552965 1541
3.21999999508262 1568
3.23999999463558 1519
3.25999999418855 1529
3.27999999374151 1521
3.29999999329448 1483
3.31999999284744 1525
3.33999999240041 1502
3.35999999195337 1416
3.37999999150634 1419
3.3999999910593 1414
3.41999999061227 1448
3.43999999016523 1461
3.4599999897182 1403
3.47999998927116 1397
3.49999998882413 1369
3.51999998837709 1386
3.53999998793006 1406
3.55999998748302 1396
3.57999998703599 1356
3.59999998658895 1342
3.61999998614192 1383
3.63999998569489 1345
3.65999998524785 1309
3.67999998480082 1315
3.69999998435378 1298
3.71999998390675 1341
3.73999998345971 1295
3.75999998301268 1284
3.77999998256564 1350
3.79999998211861 1306
3.81999998167157 1362
3.83999998122454 1236
3.8599999807775 1277
3.87999998033047 1250
3.89999997988343 1265
3.9199999794364 1300
3.93999997898936 1259
3.95999997854233 1227
3.97999997809529 1300
3.99999997764826 1267
4.01999997720122 1214
4.03999997675419 1249
4.05999997630715 1272
4.07999997586012 1259
4.09999997541308 1215
4.11999997496605 1189
4.13999997451901 1211
4.15999997407198 1306
4.17999997362494 1274
4.19999997317791 1281
4.21999997273087 1307
4.23999997228384 1242
4.25999997183681 1192
4.27999997138977 1203
4.29999997094274 1241
4.3199999704957 1117
4.33999997004867 1110
4.35999996960163 1140
4.3799999691546 1189
4.39999996870756 1127
4.41999996826053 1154
4.43999996781349 1118
4.45999996736646 1143
4.47999996691942 1133
4.49999996647239 1161
4.51999996602535 1148
4.53999996557832 1190
4.55999996513128 1080
4.57999996468425 1148
4.59999996423721 1155
4.61999996379018 1210
4.63999996334314 1189
4.65999996289611 1113
4.67999996244907 1067
4.69999996200204 1144
4.719999961555 1120
4.73999996110797 1177
4.75999996066093 1152
4.7799999602139 1131
4.79999995976686 1090
4.81999995931983 1171
4.83999995887279 1208
4.85999995842576 1142
4.87999995797873 1262
4.89999995753169 1201
4.91999995708466 1190
4.93999995663762 1227
4.95999995619059 1277
4.97999995574355 1279
4.99999995529652 1276
5.01999995484948 1290
5.03999995440245 1234
5.05999995395541 1368
5.07999995350838 1375
5.09999995306134 1362
5.11999995261431 1362
5.13999995216727 1465
5.15999995172024 1452
5.1799999512732 1491
5.19999995082617 1597
5.21999995037913 1658
5.2399999499321 1726
5.25999994948506 1713
5.27999994903803 1889
5.29999994859099 1902
5.31999994814396 2019
5.33999994769692 2136
5.35999994724989 2428
5.37999994680285 2564
5.39999994635582 2867
5.41999994590878 3125
5.43999994546175 3351
5.45999994501471 3533
5.47999994456768 3476
5.49999994412065 3066
5.51999994367361 2544
5.53999994322658 2174
5.55999994277954 2037
5.57999994233251 1952
5.59999994188547 1788
5.61999994143844 1752
5.6399999409914 1857
5.65999994054437 1750
5.67999994009733 1728
5.6999999396503 1682
5.71999993920326 1789
5.73999993875623 1913
5.75999993830919 1981
5.77999993786216 1974
5.79999993741512 1952
5.81999993696809 1866
5.83999993652105 1847
5.85999993607402 1615
5.87999993562698 1531
5.89999993517995 1312
5.91999993473291 1231
5.93999993428588 1082
5.95999993383884 1055
5.97999993339181 1010
5.99999993294477 927
6.01999993249774 891
6.0399999320507 935
6.05999993160367 881
6.07999993115663 923
6.0999999307096 851
6.11999993026257 846
6.13999992981553 908
6.1599999293685 854
6.17999992892146 837
6.19999992847443 891
6.21999992802739 869
6.23999992758036 813
6.25999992713332 838
6.27999992668629 782
6.29999992623925 814
6.31999992579222 751
6.33999992534518 871
6.35999992489815 798
6.37999992445111 825
6.39999992400408 827
6.41999992355704 832
6.43999992311001 787
6.45999992266297 832
6.47999992221594 816
6.4999999217689 764
6.51999992132187 750
6.53999992087483 814
6.5599999204278 793
6.57999991998076 767
6.59999991953373 768
6.61999991908669 812
6.63999991863966 829
6.65999991819262 811
6.67999991774559 823
6.69999991729855 799
6.71999991685152 848
6.73999991640449 785
6.75999991595745 875
6.77999991551042 812
6.79999991506338 865
6.81999991461635 838
6.83999991416931 806
6.85999991372228 799
6.87999991327524 791
6.89999991282821 758
6.91999991238117 773
6.93999991193414 775
6.9599999114871 763
6.97999991104007 733
6.99999991059303 741
7.019999910146 754
7.03999990969896 720
7.05999990925193 700
7.07999990880489 709
7.09999990835786 709
7.11999990791082 747
7.13999990746379 712
7.15999990701675 712
7.17999990656972 657
7.19999990612268 705
7.21999990567565 768
7.23999990522861 719
7.25999990478158 704
7.27999990433454 718
7.29999990388751 711
7.31999990344047 716
7.33999990299344 709
7.35999990254641 658
7.37999990209937 717
7.39999990165234 701
7.4199999012053 727
7.43999990075827 747
7.45999990031123 721
7.4799998998642 723
7.49999989941716 753
7.51999989897013 728
7.53999989852309 710
7.55999989807606 675
7.57999989762902 676
7.59999989718199 717
7.61999989673495 737
7.63999989628792 660
7.65999989584088 708
7.67999989539385 690
7.69999989494681 642
7.71999989449978 662
7.73999989405274 684
7.75999989360571 720
7.77999989315867 695
7.79999989271164 712
7.8199998922646 677
7.83999989181757 666
7.85999989137053 706
7.8799998909235 709
7.89999989047646 691
7.91999989002943 650
7.9399998895824 677
7.95999988913536 672
7.97999988868833 705
7.99999988824129 688
8.01999988779426 683
8.03999988734722 696
8.05999988690019 663
8.07999988645315 697
8.09999988600612 715
8.11999988555908 705
8.13999988511205 754
8.15999988466501 706
8.17999988421798 737
8.19999988377094 738
8.21999988332391 732
8.23999988287687 694
8.25999988242984 724
8.2799998819828 741
8.29999988153577 723
8.31999988108873 664
8.3399998806417 640
8.35999988019466 653
8.37999987974763 689
8.39999987930059 684
8.41999987885356 669
8.43999987840652 682
8.45999987795949 692
8.47999987751245 685
8.49999987706542 678
8.51999987661839 682
8.53999987617135 711
8.55999987572432 696
8.57999987527728 736
8.59999987483025 674
8.61999987438321 668
8.63999987393618 690
8.65999987348914 746
8.67999987304211 665
8.69999987259507 655
8.71999987214804 707
8.739999871701 695
8.75999987125397 683
8.77999987080693 697
8.7999998703599 696
8.81999986991286 677
8.83999986946583 701
8.85999986901879 705
8.87999986857176 687
8.89999986812472 718
8.91999986767769 689
8.93999986723065 725
8.95999986678362 752
8.97999986633658 693
8.99999986588955 696
9.01999986544251 771
9.03999986499548 746
9.05999986454844 787
9.07999986410141 733
9.09999986365438 797
9.11999986320734 751
9.13999986276031 809
9.15999986231327 875
9.17999986186624 856
9.1999998614192 932
9.21999986097217 918
9.23999986052513 1041
9.2599998600781 1109
9.27999985963106 1153
9.29999985918403 1242
9.31999985873699 1318
9.33999985828996 1493
9.35999985784292 1631
9.37999985739589 1726
9.39999985694885 1694
9.41999985650182 1370
9.43999985605478 1154
9.45999985560775 974
9.47999985516071 904
9.49999985471368 854
9.51999985426664 765
9.53999985381961 698
9.55999985337257 738
9.57999985292554 714
9.5999998524785 751
9.61999985203147 723
9.63999985158443 685
9.6599998511374 647
9.67999985069037 681
9.69999985024333 718
9.7199998497963 747
9.73999984934926 667
9.75999984890223 697
9.77999984845519 699
9.79999984800816 672
9.81999984756112 700
9.83999984711409 685
9.85999984666705 698
9.87999984622002 734
9.89999984577298 747
9.91999984532595 704
9.93999984487891 721
9.95999984443188 744
9.97999984398484 681
9.99999984353781 775
10.0199998430908 732
10.0399998426437 769
10.0599998421967 708
10.0799998417497 801
10.0999998413026 735
10.1199998408556 722
10.1399998404086 746
10.1599998399615 743
10.1799998395145 774
10.1999998390675 820
10.2199998386204 822
10.2399998381734 783
10.2599998377264 773
10.2799998372793 741
10.2999998368323 745
10.3199998363853 721
10.3399998359382 717
10.3599998354912 717
10.3799998350441 759
10.3999998345971 713
10.4199998341501 701
10.439999833703 711
10.459999833256 691
10.479999832809 740
10.4999998323619 733
10.5199998319149 713
10.5399998314679 756
10.5599998310208 727
10.5799998305738 733
10.5999998301268 742
10.6199998296797 754
10.6399998292327 794
10.6599998287857 785
10.6799998283386 815
10.6999998278916 825
10.7199998274446 903
10.7399998269975 943
10.7599998265505 981
10.7799998261034 1011
10.7999998256564 1126
10.8199998252094 1127
10.8399998247623 1106
10.8599998243153 1105
10.8799998238683 989
10.8999998234212 940
10.9199998229742 959
10.9399998225272 951
10.9599998220801 928
10.9799998216331 955
10.9999998211861 979
11.019999820739 938
11.039999820292 888
11.059999819845 807
11.0799998193979 784
11.0999998189509 774
11.1199998185039 702
11.1399998180568 726
11.1599998176098 721
11.1799998171628 690
11.1999998167157 742
11.2199998162687 723
11.2399998158216 739
11.2599998153746 711
11.2799998149276 692
11.2999998144805 707
11.3199998140335 721
11.3399998135865 715
11.3599998131394 705
11.3799998126924 731
11.3999998122454 698
11.4199998117983 743
11.4399998113513 735
11.4599998109043 778
11.4799998104572 747
11.4999998100102 754
11.5199998095632 737
11.5399998091161 763
11.5599998086691 786
11.5799998082221 776
11.599999807775 728
11.619999807328 730
11.639999806881 716
11.6599998064339 717
11.6799998059869 719
11.6999998055398 710
11.7199998050928 757
11.7399998046458 709
11.7599998041987 701
11.7799998037517 685
11.7999998033047 737
11.8199998028576 714
11.8399998024106 774
11.8599998019636 697
11.8799998015165 670
11.8999998010695 763
11.9199998006225 746
11.9399998001754 724
11.9599997997284 728
11.9799997992814 728
11.9999997988343 701
12.0199997983873 719
12.0399997979403 746
12.0599997974932 752
12.0799997970462 750
12.0999997965992 716
12.1199997961521 717
12.1399997957051 756
12.159999795258 768
12.179999794811 796
12.199999794364 766
12.2199997939169 775
12.2399997934699 821
12.2599997930229 816
12.2799997925758 783
12.2999997921288 795
12.3199997916818 763
12.3399997912347 759
12.3599997907877 721
12.3799997903407 765
12.3999997898936 768
12.4199997894466 725
12.4399997889996 699
12.4599997885525 763
12.4799997881055 732
12.4999997876585 831
12.5199997872114 749
12.5399997867644 735
12.5599997863173 734
12.5799997858703 728
12.5999997854233 702
12.6199997849762 736
12.6399997845292 755
12.6599997840822 708
12.6799997836351 748
12.6999997831881 683
12.7199997827411 743
12.739999782294 721
12.759999781847 737
12.7799997814 788
12.7999997809529 704
12.8199997805059 721
12.8399997800589 679
12.8599997796118 737
12.8799997791648 720
12.8999997787178 738
12.9199997782707 774
12.9399997778237 743
12.9599997773767 720
12.9799997769296 761
12.9999997764826 775
13.0199997760355 853
13.0399997755885 772
13.0599997751415 729
13.0799997746944 788
13.0999997742474 755
13.1199997738004 771
13.1399997733533 779
13.1599997729063 759
13.1799997724593 737
13.1999997720122 779
13.2199997715652 778
13.2399997711182 798
13.2599997706711 798
13.2799997702241 746
13.2999997697771 796
13.31999976933 808
13.339999768883 833
13.359999768436 810
13.3799997679889 807
13.3999997675419 796
13.4199997670949 813
13.4399997666478 828
13.4599997662008 814
13.4799997657537 752
13.4999997653067 813
13.5199997648597 840
13.5399997644126 806
13.5599997639656 793
13.5799997635186 790
13.5999997630715 798
13.6199997626245 818
13.6399997621775 821
13.6599997617304 836
13.6799997612834 801
13.6999997608364 784
13.7199997603893 846
13.7399997599423 810
13.7599997594953 826
13.7799997590482 811
13.7999997586012 797
13.8199997581542 798
13.8399997577071 771
13.8599997572601 811
13.879999756813 778
13.899999756366 819
13.919999755919 793
13.9399997554719 820
13.9599997550249 783
13.9799997545779 803
13.9999997541308 816
14.0199997536838 823
14.0399997532368 790
14.0599997527897 773
14.0799997523427 863
14.0999997518957 807
14.1199997514486 845
14.1399997510016 843
14.1599997505546 849
14.1799997501075 826
14.1999997496605 835
14.2199997492135 860
14.2399997487664 905
14.2599997483194 856
14.2799997478724 932
14.2999997474253 909
14.3199997469783 930
14.3399997465312 948
14.3599997460842 913
14.3799997456372 858
14.3999997451901 858
14.4199997447431 850
14.4399997442961 890
14.459999743849 944
14.479999743402 911
14.499999742955 848
14.5199997425079 834
14.5399997420609 818
14.5599997416139 877
14.5799997411668 851
14.5999997407198 834
14.6199997402728 897
14.6399997398257 812
14.6599997393787 840
14.6799997389317 895
14.6999997384846 889
14.7199997380376 899
14.7399997375906 895
14.7599997371435 846
14.7799997366965 819
14.7999997362494 833
14.8199997358024 912
14.8399997353554 910
14.8599997349083 908
14.8799997344613 910
14.8999997340143 937
14.9199997335672 909
14.9399997331202 938
14.9599997326732 846
14.9799997322261 884
14.9999997317791 936
15.0199997313321 882
15.039999730885 925
15.059999730438 874
15.079999729991 892
15.0999997295439 914
15.1199997290969 904
15.1399997286499 907
15.1599997282028 918
15.1799997277558 980
15.1999997273088 948
15.2199997268617 953
15.2399997264147 952
15.2599997259676 975
15.2799997255206 923
15.2999997250736 956
15.3199997246265 917
15.3399997241795 973
15.3599997237325 887
15.3799997232854 963
15.3999997228384 914
15.4199997223914 941
15.4399997219443 1008
15.4599997214973 933
15.4799997210503 978
15.4999997206032 995
15.5199997201562 965
15.5399997197092 878
15.5599997192621 939
15.5799997188151 1035
15.5999997183681 967
15.619999717921 990
15.639999717474 942
15.659999717027 920
15.6799997165799 951
15.6999997161329 984
15.7199997156858 934
15.7399997152388 1020
15.7599997147918 1014
15.7799997143447 1011
15.7999997138977 1005
15.8199997134507 974
15.8399997130036 981
15.8599997125566 961
15.8799997121096 965
15.8999997116625 944
15.9199997112155 1002
15.9399997107685 1042
15.9599997103214 978
15.9799997098744 984
15.9999997094274 1006
16.0199997089803 1064
16.0399997085333 1040
16.0599997080863 972
16.0799997076392 1028
16.0999997071922 1081
16.1199997067451 1032
16.1399997062981 1034
16.1599997058511 1029
16.179999705404 1065
16.199999704957 1101
16.21999970451 1083
16.2399997040629 1058
16.2599997036159 1048
16.2799997031689 1089
16.2999997027218 1067
16.3199997022748 1094
16.3399997018278 1103
16.3599997013807 1064
16.3799997009337 1090
16.3999997004867 1082
16.4199997000396 1120
16.4399996995926 1105
16.4599996991456 1131
16.4799996986985 1127
16.4999996982515 1124
16.5199996978045 1117
16.5399996973574 1122
16.5599996969104 1114
16.5799996964633 1099
16.5999996960163 1079
16.6199996955693 1091
16.6399996951222 1108
16.6599996946752 1137
16.6799996942282 1180
16.6999996937811 1139
16.7199996933341 1147
16.7399996928871 1185
16.75999969244 1146
16.779999691993 1125
16.799999691546 1213
16.8199996910989 1241
16.8399996906519 1273
16.8599996902049 1286
16.8799996897578 1399
16.8999996893108 1446
16.9199996888638 1602
16.9399996884167 1762
16.9599996879697 1970
16.9799996875226 2249
16.9999996870756 2540
17.0199996866286 2704
17.0399996861815 2699
17.0599996857345 2452
17.0799996852875 2033
17.0999996848404 1694
17.1199996843934 1481
17.1399996839464 1374
17.1599996834993 1301
17.1799996830523 1227
17.1999996826053 1284
17.2199996821582 1268
17.2399996817112 1245
17.2599996812642 1293
17.2799996808171 1279
17.2999996803701 1304
17.3199996799231 1315
17.339999679476 1286
17.359999679029 1309
17.379999678582 1328
17.3999996781349 1277
17.4199996776879 1218
17.4399996772408 1273
17.4599996767938 1258
17.4799996763468 1364
17.4999996758997 1329
17.5199996754527 1318
17.5399996750057 1369
17.5599996745586 1300
17.5799996741116 1286
17.5999996736646 1319
17.6199996732175 1364
17.6399996727705 1324
17.6599996723235 1275
17.6799996718764 1300
17.6999996714294 1327
17.7199996709824 1313
17.7399996705353 1363
17.7599996700883 1304
17.7799996696413 1372
17.7999996691942 1376
17.8199996687472 1301
17.8399996683002 1281
17.8599996678531 1386
17.8799996674061 1367
17.899999666959 1375
17.919999666512 1341
17.939999666065 1360
17.9599996656179 1409
17.9799996651709 1411
17.9999996647239 1295
18.0199996642768 1353
18.0399996638298 1294
18.0599996633828 1356
18.0799996629357 1391
18.0999996624887 1380
18.1199996620417 1307
18.1399996615946 1402
18.1599996611476 1401
18.1799996607006 1359
18.1999996602535 1408
18.2199996598065 1326
18.2399996593595 1415
18.2599996589124 1331
18.2799996584654 1417
18.2999996580184 1406
18.3199996575713 1359
18.3399996571243 1495
18.3599996566772 1407
18.3799996562302 1481
18.3999996557832 1479
18.4199996553361 1408
18.4399996548891 1404
18.4599996544421 1381
18.479999653995 1457
18.499999653548 1416
18.519999653101 1469
18.5399996526539 1483
18.5599996522069 1489
18.5799996517599 1516
18.5999996513128 1549
18.6199996508658 1485
18.6399996504188 1442
18.6599996499717 1571
18.6799996495247 1547
18.6999996490777 1584
18.7199996486306 1561
18.7399996481836 1471
18.7599996477366 1537
18.7799996472895 1484
18.7999996468425 1545
18.8199996463954 1542
18.8399996459484 1582
18.8599996455014 1549
18.8799996450543 1537
18.8999996446073 1532
18.9199996441603 1542
18.9399996437132 1600
18.9599996432662 1521
18.9799996428192 1586
18.9999996423721 1587
19.0199996419251 1557
19.0399996414781 1589
19.059999641031 1539
19.079999640584 1608
19.099999640137 1606
19.1199996396899 1636
19.1399996392429 1714
19.1599996387959 1708
19.1799996383488 1726
19.1999996379018 1726
19.2199996374547 1703
19.2399996370077 1648
19.2599996365607 1627
19.2799996361136 1651
19.2999996356666 1707
19.3199996352196 1613
19.3399996347725 1700
19.3599996343255 1646
19.3799996338785 1751
19.3999996334314 1738
19.4199996329844 1829
19.4399996325374 1786
19.4599996320903 1860
19.4799996316433 1766
19.4999996311963 1841
19.5199996307492 1902
19.5399996303022 1901
19.5599996298552 1897
19.5799996294081 1858
19.5999996289611 1798
19.6199996285141 1837
19.639999628067 1750
19.65999962762 1758
19.6799996271729 1748
19.6999996267259 1735
19.7199996262789 1660
19.7399996258318 1670
19.7599996253848 1697
19.7799996249378 1595
19.7999996244907 1642
19.8199996240437 1711
19.8399996235967 1764
19.8599996231496 1792
19.8799996227026 1661
19.8999996222556 1763
19.9199996218085 1806
19.9399996213615 1729
19.9599996209145 1733
19.9799996204674 1685
19.9999996200204 1758
