3 2357
3.01999999955297 2236
3.03999999910593 2078
3.0599999986589 2045
3.07999999821186 1819
3.09999999776483 1805
3.11999999731779 1778
3.13999999687076 1694
3.15999999642372 1743
3.17999999597669 1739
3.19999999552965 1605
3.21999999508262 1543
3.23999999463558 1610
3.25999999418855 1597
3.27999999374151 1595
3.29999999329448 1504
3.31999999284744 1546
3.33999999240041 1464
3.35999999195337 1500
3.37999999150634 1468
3.3999999910593 1430
3.41999999061227 1441
3.43999999016523 1455
3.4599999897182 1450
3.47999998927116 1424
3.49999998882413 1380
3.51999998837709 1388
3.53999998793006 1401
3.55999998748302 1306
3.57999998703599 1337
3.59999998658895 1354
3.61999998614192 1350
3.63999998569489 1384
3.65999998524785 1294
3.67999998480082 1285
3.69999998435378 1301
3.71999998390675 1318
3.73999998345971 1250
3.75999998301268 1225
3.77999998256564 1242
3.79999998211861 1220
3.81999998167157 1237
3.83999998122454 1228
3.8599999807775 1216
3.87999998033047 1245
3.89999997988343 1294
3.9199999794364 1249
3.93999997898936 1171
3.95999997854233 1240
3.97999997809529 1158
3.99999997764826 1171
4.01999997720122 1157
4.03999997675419 1181
4.05999997630715 1255
4.07999997586012 1107
4.09999997541308 1144
4.11999997496605 1152
4.13999997451901 1077
4.15999997407198 1113
4.17999997362494 1205
4.19999997317791 1132
4.21999997273087 1101
4.23999997228384 1134
4.25999997183681 1107
4.27999997138977 1084
4.29999997094274 1080
4.3199999704957 1068
4.33999997004867 1082
4.35999996960163 1100
4.3799999691546 1091
4.39999996870756 1085
4.41999996826053 1021
4.43999996781349 1061
4.45999996736646 1071
4.47999996691942 1084
4.49999996647239 1036
4.51999996602535 1004
4.53999996557832 989
4.55999996513128 985
4.57999996468425 1024
4.59999996423721 984
4.61999996379018 1068
4.63999996334314 1033
4.65999996289611 950
4.67999996244907 960
4.69999996200204 988
4.719999961555 1049
4.73999996110797 981
4.75999996066093 1004
4.7799999602139 1026
4.79999995976686 962
4.81999995931983 1021
4.83999995887279 991
4.85999995842576 1015
4.87999995797873 1000
4.89999995753169 945
4.91999995708466 937
4.93999995663762 992
4.95999995619059 996
4.97999995574355 956
4.99999995529652 988
5.01999995484948 943
5.03999995440245 928
5.05999995395541 1015
5.07999995350838 983
5.09999995306134 984
5.11999995261431 998
5.13999995216727 981
5.15999995172024 986
5.1799999512732 979
5.19999995082617 959
5.21999995037913 944
5.2399999499321 950
5.25999994948506 956
5.27999994903803 901
5.29999994859099 974
5.31999994814396 929
5.33999994769692 999
5.35999994724989 952
5.37999994680285 977
5.39999994635582 877
5.41999994590878 966
5.43999994546175 976
5.45999994501471 968
5.47999994456768 943
5.49999994412065 909
5.51999994367361 928
5.53999994322658 911
5.55999994277954 910
5.57999994233251 923
5.59999994188547 848
5.61999994143844 894
5.6399999409914 849
5.65999994054437 893
5.67999994009733 880
5.6999999396503 928
5.71999993920326 874
5.73999993875623 862
5.75999993830919 835
5.77999993786216 860
5.79999993741512 891
5.81999993696809 854
5.83999993652105 837
5.85999993607402 852
5.87999993562698 849
5.89999993517995 820
5.91999993473291 804
5.93999993428588 842
5.95999993383884 829
5.97999993339181 815
5.99999993294477 763
6.01999993249774 817
6.0399999320507 815
6.05999993160367 784
6.07999993115663 807
6.0999999307096 830
6.11999993026257 753
6.13999992981553 784
6.1599999293685 804
6.17999992892146 817
6.19999992847443 748
6.21999992802739 761
6.23999992758036 786
6.25999992713332 783
6.27999992668629 795
6.29999992623925 745
6.31999992579222 750
6.33999992534518 745
6.35999992489815 789
6.37999992445111 728
6.39999992400408 762
6.41999992355704 769
6.43999992311001 797
6.45999992266297 795
6.47999992221594 741
6.4999999217689 782
6.51999992132187 761
6.53999992087483 702
6.5599999204278 734
6.57999991998076 756
6.59999991953373 745
6.61999991908669 753
6.63999991863966 756
6.65999991819262 745
6.67999991774559 726
6.69999991729855 748
6.71999991685152 793
6.73999991640449 738
6.75999991595745 701
6.77999991551042 746
6.79999991506338 751
6.81999991461635 784
6.83999991416931 757
6.85999991372228 740
6.87999991327524 709
6.89999991282821 702
6.91999991238117 733
6.93999991193414 725
6.9599999114871 717
6.97999991104007 691
6.99999991059303 720
7.019999910146 728
7.03999990969896 751
7.05999990925193 721
7.07999990880489 680
7.09999990835786 699
7.11999990791082 695
7.13999990746379 699
7.15999990701675 703
7.17999990656972 668
7.19999990612268 704
7.21999990567565 681
7.23999990522861 730
7.25999990478158 740
7.27999990433454 703
7.29999990388751 698
7.31999990344047 658
7.33999990299344 745
7.35999990254641 711
7.37999990209937 669
7.39999990165234 677
7.4199999012053 700
7.43999990075827 718
7.45999990031123 690
7.4799998998642 685
7.49999989941716 709
7.51999989897013 703
7.53999989852309 687
7.55999989807606 686
7.57999989762902 671
7.59999989718199 685
7.61999989673495 718
7.63999989628792 664
7.65999989584088 712
7.67999989539385 661
7.69999989494681 714
7.71999989449978 644
7.73999989405274 688
7.75999989360571 693
7.77999989315867 695
7.79999989271164 665
7.8199998922646 686
7.83999989181757 666
7.85999989137053 703
7.8799998909235 685
7.89999989047646 689
7.91999989002943 731
7.9399998895824 707
7.95999988913536 705
7.97999988868833 643
7.99999988824129 659
8.01999988779426 678
8.03999988734722 667
8.05999988690019 680
8.07999988645315 680
8.09999988600612 645
8.11999988555908 649
8.13999988511205 684
8.15999988466501 648
8.17999988421798 648
8.19999988377094 706
8.21999988332391 635
8.23999988287687 635
8.25999988242984 647
8.2799998819828 666
8.29999988153577 636
8.31999988108873 671
8.3399998806417 681
8.35999988019466 651
8.37999987974763 655
8.39999987930059 629
8.41999987885356 610
8.43999987840652 663
8.45999987795949 613
8.47999987751245 639
8.49999987706542 665
8.51999987661839 641
8.53999987617135 613
8.55999987572432 681
8.57999987527728 634
8.59999987483025 626
8.61999987438321 654
8.63999987393618 641
8.65999987348914 644
8.67999987304211 646
8.69999987259507 624
8.71999987214804 635
8.739999871701 655
8.75999987125397 635
8.77999987080693 677
8.7999998703599 660
8.81999986991286 647
8.83999986946583 652
8.85999986901879 601
8.87999986857176 569
8.89999986812472 627
8.91999986767769 650
8.93999986723065 620
8.95999986678362 650
8.97999986633658 625
8.99999986588955 652
9.01999986544251 616
9.03999986499548 661
9.05999986454844 609
9.07999986410141 639
9.09999986365438 632
9.11999986320734 599
9.13999986276031 611
9.15999986231327 613
9.17999986186624 674
9.1999998614192 623
9.21999986097217 631
9.23999986052513 598
9.2599998600781 608
9.27999985963106 624
9.29999985918403 654
9.31999985873699 667
9.33999985828996 615
9.35999985784292 639
9.37999985739589 682
9.39999985694885 640
9.41999985650182 612
9.43999985605478 631
9.45999985560775 635
9.47999985516071 640
9.49999985471368 670
9.51999985426664 641
9.53999985381961 628
9.55999985337257 599
9.57999985292554 643
9.5999998524785 685
9.61999985203147 662
9.63999985158443 606
9.6599998511374 628
9.67999985069037 682
9.69999985024333 632
9.7199998497963 622
9.73999984934926 666
9.75999984890223 617
9.77999984845519 597
9.79999984800816 681
9.81999984756112 618
9.83999984711409 620
9.85999984666705 676
9.87999984622002 621
9.89999984577298 642
9.91999984532595 599
9.93999984487891 631
9.95999984443188 597
9.97999984398484 620
9.99999984353781 633
10.0199998430908 594
10.0399998426437 636
10.0599998421967 665
10.0799998417497 586
10.0999998413026 603
10.1199998408556 591
10.1399998404086 600
10.1599998399615 641
10.1799998395145 586
10.1999998390675 601
10.2199998386204 616
10.2399998381734 600
10.2599998377264 637
10.2799998372793 584
10.2999998368323 620
10.3199998363853 600
10.3399998359382 588
10.3599998354912 608
10.3799998350441 584
10.3999998345971 578
10.4199998341501 583
10.439999833703 549
10.459999833256 582
10.479999832809 591
10.4999998323619 547
10.5199998319149 607
10.5399998314679 564
10.5599998310208 624
10.5799998305738 558
10.5999998301268 548
10.6199998296797 600
10.6399998292327 599
10.6599998287857 554
10.6799998283386 582
10.6999998278916 591
10.7199998274446 520
10.7399998269975 581
10.7599998265505 574
10.7799998261034 609
10.7999998256564 606
10.8199998252094 588
10.8399998247623 596
10.8599998243153 599
10.8799998238683 604
10.8999998234212 554
10.9199998229742 560
10.9399998225272 591
10.9599998220801 576
10.9799998216331 599
10.9999998211861 576
11.019999820739 578
11.039999820292 593
11.059999819845 571
11.0799998193979 574
11.0999998189509 563
11.1199998185039 571
11.1399998180568 557
11.1599998176098 585
11.1799998171628 556
11.1999998167157 644
11.2199998162687 565
11.2399998158216 601
11.2599998153746 594
11.2799998149276 610
11.2999998144805 615
11.3199998140335 571
11.3399998135865 560
11.3599998131394 579
11.3799998126924 552
11.3999998122454 561
11.4199998117983 572
11.4399998113513 570
11.4599998109043 577
11.4799998104572 565
11.4999998100102 605
11.5199998095632 565
11.5399998091161 564
11.5599998086691 601
11.5799998082221 594
11.599999807775 606
11.619999807328 563
11.639999806881 570
11.6599998064339 571
11.6799998059869 596
11.6999998055398 558
11.7199998050928 574
11.7399998046458 588
11.7599998041987 591
11.7799998037517 560
11.7999998033047 586
11.8199998028576 586
11.8399998024106 549
11.8599998019636 530
11.8799998015165 572
11.8999998010695 574
11.9199998006225 545
11.9399998001754 568
11.9599997997284 615
11.9799997992814 556
11.9999997988343 564
12.0199997983873 589
12.0399997979403 578
12.0599997974932 566
12.0799997970462 546
12.0999997965992 594
12.1199997961521 562
12.1399997957051 551
12.159999795258 567
12.179999794811 555
12.199999794364 589
12.2199997939169 594
12.2399997934699 573
12.2599997930229 608
12.2799997925758 625
12.2999997921288 605
12.3199997916818 624
12.3399997912347 584
12.3599997907877 596
12.3799997903407 552
12.3999997898936 596
12.4199997894466 569
12.4399997889996 616
12.4599997885525 594
12.4799997881055 597
12.4999997876585 561
12.5199997872114 573
12.5399997867644 627
12.5599997863173 602
12.5799997858703 591
12.5999997854233 599
12.6199997849762 603
12.6399997845292 576
12.6599997840822 609
12.6799997836351 580
12.6999997831881 587
12.7199997827411 607
12.739999782294 597
12.759999781847 598
12.7799997814 577
12.7999997809529 610
12.8199997805059 604
12.8399997800589 612
12.8599997796118 594
12.8799997791648 628
12.8999997787178 609
12.9199997782707 588
12.9399997778237 634
12.9599997773767 568
12.9799997769296 593
12.9999997764826 601
13.0199997760355 638
13.0399997755885 619
13.0599997751415 581
13.0799997746944 601
13.0999997742474 591
13.1199997738004 606
13.1399997733533 615
13.1599997729063 595
13.1799997724593 616
13.1999997720122 597
13.2199997715652 664
13.2399997711182 618
13.2599997706711 642
13.2799997702241 660
13.2999997697771 595
13.31999976933 621
13.339999768883 601
13.359999768436 648
13.3799997679889 606
13.3999997675419 617
13.4199997670949 660
13.4399997666478 584
13.4599997662008 612
13.4799997657537 639
13.4999997653067 652
13.5199997648597 612
13.5399997644126 628
13.5599997639656 570
13.5799997635186 635
13.5999997630715 638
13.6199997626245 633
13.6399997621775 618
13.6599997617304 622
13.6799997612834 617
13.6999997608364 576
13.7199997603893 622
13.7399997599423 591
13.7599997594953 661
13.7799997590482 642
13.7999997586012 644
13.8199997581542 595
13.8399997577071 594
13.8599997572601 610
13.879999756813 623
13.899999756366 600
13.919999755919 596
13.9399997554719 632
13.9599997550249 597
13.9799997545779 624
13.9999997541308 630
14.0199997536838 624
14.0399997532368 638
14.0599997527897 604
14.0799997523427 622
14.0999997518957 615
14.1199997514486 666
14.1399997510016 659
14.1599997505546 665
14.1799997501075 625
14.1999997496605 646
14.2199997492135 613
14.2399997487664 657
14.2599997483194 643
14.2799997478724 688
14.2999997474253 666
14.3199997469783 662
14.3399997465312 663
14.3599997460842 656
14.3799997456372 658
14.3999997451901 640
14.4199997447431 642
14.4399997442961 640
14.459999743849 628
14.479999743402 665
14.499999742955 659
14.5199997425079 668
14.5399997420609 665
14.5599997416139 635
14.5799997411668 643
14.5999997407198 655
14.6199997402728 700
14.6399997398257 640
14.6599997393787 661
14.6799997389317 695
14.6999997384846 659
14.7199997380376 657
14.7399997375906 661
14.7599997371435 677
14.7799997366965 667
14.7999997362494 680
14.8199997358024 711
14.8399997353554 647
14.8599997349083 630
14.8799997344613 693
14.8999997340143 660
14.9199997335672 656
14.9399997331202 683
14.9599997326732 652
14.9799997322261 655
14.9999997317791 677
15.0199997313321 654
15.039999730885 651
15.059999730438 630
15.079999729991 643
15.0999997295439 691
15.1199997290969 689
15.1399997286499 688
15.1599997282028 665
15.1799997277558 674
15.1999997273088 717
15.2199997268617 704
15.2399997264147 731
15.2599997259676 664
15.2799997255206 699
15.2999997250736 761
15.3199997246265 677
15.3399997241795 722
15.3599997237325 718
15.3799997232854 725
15.3999997228384 715
15.4199997223914 724
15.4399997219443 736
15.4599997214973 739
15.4799997210503 742
15.4999997206032 722
15.5199997201562 699
15.5399997197092 721
15.5599997192621 744
15.5799997188151 734
15.5999997183681 710
15.619999717921 752
15.639999717474 687
15.659999717027 698
15.6799997165799 739
15.6999997161329 755
15.7199997156858 710
15.7399997152388 739
15.7599997147918 759
15.7799997143447 778
15.7999997138977 717
15.8199997134507 772
15.8399997130036 734
15.8599997125566 767
15.8799997121096 753
15.8999997116625 730
15.9199997112155 709
15.9399997107685 743
15.9599997103214 777
15.9799997098744 749
15.9999997094274 787
16.0199997089803 773
16.0399997085333 767
16.0599997080863 727
16.0799997076392 761
16.0999997071922 846
16.1199997067451 797
16.1399997062981 833
16.1599997058511 774
16.179999705404 769
16.199999704957 735
16.21999970451 787
16.2399997040629 789
16.2599997036159 829
16.2799997031689 790
16.2999997027218 803
16.3199997022748 783
16.3399997018278 820
16.3599997013807 823
16.3799997009337 755
16.3999997004867 807
16.4199997000396 815
16.4399996995926 788
16.4599996991456 863
16.4799996986985 801
16.4999996982515 809
16.5199996978045 829
16.5399996973574 778
16.5599996969104 788
16.5799996964633 738
16.5999996960163 849
16.6199996955693 841
16.6399996951222 823
16.6599996946752 816
16.6799996942282 892
16.6999996937811 885
16.7199996933341 845
16.7399996928871 857
16.75999969244 871
16.779999691993 889
16.799999691546 887
16.8199996910989 933
16.8399996906519 943
16.8599996902049 935
16.8799996897578 1024
16.8999996893108 1092
16.9199996888638 1099
16.9399996884167 1223
16.9599996879697 1284
16.9799996875226 1332
16.9999996870756 1476
17.0199996866286 1495
17.0399996861815 1501
17.0599996857345 1473
17.0799996852875 1457
17.0999996848404 1307
17.1199996843934 1181
17.1399996839464 1029
17.1599996834993 955
17.1799996830523 953
17.1999996826053 934
17.2199996821582 942
17.2399996817112 933
17.2599996812642 883
17.2799996808171 869
17.2999996803701 936
17.3199996799231 909
17.339999679476 941
17.359999679029 919
17.379999678582 852
17.3999996781349 950
17.4199996776879 954
17.4399996772408 892
17.4599996767938 874
17.4799996763468 932
17.4999996758997 919
17.5199996754527 896
17.5399996750057 908
17.5599996745586 883
17.5799996741116 912
17.5999996736646 881
17.6199996732175 943
17.6399996727705 895
17.6599996723235 926
17.6799996718764 909
17.6999996714294 889
17.7199996709824 936
17.7399996705353 916
17.7599996700883 947
17.7799996696413 937
17.7999996691942 913
17.8199996687472 874
17.8399996683002 983
17.8599996678531 992
17.8799996674061 934
17.899999666959 955
17.919999666512 1053
17.939999666065 1040
17.9599996656179 985
17.9799996651709 992
17.9999996647239 978
18.0199996642768 951
18.0399996638298 1016
18.0599996633828 938
18.0799996629357 1008
18.0999996624887 999
18.1199996620417 1000
18.1399996615946 944
18.1599996611476 1043
18.1799996607006 1019
18.1999996602535 1005
18.2199996598065 1002
18.2399996593595 1054
18.2599996589124 1010
18.2799996584654 1002
18.2999996580184 975
18.3199996575713 1018
18.3399996571243 1033
18.3599996566772 1037
18.3799996562302 1002
18.3999996557832 1015
18.4199996553361 966
18.4399996548891 1019
18.4599996544421 976
18.479999653995 1017
18.499999653548 1060
18.519999653101 1071
18.5399996526539 1014
18.5599996522069 1004
18.5799996517599 1045
18.5999996513128 1046
18.6199996508658 1052
18.6399996504188 1127
18.6599996499717 1100
18.6799996495247 1053
18.6999996490777 1102
18.7199996486306 1051
18.7399996481836 1078
18.7599996477366 1074
18.7799996472895 1062
18.7999996468425 1036
18.8199996463954 1119
18.8399996459484 1043
18.8599996455014 1124
18.8799996450543 1194
18.8999996446073 1130
18.9199996441603 1136
18.9399996437132 1153
18.9599996432662 1029
18.9799996428192 1102
18.9999996423721 1102
19.0199996419251 1055
19.0399996414781 1158
19.059999641031 1123
19.079999640584 1152
19.099999640137 1134
19.1199996396899 1093
19.1399996392429 1087
19.1599996387959 1118
19.1799996383488 1120
19.1999996379018 1189
19.2199996374547 1084
19.2399996370077 1150
19.2599996365607 1158
19.2799996361136 1153
19.2999996356666 1142
19.3199996352196 1141
19.3399996347725 1166
19.3599996343255 1175
19.3799996338785 1142
19.3999996334314 1189
19.4199996329844 1150
19.4399996325374 1178
19.4599996320903 1194
19.4799996316433 1190
19.4999996311963 1137
19.5199996307492 1187
19.5399996303022 1121
19.5599996298552 1236
19.5799996294081 1084
19.5999996289611 1177
19.6199996285141 1205
19.639999628067 1226
19.65999962762 1199
19.6799996271729 1181
19.6999996267259 1201
19.7199996262789 1223
19.7399996258318 1171
19.7599996253848 1190
19.7799996249378 1237
19.7999996244907 1284
19.8199996240437 1234
19.8399996235967 1214
19.8599996231496 1236
19.8799996227026 1207
19.8999996222556 1231
19.9199996218085 1258
19.9399996213615 1224
19.9599996209145 1284
19.9799996204674 1260
19.9999996200204 1244
