3 2341
3.01999999955297 2129
3.03999999910593 2068
3.0599999986589 1977
3.07999999821186 1803
3.09999999776483 1744
3.11999999731779 1736
3.13999999687076 1664
3.15999999642372 1637
3.17999999597669 1623
3.19999999552965 1582
3.21999999508262 1611
3.23999999463558 1641
3.25999999418855 1593
3.27999999374151 1597
3.29999999329448 1522
3.31999999284744 1567
3.33999999240041 1456
3.35999999195337 1468
3.37999999150634 1481
3.3999999910593 1453
3.41999999061227 1473
3.43999999016523 1450
3.4599999897182 1443
3.47999998927116 1347
3.49999998882413 1358
3.51999998837709 1306
3.53999998793006 1316
3.55999998748302 1303
3.57999998703599 1304
3.59999998658895 1296
3.61999998614192 1287
3.63999998569489 1327
3.65999998524785 1285
3.67999998480082 1294
3.69999998435378 1233
3.71999998390675 1183
3.73999998345971 1205
3.75999998301268 1215
3.77999998256564 1211
3.79999998211861 1172
3.81999998167157 1140
3.83999998122454 1165
3.8599999807775 1235
3.87999998033047 1222
3.89999997988343 1141
3.9199999794364 1109
3.93999997898936 1175
3.95999997854233 1138
3.97999997809529 1130
3.99999997764826 1101
4.01999997720122 1159
4.03999997675419 1076
4.05999997630715 1124
4.07999997586012 1057
4.09999997541308 1065
4.11999997496605 1088
4.13999997451901 1026
4.15999997407198 1094
4.17999997362494 1025
4.19999997317791 1040
4.21999997273087 1052
4.23999997228384 1049
4.25999997183681 1102
4.27999997138977 995
4.29999997094274 938
4.3199999704957 1035
4.33999997004867 990
4.35999996960163 938
4.3799999691546 983
4.39999996870756 959
4.41999996826053 1023
4.43999996781349 985
4.45999996736646 973
4.47999996691942 941
4.49999996647239 985
4.51999996602535 953
4.53999996557832 948
4.55999996513128 973
4.57999996468425 947
4.59999996423721 939
4.61999996379018 941
4.63999996334314 935
4.65999996289611 923
4.67999996244907 909
4.69999996200204 954
4.719999961555 896
4.73999996110797 872
4.75999996066093 956
4.7799999602139 882
4.79999995976686 924
4.81999995931983 872
4.83999995887279 890
4.85999995842576 856
4.87999995797873 839
4.89999995753169 912
4.91999995708466 881
4.93999995663762 858
4.95999995619059 893
4.97999995574355 903
4.99999995529652 871
5.01999995484948 915
5.03999995440245 902
5.05999995395541 832
5.07999995350838 882
5.09999995306134 874
5.11999995261431 870
5.13999995216727 846
5.15999995172024 826
5.1799999512732 794
5.19999995082617 839
5.21999995037913 839
5.2399999499321 871
5.25999994948506 794
5.27999994903803 892
5.29999994859099 821
5.31999994814396 793
5.33999994769692 800
5.35999994724989 831
5.37999994680285 868
5.39999994635582 810
5.41999994590878 800
5.43999994546175 823
5.45999994501471 802
5.47999994456768 761
5.49999994412065 788
5.51999994367361 897
5.53999994322658 829
5.55999994277954 842
5.57999994233251 826
5.59999994188547 790
5.61999994143844 818
5.6399999409914 838
5.65999994054437 844
5.67999994009733 870
5.6999999396503 849
5.71999993920326 813
5.73999993875623 782
5.75999993830919 843
5.77999993786216 833
5.79999993741512 822
5.81999993696809 791
5.83999993652105 855
5.85999993607402 805
5.87999993562698 766
5.89999993517995 773
5.91999993473291 832
5.93999993428588 804
5.95999993383884 821
5.97999993339181 810
5.99999993294477 784
6.01999993249774 788
6.0399999320507 796
6.05999993160367 794
6.07999993115663 772
6.0999999307096 801
6.11999993026257 805
6.13999992981553 803
6.1599999293685 777
6.17999992892146 783
6.19999992847443 854
6.21999992802739 850
6.23999992758036 804
6.25999992713332 859
6.27999992668629 825
6.29999992623925 837
6.31999992579222 835
6.33999992534518 738
6.35999992489815 805
6.37999992445111 781
6.39999992400408 798
6.41999992355704 844
6.43999992311001 789
6.45999992266297 811
6.47999992221594 792
6.4999999217689 809
6.51999992132187 819
6.53999992087483 830
6.5599999204278 831
6.57999991998076 801
6.59999991953373 843
6.61999991908669 828
6.63999991863966 831
6.65999991819262 769
6.67999991774559 782
6.69999991729855 762
6.71999991685152 782
6.73999991640449 777
6.75999991595745 813
6.77999991551042 815
6.79999991506338 777
6.81999991461635 767
6.83999991416931 803
6.85999991372228 779
6.87999991327524 799
6.89999991282821 766
6.91999991238117 844
6.93999991193414 810
6.9599999114871 796
6.97999991104007 803
6.99999991059303 829
7.019999910146 783
7.03999990969896 858
7.05999990925193 801
7.07999990880489 798
7.09999990835786 817
7.11999990791082 820
7.13999990746379 783
7.15999990701675 784
7.17999990656972 839
7.19999990612268 793
7.21999990567565 782
7.23999990522861 753
7.25999990478158 800
7.27999990433454 773
7.29999990388751 775
7.31999990344047 759
7.33999990299344 734
7.35999990254641 764
7.37999990209937 794
7.39999990165234 821
7.4199999012053 848
7.43999990075827 797
7.45999990031123 798
7.4799998998642 785
7.49999989941716 789
7.51999989897013 797
7.53999989852309 859
7.55999989807606 776
7.57999989762902 813
7.59999989718199 818
7.61999989673495 785
7.63999989628792 731
7.65999989584088 814
7.67999989539385 797
7.69999989494681 804
7.71999989449978 745
7.73999989405274 789
7.75999989360571 777
7.77999989315867 751
7.79999989271164 786
7.8199998922646 764
7.83999989181757 814
7.85999989137053 798
7.8799998909235 784
7.89999989047646 791
7.91999989002943 790
7.9399998895824 740
7.95999988913536 770
7.97999988868833 837
7.99999988824129 764
8.01999988779426 797
8.03999988734722 789
8.05999988690019 780
8.07999988645315 760
8.09999988600612 750
8.11999988555908 742
8.13999988511205 805
8.15999988466501 760
8.17999988421798 787
8.19999988377094 772
8.21999988332391 799
8.23999988287687 777
8.25999988242984 768
8.2799998819828 784
8.29999988153577 782
8.31999988108873 782
8.3399998806417 765
8.35999988019466 788
8.37999987974763 795
8.39999987930059 767
8.41999987885356 755
8.43999987840652 764
8.45999987795949 778
8.47999987751245 796
8.49999987706542 769
8.51999987661839 769
8.53999987617135 790
8.55999987572432 786
8.57999987527728 784
8.59999987483025 800
8.61999987438321 760
8.63999987393618 796
8.65999987348914 772
8.67999987304211 797
8.69999987259507 789
8.71999987214804 762
8.739999871701 749
8.75999987125397 802
8.77999987080693 785
8.7999998703599 760
8.81999986991286 734
8.83999986946583 719
8.85999986901879 781
8.87999986857176 732
8.89999986812472 765
8.91999986767769 724
8.93999986723065 751
8.95999986678362 746
8.97999986633658 813
8.99999986588955 803
9.01999986544251 756
9.03999986499548 740
9.05999986454844 821
9.07999986410141 785
9.09999986365438 828
9.11999986320734 750
9.13999986276031 754
9.15999986231327 741
9.17999986186624 778
9.1999998614192 798
9.21999986097217 799
9.23999986052513 764
9.2599998600781 778
9.27999985963106 807
9.29999985918403 762
9.31999985873699 786
9.33999985828996 762
9.35999985784292 788
9.37999985739589 781
9.39999985694885 736
9.41999985650182 753
9.43999985605478 748
9.45999985560775 774
9.47999985516071 786
9.49999985471368 793
9.51999985426664 770
9.53999985381961 787
9.55999985337257 743
9.57999985292554 754
9.5999998524785 737
9.61999985203147 766
9.63999985158443 759
9.6599998511374 778
9.67999985069037 770
9.69999985024333 775
9.7199998497963 788
9.73999984934926 754
9.75999984890223 785
9.77999984845519 780
9.79999984800816 773
9.81999984756112 718
9.83999984711409 768
9.85999984666705 781
9.87999984622002 790
9.89999984577298 776
9.91999984532595 762
9.93999984487891 724
9.95999984443188 771
9.97999984398484 742
9.99999984353781 782
10.0199998430908 758
10.0399998426437 743
10.0599998421967 750
10.0799998417497 806
10.0999998413026 712
10.1199998408556 784
10.1399998404086 753
10.1599998399615 701
10.1799998395145 774
10.1999998390675 778
10.2199998386204 753
10.2399998381734 755
10.2599998377264 769
10.2799998372793 832
10.2999998368323 781
10.3199998363853 774
10.3399998359382 770
10.3599998354912 761
10.3799998350441 753
10.3999998345971 745
10.4199998341501 740
10.439999833703 774
10.459999833256 770
10.479999832809 756
10.4999998323619 753
10.5199998319149 773
10.5399998314679 756
10.5599998310208 718
10.5799998305738 784
10.5999998301268 730
10.6199998296797 770
10.6399998292327 753
10.6599998287857 755
10.6799998283386 795
10.6999998278916 730
10.7199998274446 784
10.7399998269975 782
10.7599998265505 784
10.7799998261034 766
10.7999998256564 758
10.8199998252094 796
10.8399998247623 731
10.8599998243153 775
10.8799998238683 788
10.8999998234212 768
10.9199998229742 795
10.9399998225272 720
10.9599998220801 743
10.9799998216331 781
10.9999998211861 774
11.019999820739 703
11.039999820292 731
11.059999819845 772
11.0799998193979 711
11.0999998189509 752
11.1199998185039 764
11.1399998180568 769
11.1599998176098 761
11.1799998171628 771
11.1999998167157 773
11.2199998162687 768
11.2399998158216 779
11.2599998153746 778
11.2799998149276 738
11.2999998144805 777
11.3199998140335 730
11.3399998135865 797
11.3599998131394 740
11.3799998126924 791
11.3999998122454 779
11.4199998117983 755
11.4399998113513 788
11.4599998109043 822
11.4799998104572 765
11.4999998100102 805
11.5199998095632 734
11.5399998091161 770
11.5599998086691 739
11.5799998082221 797
11.599999807775 766
11.619999807328 813
11.639999806881 829
11.6599998064339 800
11.6799998059869 786
11.6999998055398 832
11.7199998050928 745
11.7399998046458 790
11.7599998041987 759
11.7799998037517 798
11.7999998033047 772
11.8199998028576 768
11.8399998024106 798
11.8599998019636 816
11.8799998015165 838
11.8999998010695 807
11.9199998006225 803
11.9399998001754 753
11.9599997997284 784
11.9799997992814 782
11.9999997988343 781
12.0199997983873 796
12.0399997979403 813
12.0599997974932 807
12.0799997970462 734
12.0999997965992 807
12.1199997961521 789
12.1399997957051 759
12.159999795258 784
12.179999794811 806
12.199999794364 760
12.2199997939169 769
12.2399997934699 755
12.2599997930229 760
12.2799997925758 828
12.2999997921288 809
12.3199997916818 787
12.3399997912347 815
12.3599997907877 785
12.3799997903407 798
12.3999997898936 797
12.4199997894466 850
12.4399997889996 818
12.4599997885525 861
12.4799997881055 813
12.4999997876585 840
12.5199997872114 819
12.5399997867644 770
12.5599997863173 813
12.5799997858703 792
12.5999997854233 794
12.6199997849762 850
12.6399997845292 810
12.6599997840822 869
12.6799997836351 889
12.6999997831881 809
12.7199997827411 821
12.739999782294 843
12.759999781847 845
12.7799997814 844
12.7999997809529 829
12.8199997805059 867
12.8399997800589 831
12.8599997796118 854
12.8799997791648 840
12.8999997787178 829
12.9199997782707 826
12.9399997778237 820
12.9599997773767 839
12.9799997769296 833
12.9999997764826 830
13.0199997760355 879
13.0399997755885 818
13.0599997751415 858
13.0799997746944 846
13.0999997742474 875
13.1199997738004 846
13.1399997733533 821
13.1599997729063 804
13.1799997724593 884
13.1999997720122 852
13.2199997715652 849
13.2399997711182 854
13.2599997706711 832
13.2799997702241 943
13.2999997697771 882
13.31999976933 877
13.339999768883 919
13.359999768436 877
13.3799997679889 872
13.3999997675419 887
13.4199997670949 878
13.4399997666478 905
13.4599997662008 848
13.4799997657537 842
13.4999997653067 896
13.5199997648597 861
13.5399997644126 859
13.5599997639656 903
13.5799997635186 849
13.5999997630715 846
13.6199997626245 874
13.6399997621775 892
13.6599997617304 882
13.6799997612834 888
13.6999997608364 857
13.7199997603893 874
13.7399997599423 901
13.7599997594953 908
13.7799997590482 914
13.7999997586012 909
13.8199997581542 911
13.8399997577071 901
13.8599997572601 874
13.879999756813 897
13.899999756366 903
13.919999755919 832
13.9399997554719 853
13.9599997550249 852
13.9799997545779 902
13.9999997541308 925
14.0199997536838 908
14.0399997532368 888
14.0599997527897 956
14.0799997523427 903
14.0999997518957 901
14.1199997514486 912
14.1399997510016 912
14.1599997505546 887
14.1799997501075 905
14.1999997496605 919
14.2199997492135 940
14.2399997487664 934
14.2599997483194 972
14.2799997478724 940
14.2999997474253 917
14.3199997469783 892
14.3399997465312 918
14.3599997460842 966
14.3799997456372 976
14.3999997451901 897
14.4199997447431 938
14.4399997442961 929
14.459999743849 861
14.479999743402 905
14.499999742955 927
14.5199997425079 958
14.5399997420609 985
14.5599997416139 962
14.5799997411668 974
14.5999997407198 959
14.6199997402728 944
14.6399997398257 921
14.6599997393787 970
14.6799997389317 920
14.6999997384846 1019
14.7199997380376 1062
14.7399997375906 970
14.7599997371435 966
14.7799997366965 976
14.7999997362494 946
14.8199997358024 966
14.8399997353554 923
14.8599997349083 951
14.8799997344613 993
14.8999997340143 1020
14.9199997335672 953
14.9399997331202 997
14.9599997326732 971
14.9799997322261 994
14.9999997317791 990
15.0199997313321 1019
15.039999730885 967
15.059999730438 1006
15.079999729991 999
15.0999997295439 1007
15.1199997290969 1032
15.1399997286499 1012
15.1599997282028 1004
15.1799997277558 993
15.1999997273088 994
15.2199997268617 992
15.2399997264147 1014
15.2599997259676 1007
15.2799997255206 1019
15.2999997250736 1057
15.3199997246265 1108
15.3399997241795 1060
15.3599997237325 1068
15.3799997232854 1106
15.3999997228384 1015
15.4199997223914 1091
15.4399997219443 1128
15.4599997214973 1025
15.4799997210503 1039
15.4999997206032 1117
15.5199997201562 1067
15.5399997197092 1124
15.5599997192621 1033
15.5799997188151 1039
15.5999997183681 1055
15.619999717921 1049
15.639999717474 1112
15.659999717027 1049
15.6799997165799 1084
15.6999997161329 1056
15.7199997156858 1180
15.7399997152388 1114
15.7599997147918 1119
15.7799997143447 1132
15.7999997138977 1140
15.8199997134507 1124
15.8399997130036 1125
15.8599997125566 1102
15.8799997121096 1131
15.8999997116625 1130
15.9199997112155 1146
15.9399997107685 1179
15.9599997103214 1149
15.9799997098744 1187
15.9999997094274 1199
16.0199997089803 1219
16.0399997085333 1175
16.0599997080863 1184
16.0799997076392 1146
16.0999997071922 1149
16.1199997067451 1186
16.1399997062981 1214
16.1599997058511 1208
16.179999705404 1209
16.199999704957 1150
16.21999970451 1171
16.2399997040629 1170
16.2599997036159 1174
16.2799997031689 1178
16.2999997027218 1221
16.3199997022748 1206
16.3399997018278 1147
16.3599997013807 1175
16.3799997009337 1217
16.3999997004867 1291
16.4199997000396 1262
16.4399996995926 1145
16.4599996991456 1225
16.4799996986985 1169
16.4999996982515 1275
16.5199996978045 1206
16.5399996973574 1192
16.5599996969104 1240
16.5799996964633 1338
16.5999996960163 1243
16.6199996955693 1290
16.6399996951222 1258
16.6599996946752 1227
16.6799996942282 1295
16.6999996937811 1328
16.7199996933341 1310
16.7399996928871 1340
16.75999969244 1319
16.779999691993 1368
16.799999691546 1407
16.8199996910989 1490
16.8399996906519 1411
16.8599996902049 1495
16.8799996897578 1535
16.8999996893108 1586
16.9199996888638 1684
16.9399996884167 1706
16.9599996879697 1865
16.9799996875226 2002
16.9999996870756 2116
17.0199996866286 2073
17.0399996861815 2117
17.0599996857345 2054
17.0799996852875 1957
17.0999996848404 1825
17.1199996843934 1737
17.1399996839464 1568
17.1599996834993 1514
17.1799996830523 1465
17.1999996826053 1483
17.2199996821582 1423
17.2399996817112 1380
17.2599996812642 1380
17.2799996808171 1422
17.2999996803701 1380
17.3199996799231 1426
17.339999679476 1476
17.359999679029 1423
17.379999678582 1463
17.3999996781349 1426
17.4199996776879 1485
17.4399996772408 1485
17.4599996767938 1430
17.4799996763468 1490
17.4999996758997 1419
17.5199996754527 1455
17.5399996750057 1456
17.5599996745586 1450
17.5799996741116 1415
17.5999996736646 1530
17.6199996732175 1450
17.6399996727705 1489
17.6599996723235 1528
17.6799996718764 1527
17.6999996714294 1512
17.7199996709824 1495
17.7399996705353 1531
17.7599996700883 1539
17.7799996696413 1551
17.7999996691942 1517
17.8199996687472 1527
17.8399996683002 1515
17.8599996678531 1572
17.8799996674061 1549
17.899999666959 1591
17.919999666512 1575
17.939999666065 1584
17.9599996656179 1553
17.9799996651709 1600
17.9999996647239 1521
18.0199996642768 1534
18.0399996638298 1521
18.0599996633828 1526
18.0799996629357 1644
18.0999996624887 1594
18.1199996620417 1591
18.1399996615946 1643
18.1599996611476 1663
18.1799996607006 1686
18.1999996602535 1752
18.2199996598065 1654
18.2399996593595 1661
18.2599996589124 1683
18.2799996584654 1698
18.2999996580184 1698
18.3199996575713 1656
18.3399996571243 1690
18.3599996566772 1700
18.3799996562302 1699
18.3999996557832 1692
18.4199996553361 1621
18.4399996548891 1688
18.4599996544421 1720
18.479999653995 1709
18.499999653548 1716
18.519999653101 1738
18.5399996526539 1682
18.5599996522069 1747
18.5799996517599 1742
18.5999996513128 1748
18.6199996508658 1728
18.6399996504188 1652
18.6599996499717 1797
18.6799996495247 1794
18.6999996490777 1825
18.7199996486306 1883
18.7399996481836 1801
18.7599996477366 1772
18.7799996472895 1806
18.7999996468425 1800
18.8199996463954 1845
18.8399996459484 1811
18.8599996455014 1864
18.8799996450543 1848
18.8999996446073 1862
18.9199996441603 1817
18.9399996437132 1776
18.9599996432662 1920
18.9799996428192 1779
18.9999996423721 1903
19.0199996419251 1835
19.0399996414781 1936
19.059999641031 1833
19.079999640584 1841
19.099999640137 1870
19.1199996396899 1944
19.1399996392429 1841
19.1599996387959 1893
19.1799996383488 1881
19.1999996379018 1895
19.2199996374547 1879
19.2399996370077 1850
19.2599996365607 2011
19.2799996361136 1937
19.2999996356666 1879
19.3199996352196 1960
19.3399996347725 2013
19.3599996343255 1952
19.3799996338785 2017
19.3999996334314 2002
19.4199996329844 1938
19.4399996325374 1980
19.4599996320903 1909
19.4799996316433 2020
19.4999996311963 2060
19.5199996307492 2056
19.5399996303022 2090
19.5599996298552 2022
19.5799996294081 1964
19.5999996289611 2088
19.6199996285141 2082
19.639999628067 2036
19.65999962762 2082
19.6799996271729 2056
19.6999996267259 2005
19.7199996262789 2100
19.7399996258318 2104
19.7599996253848 2159
19.7799996249378 2038
19.7999996244907 2137
19.8199996240437 2073
19.8399996235967 2083
19.8599996231496 2121
19.8799996227026 2141
19.8999996222556 2133
19.9199996218085 2152
19.9399996213615 2185
19.9599996209145 2156
19.9799996204674 2129
19.9999996200204 2201
