3 2481
3.01999999955297 2293
3.03999999910593 2226
3.0599999986589 2098
3.07999999821186 1967
3.09999999776483 1851
3.11999999731779 1893
3.13999999687076 1841
3.15999999642372 1828
3.17999999597669 1740
3.19999999552965 1800
3.21999999508262 1772
3.23999999463558 1797
3.25999999418855 1806
3.27999999374151 1729
3.29999999329448 1690
3.31999999284744 1781
3.33999999240041 1698
3.35999999195337 1629
3.37999999150634 1632
3.3999999910593 1593
3.41999999061227 1699
3.43999999016523 1707
3.4599999897182 1650
3.47999998927116 1616
3.49999998882413 1642
3.51999998837709 1716
3.53999998793006 1593
3.55999998748302 1619
3.57999998703599 1598
3.59999998658895 1615
3.61999998614192 1729
3.63999998569489 1615
3.65999998524785 1646
3.67999998480082 1671
3.69999998435378 1553
3.71999998390675 1652
3.73999998345971 1618
3.75999998301268 1654
3.77999998256564 1704
3.79999998211861 1757
3.81999998167157 1688
3.83999998122454 1747
3.8599999807775 1616
3.87999998033047 1720
3.89999997988343 1748
3.9199999794364 1789
3.93999997898936 1818
3.95999997854233 1854
3.97999997809529 1860
3.99999997764826 1957
4.01999997720122 2013
4.03999997675419 2080
4.05999997630715 2153
4.07999997586012 2177
4.09999997541308 2246
4.11999997496605 2188
4.13999997451901 2045
4.15999997407198 1915
4.17999997362494 1736
4.19999997317791 1632
4.21999997273087 1456
4.23999997228384 1474
4.25999997183681 1447
4.27999997138977 1418
4.29999997094274 1389
4.3199999704957 1326
4.33999997004867 1328
4.35999996960163 1340
4.3799999691546 1349
4.39999996870756 1412
4.41999996826053 1381
4.43999996781349 1303
4.45999996736646 1321
4.47999996691942 1384
4.49999996647239 1307
4.51999996602535 1392
4.53999996557832 1280
4.55999996513128 1355
4.57999996468425 1403
4.59999996423721 1415
4.61999996379018 1361
4.63999996334314 1381
4.65999996289611 1366
4.67999996244907 1385
4.69999996200204 1456
4.719999961555 1423
4.73999996110797 1464
4.75999996066093 1479
4.7799999602139 1457
4.79999995976686 1509
4.81999995931983 1474
4.83999995887279 1533
4.85999995842576 1469
4.87999995797873 1595
4.89999995753169 1584
4.91999995708466 1664
4.93999995663762 1699
4.95999995619059 1764
4.97999995574355 1780
4.99999995529652 1762
5.01999995484948 1822
5.03999995440245 1978
5.05999995395541 1929
5.07999995350838 2016
5.09999995306134 2049
5.11999995261431 2128
5.13999995216727 2235
5.15999995172024 2337
5.1799999512732 2482
5.19999995082617 2587
5.21999995037913 2713
5.2399999499321 2859
5.25999994948506 2947
5.27999994903803 3083
5.29999994859099 3348
5.31999994814396 3638
5.33999994769692 4037
5.35999994724989 4475
5.37999994680285 5142
5.39999994635582 5528
5.41999994590878 5592
5.43999994546175 5027
5.45999994501471 4407
5.47999994456768 3951
5.49999994412065 3772
5.51999994367361 3734
5.53999994322658 3679
5.55999994277954 3817
5.57999994233251 4087
5.59999994188547 4321
5.61999994143844 4438
5.6399999409914 4753
5.65999994054437 5122
5.67999994009733 5719
5.6999999396503 6262
5.71999993920326 7371
5.73999993875623 8419
5.75999993830919 9244
5.77999993786216 8868
5.79999993741512 7202
5.81999993696809 5083
5.83999993652105 3474
5.85999993607402 2543
5.87999993562698 1921
5.89999993517995 1742
5.91999993473291 1552
5.93999993428588 1567
5.95999993383884 1438
5.97999993339181 1315
5.99999993294477 1277
6.01999993249774 1236
6.0399999320507 1259
6.05999993160367 1284
6.07999993115663 1206
6.0999999307096 1130
6.11999993026257 1237
6.13999992981553 1171
6.1599999293685 1147
6.17999992892146 1236
6.19999992847443 1225
6.21999992802739 1160
6.23999992758036 1120
6.25999992713332 1148
6.27999992668629 1135
6.29999992623925 1137
6.31999992579222 1121
6.33999992534518 1186
6.35999992489815 1151
6.37999992445111 1264
6.39999992400408 1234
6.41999992355704 1236
6.43999992311001 1235
6.45999992266297 1284
6.47999992221594 1286
6.4999999217689 1316
6.51999992132187 1316
6.53999992087483 1456
6.5599999204278 1439
6.57999991998076 1502
6.59999991953373 1654
6.61999991908669 1775
6.63999991863966 1735
6.65999991819262 1698
6.67999991774559 1637
6.69999991729855 1571
6.71999991685152 1600
6.73999991640449 1565
6.75999991595745 1513
6.77999991551042 1467
6.79999991506338 1332
6.81999991461635 1156
6.83999991416931 1146
6.85999991372228 1031
6.87999991327524 1053
6.89999991282821 934
6.91999991238117 934
6.93999991193414 942
6.9599999114871 969
6.97999991104007 967
6.99999991059303 913
7.019999910146 890
7.03999990969896 947
7.05999990925193 984
7.07999990880489 940
7.09999990835786 888
7.11999990791082 906
7.13999990746379 931
7.15999990701675 938
7.17999990656972 886
7.19999990612268 942
7.21999990567565 908
7.23999990522861 905
7.25999990478158 874
7.27999990433454 893
7.29999990388751 941
7.31999990344047 913
7.33999990299344 914
7.35999990254641 912
7.37999990209937 906
7.39999990165234 908
7.4199999012053 898
7.43999990075827 869
7.45999990031123 822
7.4799998998642 870
7.49999989941716 912
7.51999989897013 876
7.53999989852309 881
7.55999989807606 851
7.57999989762902 889
7.59999989718199 907
7.61999989673495 848
7.63999989628792 890
7.65999989584088 894
7.67999989539385 931
7.69999989494681 879
7.71999989449978 927
7.73999989405274 869
7.75999989360571 897
7.77999989315867 914
7.79999989271164 861
7.8199998922646 927
7.83999989181757 922
7.85999989137053 890
7.8799998909235 907
7.89999989047646 912
7.91999989002943 936
7.9399998895824 951
7.95999988913536 896
7.97999988868833 945
7.99999988824129 874
8.01999988779426 939
8.03999988734722 952
8.05999988690019 944
8.07999988645315 947
8.09999988600612 981
8.11999988555908 992
8.13999988511205 1002
8.15999988466501 949
8.17999988421798 939
8.19999988377094 941
8.21999988332391 901
8.23999988287687 874
8.25999988242984 881
8.2799998819828 847
8.29999988153577 840
8.31999988108873 861
8.3399998806417 856
8.35999988019466 846
8.37999987974763 884
8.39999987930059 877
8.41999987885356 896
8.43999987840652 910
8.45999987795949 909
8.47999987751245 846
8.49999987706542 861
8.51999987661839 823
8.53999987617135 872
8.55999987572432 833
8.57999987527728 906
8.59999987483025 837
8.61999987438321 883
8.63999987393618 890
8.65999987348914 831
8.67999987304211 855
8.69999987259507 820
8.71999987214804 864
8.739999871701 843
8.75999987125397 853
8.77999987080693 872
8.7999998703599 887
8.81999986991286 917
8.83999986946583 874
8.85999986901879 895
8.87999986857176 938
8.89999986812472 897
8.91999986767769 951
8.93999986723065 982
8.95999986678362 971
8.97999986633658 933
8.99999986588955 1038
9.01999986544251 1045
9.03999986499548 1060
9.05999986454844 1117
9.07999986410141 1151
9.09999986365438 1193
9.11999986320734 1185
9.13999986276031 1247
9.15999986231327 1287
9.17999986186624 1452
9.1999998614192 1486
9.21999986097217 1577
9.23999986052513 1749
9.2599998600781 1960
9.27999985963106 2179
9.29999985918403 2526
9.31999985873699 2908
9.33999985828996 2999
9.35999985784292 2596
9.37999985739589 1911
9.39999985694885 1472
9.41999985650182 1145
9.43999985605478 1069
9.45999985560775 1031
9.47999985516071 931
9.49999985471368 890
9.51999985426664 924
9.53999985381961 888
9.55999985337257 903
9.57999985292554 914
9.5999998524785 879
9.61999985203147 874
9.63999985158443 868
9.6599998511374 932
9.67999985069037 879
9.69999985024333 893
9.7199998497963 956
9.73999984934926 954
9.75999984890223 941
9.77999984845519 961
9.79999984800816 903
9.81999984756112 920
9.83999984711409 916
9.85999984666705 793
9.87999984622002 887
9.89999984577298 891
9.91999984532595 911
9.93999984487891 959
9.95999984443188 943
9.97999984398484 886
9.99999984353781 973
10.0199998430908 970
10.0399998426437 1017
10.0599998421967 1064
10.0799998417497 1096
10.0999998413026 1092
10.1199998408556 1147
10.1399998404086 1243
10.1599998399615 1263
10.1799998395145 1304
10.1999998390675 1239
10.2199998386204 1134
10.2399998381734 1023
10.2599998377264 974
10.2799998372793 944
10.2999998368323 928
10.3199998363853 892
10.3399998359382 841
10.3599998354912 831
10.3799998350441 919
10.3999998345971 877
10.4199998341501 888
10.439999833703 867
10.459999833256 923
10.479999832809 904
10.4999998323619 881
10.5199998319149 899
10.5399998314679 929
10.5599998310208 925
10.5799998305738 947
10.5999998301268 977
10.6199998296797 1021
10.6399998292327 1048
10.6599998287857 1046
10.6799998283386 1096
10.6999998278916 1141
10.7199998274446 1182
10.7399998269975 1301
10.7599998265505 1354
10.7799998261034 1384
10.7999998256564 1398
10.8199998252094 1337
10.8399998247623 1341
10.8599998243153 1424
10.8799998238683 1432
10.8999998234212 1549
10.9199998229742 1703
10.9399998225272 1806
10.9599998220801 1860
10.9799998216331 1835
10.9999998211861 1562
11.019999820739 1197
11.039999820292 1066
11.059999819845 952
11.0799998193979 897
11.0999998189509 954
11.1199998185039 881
11.1399998180568 911
11.1599998176098 872
11.1799998171628 825
11.1999998167157 894
11.2199998162687 890
11.2399998158216 858
11.2599998153746 880
11.2799998149276 860
11.2999998144805 936
11.3199998140335 960
11.3399998135865 989
11.3599998131394 1001
11.3799998126924 1008
11.3999998122454 1025
11.4199998117983 1097
11.4399998113513 1203
11.4599998109043 1240
11.4799998104572 1289
11.4999998100102 1224
11.5199998095632 1146
11.5399998091161 1070
11.5599998086691 1036
11.5799998082221 906
11.599999807775 892
11.619999807328 859
11.639999806881 851
11.6599998064339 844
11.6799998059869 840
11.6999998055398 867
11.7199998050928 886
11.7399998046458 858
11.7599998041987 824
11.7799998037517 846
11.7999998033047 803
11.8199998028576 790
11.8399998024106 782
11.8599998019636 827
11.8799998015165 770
11.8999998010695 828
11.9199998006225 819
11.9399998001754 849
11.9599997997284 841
11.9799997992814 819
11.9999997988343 844
12.0199997983873 846
12.0399997979403 863
12.0599997974932 870
12.0799997970462 943
12.0999997965992 873
12.1199997961521 891
12.1399997957051 940
12.159999795258 965
12.179999794811 1026
12.199999794364 991
12.2199997939169 975
12.2399997934699 998
12.2599997930229 902
12.2799997925758 918
12.2999997921288 885
12.3199997916818 864
12.3399997912347 858
12.3599997907877 859
12.3799997903407 828
12.3999997898936 849
12.4199997894466 846
12.4399997889996 832
12.4599997885525 828
12.4799997881055 863
12.4999997876585 806
12.5199997872114 793
12.5399997867644 771
12.5599997863173 854
12.5799997858703 813
12.5999997854233 871
12.6199997849762 853
12.6399997845292 755
12.6599997840822 844
12.6799997836351 803
12.6999997831881 794
12.7199997827411 841
12.739999782294 791
12.759999781847 772
12.7799997814 833
12.7999997809529 804
12.8199997805059 822
12.8399997800589 871
12.8599997796118 813
12.8799997791648 812
12.8999997787178 791
12.9199997782707 792
12.9399997778237 788
12.9599997773767 835
12.9799997769296 786
12.9999997764826 788
13.0199997760355 821
13.0399997755885 834
13.0599997751415 784
13.0799997746944 873
13.0999997742474 812
13.1199997738004 834
13.1399997733533 827
13.1599997729063 897
13.1799997724593 846
13.1999997720122 868
13.2199997715652 879
13.2399997711182 918
13.2599997706711 962
13.2799997702241 894
13.2999997697771 879
13.31999976933 883
13.339999768883 865
13.359999768436 838
13.3799997679889 840
13.3999997675419 842
13.4199997670949 868
13.4399997666478 932
13.4599997662008 898
13.4799997657537 903
13.4999997653067 894
13.5199997648597 801
13.5399997644126 801
13.5599997639656 850
13.5799997635186 832
13.5999997630715 816
13.6199997626245 803
13.6399997621775 862
13.6599997617304 856
13.6799997612834 841
13.6999997608364 809
13.7199997603893 831
13.7399997599423 816
13.7599997594953 863
13.7799997590482 818
13.7999997586012 824
13.8199997581542 808
13.8399997577071 814
13.8599997572601 832
13.879999756813 855
13.899999756366 847
13.919999755919 832
13.9399997554719 846
13.9599997550249 849
13.9799997545779 814
13.9999997541308 858
14.0199997536838 828
14.0399997532368 848
14.0599997527897 864
14.0799997523427 831
14.0999997518957 820
14.1199997514486 860
14.1399997510016 827
14.1599997505546 893
14.1799997501075 925
14.1999997496605 939
14.2199997492135 916
14.2399997487664 842
14.2599997483194 946
14.2799997478724 951
14.2999997474253 945
14.3199997469783 937
14.3399997465312 998
14.3599997460842 992
14.3799997456372 967
14.3999997451901 962
14.4199997447431 963
14.4399997442961 933
14.459999743849 882
14.479999743402 874
14.499999742955 874
14.5199997425079 877
14.5399997420609 918
14.5599997416139 904
14.5799997411668 846
14.5999997407198 878
14.6199997402728 896
14.6399997398257 876
14.6599997393787 901
14.6799997389317 879
14.6999997384846 892
14.7199997380376 919
14.7399997375906 914
14.7599997371435 976
14.7799997366965 944
14.7999997362494 969
14.8199997358024 939
14.8399997353554 963
14.8599997349083 947
14.8799997344613 902
14.8999997340143 906
14.9199997335672 961
14.9399997331202 856
14.9599997326732 911
14.9799997322261 914
14.9999997317791 930
15.0199997313321 880
15.039999730885 899
15.059999730438 924
15.079999729991 894
15.0999997295439 894
15.1199997290969 916
15.1399997286499 901
15.1599997282028 920
15.1799997277558 922
15.1999997273088 923
15.2199997268617 935
15.2399997264147 993
15.2599997259676 939
15.2799997255206 971
15.2999997250736 930
15.3199997246265 951
15.3399997241795 932
15.3599997237325 930
15.3799997232854 947
15.3999997228384 936
15.4199997223914 925
15.4399997219443 878
15.4599997214973 889
15.4799997210503 893
15.4999997206032 915
15.5199997201562 938
15.5399997197092 974
15.5599997192621 934
15.5799997188151 895
15.5999997183681 925
15.619999717921 927
15.639999717474 862
15.659999717027 914
15.6799997165799 957
15.6999997161329 930
15.7199997156858 964
15.7399997152388 910
15.7599997147918 911
15.7799997143447 940
15.7999997138977 1001
15.8199997134507 938
15.8399997130036 944
15.8599997125566 949
15.8799997121096 924
15.8999997116625 885
15.9199997112155 907
15.9399997107685 974
15.9599997103214 986
15.9799997098744 907
15.9999997094274 946
16.0199997089803 968
16.0399997085333 957
16.0599997080863 1016
16.0799997076392 1002
16.0999997071922 960
16.1199997067451 1032
16.1399997062981 1011
16.1599997058511 1047
16.179999705404 1030
16.199999704957 1045
16.21999970451 1028
16.2399997040629 1078
16.2599997036159 1117
16.2799997031689 1076
16.2999997027218 1031
16.3199997022748 1021
16.3399997018278 980
16.3599997013807 969
16.3799997009337 1063
16.3999997004867 967
16.4199997000396 973
16.4399996995926 1007
16.4599996991456 979
16.4799996986985 974
16.4999996982515 978
16.5199996978045 1011
16.5399996973574 1004
16.5599996969104 972
16.5799996964633 1019
16.5999996960163 1094
16.6199996955693 1004
16.6399996951222 1030
16.6599996946752 1032
16.6799996942282 1040
16.6999996937811 1039
16.7199996933341 1102
16.7399996928871 1058
16.75999969244 1006
16.779999691993 1010
16.799999691546 1051
16.8199996910989 1084
16.8399996906519 1079
16.8599996902049 1072
16.8799996897578 1117
16.8999996893108 1103
16.9199996888638 1157
16.9399996884167 1306
16.9599996879697 1409
16.9799996875226 1357
16.9999996870756 1307
17.0199996866286 1232
17.0399996861815 1163
17.0599996857345 1132
17.0799996852875 1126
17.0999996848404 1097
17.1199996843934 1079
17.1399996839464 1108
17.1599996834993 1130
17.1799996830523 1110
17.1999996826053 1131
17.2199996821582 1163
17.2399996817112 1149
17.2599996812642 1163
17.2799996808171 1171
17.2999996803701 1078
17.3199996799231 1090
17.339999679476 1140
17.359999679029 1083
17.379999678582 1096
17.3999996781349 1133
17.4199996776879 1127
17.4399996772408 1119
17.4599996767938 1115
17.4799996763468 1176
17.4999996758997 1149
17.5199996754527 1156
17.5399996750057 1155
17.5599996745586 1130
17.5799996741116 1132
17.5999996736646 1164
17.6199996732175 1116
17.6399996727705 1137
17.6599996723235 1155
17.6799996718764 1156
17.6999996714294 1162
17.7199996709824 1143
17.7399996705353 1180
17.7599996700883 1230
17.7799996696413 1207
17.7999996691942 1206
17.8199996687472 1179
17.8399996683002 1161
17.8599996678531 1215
17.8799996674061 1194
17.899999666959 1212
17.919999666512 1145
17.939999666065 1217
17.9599996656179 1152
17.9799996651709 1201
17.9999996647239 1241
18.0199996642768 1167
18.0399996638298 1198
18.0599996633828 1233
18.0799996629357 1145
18.0999996624887 1179
18.1199996620417 1185
18.1399996615946 1222
18.1599996611476 1245
18.1799996607006 1219
18.1999996602535 1258
18.2199996598065 1245
18.2399996593595 1214
18.2599996589124 1223
18.2799996584654 1255
18.2999996580184 1206
18.3199996575713 1211
18.3399996571243 1232
18.3599996566772 1217
18.3799996562302 1164
18.3999996557832 1263
18.4199996553361 1232
18.4399996548891 1289
18.4599996544421 1321
18.479999653995 1212
18.499999653548 1283
18.519999653101 1273
18.5399996526539 1236
18.5599996522069 1272
18.5799996517599 1244
18.5999996513128 1386
18.6199996508658 1262
18.6399996504188 1313
18.6599996499717 1360
18.6799996495247 1390
18.6999996490777 1308
18.7199996486306 1396
18.7399996481836 1337
18.7599996477366 1416
18.7799996472895 1381
18.7999996468425 1378
18.8199996463954 1403
18.8399996459484 1358
18.8599996455014 1341
18.8799996450543 1362
18.8999996446073 1365
18.9199996441603 1303
18.9399996437132 1296
18.9599996432662 1333
18.9799996428192 1383
18.9999996423721 1416
19.0199996419251 1463
19.0399996414781 1471
19.059999641031 1518
19.079999640584 1480
19.099999640137 1507
19.1199996396899 1571
19.1399996392429 1507
19.1599996387959 1483
19.1799996383488 1464
19.1999996379018 1439
19.2199996374547 1412
19.2399996370077 1406
19.2599996365607 1448
19.2799996361136 1375
19.2999996356666 1376
19.3199996352196 1425
19.3399996347725 1501
19.3599996343255 1505
19.3799996338785 1487
19.3999996334314 1499
19.4199996329844 1606
19.4399996325374 1547
19.4599996320903 1591
19.4799996316433 1623
19.4999996311963 1610
19.5199996307492 1565
19.5399996303022 1673
19.5599996298552 1622
19.5799996294081 1625
19.5999996289611 1637
19.6199996285141 1471
19.639999628067 1512
19.65999962762 1464
19.6799996271729 1479
19.6999996267259 1415
19.7199996262789 1462
19.7399996258318 1479
19.7599996253848 1440
19.7799996249378 1466
19.7999996244907 1463
19.8199996240437 1587
19.8399996235967 1627
19.8599996231496 1682
19.8799996227026 1544
19.8999996222556 1515
19.9199996218085 1512
19.9399996213615 1493
19.9599996209145 1434
19.9799996204674 1440
19.9999996200204 1429
