3 2647
3.01999999955297 2522
3.03999999910593 2465
3.0599999986589 2204
3.07999999821186 2194
3.09999999776483 2143
3.11999999731779 2041
3.13999999687076 1988
3.15999999642372 1923
3.17999999597669 1944
3.19999999552965 1865
3.21999999508262 1958
3.23999999463558 1820
3.25999999418855 1820
3.27999999374151 1724
3.29999999329448 1810
3.31999999284744 1792
3.33999999240041 1687
3.35999999195337 1725
3.37999999150634 1740
3.3999999910593 1627
3.41999999061227 1612
3.43999999016523 1539
3.4599999897182 1559
3.47999998927116 1596
3.49999998882413 1511
3.51999998837709 1528
3.53999998793006 1509
3.55999998748302 1535
3.57999998703599 1485
3.59999998658895 1458
3.61999998614192 1409
3.63999998569489 1406
3.65999998524785 1310
3.67999998480082 1383
3.69999998435378 1352
3.71999998390675 1308
3.73999998345971 1276
3.75999998301268 1272
3.77999998256564 1293
3.79999998211861 1292
3.81999998167157 1250
3.83999998122454 1205
3.8599999807775 1276
3.87999998033047 1227
3.89999997988343 1238
3.9199999794364 1244
3.93999997898936 1184
3.95999997854233 1154
3.97999997809529 1145
3.99999997764826 1143
4.01999997720122 1125
4.03999997675419 1147
4.05999997630715 1100
4.07999997586012 1114
4.09999997541308 1079
4.11999997496605 1032
4.13999997451901 1027
4.15999997407198 1021
4.17999997362494 1112
4.19999997317791 1033
4.21999997273087 968
4.23999997228384 941
4.25999997183681 1065
4.27999997138977 950
4.29999997094274 1023
4.3199999704957 962
4.33999997004867 1003
4.35999996960163 908
4.3799999691546 934
4.39999996870756 928
4.41999996826053 897
4.43999996781349 958
4.45999996736646 927
4.47999996691942 920
4.49999996647239 905
4.51999996602535 915
4.53999996557832 875
4.55999996513128 886
4.57999996468425 902
4.59999996423721 853
4.61999996379018 826
4.63999996334314 842
4.65999996289611 863
4.67999996244907 844
4.69999996200204 841
4.719999961555 802
4.73999996110797 790
4.75999996066093 832
4.7799999602139 756
4.79999995976686 796
4.81999995931983 819
4.83999995887279 788
4.85999995842576 791
4.87999995797873 779
4.89999995753169 758
4.91999995708466 753
4.93999995663762 747
4.95999995619059 717
4.97999995574355 729
4.99999995529652 733
5.01999995484948 702
5.03999995440245 757
5.05999995395541 760
5.07999995350838 714
5.09999995306134 783
5.11999995261431 707
5.13999995216727 703
5.15999995172024 707
5.1799999512732 711
5.19999995082617 724
5.21999995037913 706
5.2399999499321 740
5.25999994948506 738
5.27999994903803 715
5.29999994859099 652
5.31999994814396 694
5.33999994769692 677
5.35999994724989 689
5.37999994680285 708
5.39999994635582 718
5.41999994590878 704
5.43999994546175 693
5.45999994501471 692
5.47999994456768 704
5.49999994412065 719
5.51999994367361 628
5.53999994322658 656
5.55999994277954 706
5.57999994233251 667
5.59999994188547 672
5.61999994143844 687
5.6399999409914 681
5.65999994054437 620
5.67999994009733 678
5.6999999396503 687
5.71999993920326 697
5.73999993875623 654
5.75999993830919 669
5.77999993786216 683
5.79999993741512 659
5.81999993696809 668
5.83999993652105 646
5.85999993607402 638
5.87999993562698 644
5.89999993517995 664
5.91999993473291 675
5.93999993428588 620
5.95999993383884 628
5.97999993339181 616
5.99999993294477 628
6.01999993249774 598
6.0399999320507 620
6.05999993160367 594
6.07999993115663 642
6.0999999307096 658
6.11999993026257 660
6.13999992981553 642
6.1599999293685 600
6.17999992892146 590
6.19999992847443 626
6.21999992802739 637
6.23999992758036 616
6.25999992713332 618
6.27999992668629 648
6.29999992623925 600
6.31999992579222 600
6.33999992534518 601
6.35999992489815 610
6.37999992445111 627
6.39999992400408 592
6.41999992355704 585
6.43999992311001 590
6.45999992266297 661
6.47999992221594 610
6.4999999217689 582
6.51999992132187 616
6.53999992087483 639
6.5599999204278 656
6.57999991998076 638
6.59999991953373 635
6.61999991908669 623
6.63999991863966 597
6.65999991819262 610
6.67999991774559 617
6.69999991729855 596
6.71999991685152 583
6.73999991640449 596
6.75999991595745 610
6.77999991551042 604
6.79999991506338 659
6.81999991461635 613
6.83999991416931 632
6.85999991372228 587
6.87999991327524 567
6.89999991282821 653
6.91999991238117 594
6.93999991193414 631
6.9599999114871 606
6.97999991104007 602
6.99999991059303 579
7.019999910146 647
7.03999990969896 652
7.05999990925193 631
7.07999990880489 593
7.09999990835786 623
7.11999990791082 629
7.13999990746379 572
7.15999990701675 608
7.17999990656972 608
7.19999990612268 612
7.21999990567565 569
7.23999990522861 573
7.25999990478158 604
7.27999990433454 612
7.29999990388751 593
7.31999990344047 595
7.33999990299344 596
7.35999990254641 637
7.37999990209937 604
7.39999990165234 635
7.4199999012053 594
7.43999990075827 616
7.45999990031123 580
7.4799998998642 557
7.49999989941716 633
7.51999989897013 608
7.53999989852309 595
7.55999989807606 603
7.57999989762902 625
7.59999989718199 627
7.61999989673495 632
7.63999989628792 598
7.65999989584088 606
7.67999989539385 651
7.69999989494681 558
7.71999989449978 578
7.73999989405274 550
7.75999989360571 588
7.77999989315867 571
7.79999989271164 592
7.8199998922646 595
7.83999989181757 601
7.85999989137053 583
7.8799998909235 590
7.89999989047646 587
7.91999989002943 634
7.9399998895824 631
7.95999988913536 585
7.97999988868833 590
7.99999988824129 578
8.01999988779426 578
8.03999988734722 577
8.05999988690019 584
8.07999988645315 644
8.09999988600612 583
8.11999988555908 610
8.13999988511205 622
8.15999988466501 617
8.17999988421798 578
8.19999988377094 577
8.21999988332391 561
8.23999988287687 601
8.25999988242984 602
8.2799998819828 539
8.29999988153577 635
8.31999988108873 626
8.3399998806417 630
8.35999988019466 607
8.37999987974763 634
8.39999987930059 644
8.41999987885356 615
8.43999987840652 606
8.45999987795949 615
8.47999987751245 611
8.49999987706542 603
8.51999987661839 616
8.53999987617135 612
8.55999987572432 633
8.57999987527728 644
8.59999987483025 645
8.61999987438321 634
8.63999987393618 676
8.65999987348914 738
8.67999987304211 708
8.69999987259507 757
8.71999987214804 725
8.739999871701 773
8.75999987125397 806
8.77999987080693 811
8.7999998703599 833
8.81999986991286 955
8.83999986946583 987
8.85999986901879 1039
8.87999986857176 1164
8.89999986812472 1208
8.91999986767769 1278
8.93999986723065 1433
8.95999986678362 1400
8.97999986633658 1525
8.99999986588955 1406
9.01999986544251 1385
9.03999986499548 1292
9.05999986454844 1244
9.07999986410141 1159
9.09999986365438 1075
9.11999986320734 1029
9.13999986276031 1000
9.15999986231327 981
9.17999986186624 860
9.1999998614192 830
9.21999986097217 826
9.23999986052513 763
9.2599998600781 756
9.27999985963106 712
9.29999985918403 728
9.31999985873699 692
9.33999985828996 727
9.35999985784292 683
9.37999985739589 691
9.39999985694885 661
9.41999985650182 689
9.43999985605478 706
9.45999985560775 696
9.47999985516071 638
9.49999985471368 664
9.51999985426664 655
9.53999985381961 666
9.55999985337257 649
9.57999985292554 687
9.5999998524785 678
9.61999985203147 683
9.63999985158443 643
9.6599998511374 698
9.67999985069037 703
9.69999985024333 700
9.7199998497963 743
9.73999984934926 703
9.75999984890223 755
9.77999984845519 760
9.79999984800816 837
9.81999984756112 827
9.83999984711409 861
9.85999984666705 932
9.87999984622002 1006
9.89999984577298 1090
9.91999984532595 1125
9.93999984487891 1176
9.95999984443188 1137
9.97999984398484 1052
9.99999984353781 1112
10.0199998430908 1065
10.0399998426437 960
10.0599998421967 897
10.0799998417497 871
10.0999998413026 861
10.1199998408556 782
10.1399998404086 724
10.1599998399615 706
10.1799998395145 672
10.1999998390675 663
10.2199998386204 634
10.2399998381734 614
10.2599998377264 613
10.2799998372793 601
10.2999998368323 597
10.3199998363853 629
10.3399998359382 542
10.3599998354912 572
10.3799998350441 588
10.3999998345971 555
10.4199998341501 610
10.439999833703 573
10.459999833256 608
10.479999832809 593
10.4999998323619 588
10.5199998319149 590
10.5399998314679 576
10.5599998310208 575
10.5799998305738 583
10.5999998301268 606
10.6199998296797 604
10.6399998292327 556
10.6599998287857 552
10.6799998283386 589
10.6999998278916 615
10.7199998274446 572
10.7399998269975 592
10.7599998265505 565
10.7799998261034 592
10.7999998256564 533
10.8199998252094 575
10.8399998247623 590
10.8599998243153 561
10.8799998238683 579
10.8999998234212 595
10.9199998229742 581
10.9399998225272 603
10.9599998220801 537
10.9799998216331 578
10.9999998211861 611
11.019999820739 585
11.039999820292 575
11.059999819845 566
11.0799998193979 575
11.0999998189509 555
11.1199998185039 603
11.1399998180568 550
11.1599998176098 561
11.1799998171628 595
11.1999998167157 581
11.2199998162687 551
11.2399998158216 559
11.2599998153746 551
11.2799998149276 558
11.2999998144805 600
11.3199998140335 575
11.3399998135865 613
11.3599998131394 561
11.3799998126924 526
11.3999998122454 589
11.4199998117983 547
11.4399998113513 590
11.4599998109043 607
11.4799998104572 583
11.4999998100102 553
11.5199998095632 526
11.5399998091161 529
11.5599998086691 538
11.5799998082221 534
11.599999807775 554
11.619999807328 541
11.639999806881 546
11.6599998064339 563
11.6799998059869 597
11.6999998055398 562
11.7199998050928 523
11.7399998046458 605
11.7599998041987 585
11.7799998037517 553
11.7999998033047 551
11.8199998028576 551
11.8399998024106 510
11.8599998019636 571
11.8799998015165 556
11.8999998010695 583
11.9199998006225 597
11.9399998001754 551
11.9599997997284 560
11.9799997992814 552
11.9999997988343 555
12.0199997983873 589
12.0399997979403 582
12.0599997974932 619
12.0799997970462 566
12.0999997965992 536
12.1199997961521 569
12.1399997957051 565
12.159999795258 605
12.179999794811 543
12.199999794364 572
12.2199997939169 597
12.2399997934699 594
12.2599997930229 589
12.2799997925758 611
12.2999997921288 618
12.3199997916818 555
12.3399997912347 600
12.3599997907877 635
12.3799997903407 599
12.3999997898936 555
12.4199997894466 619
12.4399997889996 612
12.4599997885525 611
12.4799997881055 602
12.4999997876585 585
12.5199997872114 652
12.5399997867644 673
12.5599997863173 644
12.5799997858703 696
12.5999997854233 701
12.6199997849762 679
12.6399997845292 703
12.6599997840822 714
12.6799997836351 721
12.6999997831881 735
12.7199997827411 728
12.739999782294 739
12.759999781847 718
12.7799997814 732
12.7999997809529 695
12.8199997805059 681
12.8399997800589 630
12.8599997796118 659
12.8799997791648 662
12.8999997787178 692
12.9199997782707 638
12.9399997778237 636
12.9599997773767 585
12.9799997769296 601
12.9999997764826 659
13.0199997760355 642
13.0399997755885 677
13.0599997751415 622
13.0799997746944 578
13.0999997742474 633
13.1199997738004 613
13.1399997733533 685
13.1599997729063 664
13.1799997724593 714
13.1999997720122 697
13.2199997715652 693
13.2399997711182 666
13.2599997706711 658
13.2799997702241 657
13.2999997697771 753
13.31999976933 727
13.339999768883 739
13.359999768436 807
13.3799997679889 798
13.3999997675419 800
13.4199997670949 784
13.4399997666478 752
13.4599997662008 776
13.4799997657537 721
13.4999997653067 745
13.5199997648597 707
13.5399997644126 663
13.5599997639656 682
13.5799997635186 683
13.5999997630715 651
13.6199997626245 634
13.6399997621775 619
13.6599997617304 622
13.6799997612834 641
13.6999997608364 600
13.7199997603893 562
13.7399997599423 685
13.7599997594953 597
13.7799997590482 622
13.7999997586012 609
13.8199997581542 643
13.8399997577071 619
13.8599997572601 585
13.879999756813 569
13.899999756366 599
13.919999755919 612
13.9399997554719 667
13.9599997550249 625
13.9799997545779 642
13.9999997541308 657
14.0199997536838 664
14.0399997532368 626
14.0599997527897 631
14.0799997523427 650
14.0999997518957 639
14.1199997514486 612
14.1399997510016 626
14.1599997505546 677
14.1799997501075 678
14.1999997496605 631
14.2199997492135 646
14.2399997487664 648
14.2599997483194 656
14.2799997478724 679
14.2999997474253 688
14.3199997469783 636
14.3399997465312 650
14.3599997460842 632
14.3799997456372 672
14.3999997451901 669
14.4199997447431 686
14.4399997442961 669
14.459999743849 695
14.479999743402 672
14.499999742955 666
14.5199997425079 656
14.5399997420609 676
14.5599997416139 702
14.5799997411668 695
14.5999997407198 646
14.6199997402728 693
14.6399997398257 668
14.6599997393787 682
14.6799997389317 697
14.6999997384846 682
14.7199997380376 682
14.7399997375906 714
14.7599997371435 666
14.7799997366965 695
14.7999997362494 696
14.8199997358024 732
14.8399997353554 715
14.8599997349083 673
14.8799997344613 670
14.8999997340143 704
14.9199997335672 686
14.9399997331202 699
14.9599997326732 702
14.9799997322261 689
14.9999997317791 747
15.0199997313321 703
15.039999730885 667
15.059999730438 717
15.079999729991 680
15.0999997295439 702
15.1199997290969 701
15.1399997286499 733
15.1599997282028 717
15.1799997277558 772
15.1999997273088 717
15.2199997268617 721
15.2399997264147 733
15.2599997259676 715
15.2799997255206 695
15.2999997250736 704
15.3199997246265 708
15.3399997241795 738
15.3599997237325 752
15.3799997232854 740
15.3999997228384 744
15.4199997223914 704
15.4399997219443 711
15.4599997214973 776
15.4799997210503 767
15.4999997206032 711
15.5199997201562 739
15.5399997197092 747
15.5599997192621 746
15.5799997188151 734
15.5999997183681 768
15.619999717921 695
15.639999717474 720
15.659999717027 751
15.6799997165799 756
15.6999997161329 770
15.7199997156858 774
15.7399997152388 795
15.7599997147918 759
15.7799997143447 768
15.7999997138977 713
15.8199997134507 772
15.8399997130036 729
15.8599997125566 746
15.8799997121096 755
15.8999997116625 739
15.9199997112155 763
15.9399997107685 762
15.9599997103214 774
15.9799997098744 780
15.9999997094274 745
16.0199997089803 711
16.0399997085333 822
16.0599997080863 750
16.0799997076392 758
16.0999997071922 762
16.1199997067451 814
16.1399997062981 762
16.1599997058511 754
16.179999705404 763
16.199999704957 800
16.21999970451 775
16.2399997040629 827
16.2599997036159 862
16.2799997031689 847
16.2999997027218 765
16.3199997022748 757
16.3399997018278 848
16.3599997013807 803
16.3799997009337 818
16.3999997004867 821
16.4199997000396 818
16.4399996995926 843
16.4599996991456 809
16.4799996986985 836
16.4999996982515 842
16.5199996978045 818
16.5399996973574 809
16.5599996969104 853
16.5799996964633 854
16.5999996960163 879
16.6199996955693 878
16.6399996951222 868
16.6599996946752 901
16.6799996942282 886
16.6999996937811 894
16.7199996933341 914
16.7399996928871 942
16.75999969244 989
16.779999691993 939
16.799999691546 959
16.8199996910989 1018
16.8399996906519 1012
16.8599996902049 1113
16.8799996897578 1142
16.8999996893108 1201
16.9199996888638 1332
16.9399996884167 1420
16.9599996879697 1588
16.9799996875226 1621
16.9999996870756 1674
17.0199996866286 1707
17.0399996861815 1553
17.0599996857345 1571
17.0799996852875 1554
17.0999996848404 1377
17.1199996843934 1369
17.1399996839464 1281
17.1599996834993 1219
17.1799996830523 1102
17.1999996826053 1034
17.2199996821582 966
17.2399996817112 1039
17.2599996812642 1014
17.2799996808171 914
17.2999996803701 956
17.3199996799231 1020
17.339999679476 979
17.359999679029 958
17.379999678582 971
17.3999996781349 905
17.4199996776879 958
17.4399996772408 960
17.4599996767938 970
17.4799996763468 974
17.4999996758997 930
17.5199996754527 900
17.5399996750057 972
17.5599996745586 994
17.5799996741116 978
17.5999996736646 952
17.6199996732175 1007
17.6399996727705 979
17.6599996723235 961
17.6799996718764 968
17.6999996714294 1029
17.7199996709824 966
17.7399996705353 1070
17.7599996700883 1044
17.7799996696413 999
17.7999996691942 1011
17.8199996687472 1058
17.8399996683002 1012
17.8599996678531 1018
17.8799996674061 1050
17.899999666959 1037
17.919999666512 1051
17.939999666065 1007
17.9599996656179 987
17.9799996651709 1061
17.9999996647239 1059
18.0199996642768 1059
18.0399996638298 1046
18.0599996633828 1071
18.0799996629357 1035
18.0999996624887 1035
18.1199996620417 1015
18.1399996615946 1082
18.1599996611476 1052
18.1799996607006 1024
18.1999996602535 1093
18.2199996598065 1087
18.2399996593595 1122
18.2599996589124 1078
18.2799996584654 1100
18.2999996580184 1122
18.3199996575713 1101
18.3399996571243 1125
18.3599996566772 1097
18.3799996562302 1132
18.3999996557832 1101
18.4199996553361 1078
18.4399996548891 1179
18.4599996544421 1107
18.479999653995 1189
18.499999653548 1133
18.519999653101 1096
18.5399996526539 1140
18.5599996522069 1136
18.5799996517599 1119
18.5999996513128 1139
18.6199996508658 1142
18.6399996504188 1116
18.6599996499717 1179
18.6799996495247 1156
18.6999996490777 1172
18.7199996486306 1121
18.7399996481836 1194
18.7599996477366 1141
18.7799996472895 1238
18.7999996468425 1138
18.8199996463954 1170
18.8399996459484 1136
18.8599996455014 1184
18.8799996450543 1161
18.8999996446073 1219
18.9199996441603 1175
18.9399996437132 1215
18.9599996432662 1200
18.9799996428192 1233
18.9999996423721 1261
19.0199996419251 1240
19.0399996414781 1299
19.059999641031 1191
19.079999640584 1157
19.099999640137 1239
19.1199996396899 1237
19.1399996392429 1211
19.1599996387959 1272
19.1799996383488 1203
19.1999996379018 1199
19.2199996374547 1216
19.2399996370077 1282
19.2599996365607 1244
19.2799996361136 1230
19.2999996356666 1296
19.3199996352196 1239
19.3399996347725 1214
19.3599996343255 1189
19.3799996338785 1234
19.3999996334314 1228
19.4199996329844 1219
19.4399996325374 1239
19.4599996320903 1264
19.4799996316433 1255
19.4999996311963 1287
19.5199996307492 1263
19.5399996303022 1325
19.5599996298552 1311
19.5799996294081 1348
19.5999996289611 1298
19.6199996285141 1263
19.639999628067 1400
19.65999962762 1321
19.6799996271729 1352
19.6999996267259 1325
19.7199996262789 1348
19.7399996258318 1355
19.7599996253848 1340
19.7799996249378 1386
19.7999996244907 1428
19.8199996240437 1371
19.8399996235967 1477
19.8599996231496 1510
19.8799996227026 1461
19.8999996222556 1556
19.9199996218085 1511
19.9399996213615 1560
19.9599996209145 1499
19.9799996204674 1545
19.9999996200204 1529
