3 2262
3.01999999955297 2067
3.03999999910593 1963
3.0599999986589 1856
3.07999999821186 1796
3.09999999776483 1755
3.11999999731779 1805
3.13999999687076 1699
3.15999999642372 1606
3.17999999597669 1590
3.19999999552965 1610
3.21999999508262 1546
3.23999999463558 1585
3.25999999418855 1584
3.27999999374151 1624
3.29999999329448 1527
3.31999999284744 1511
3.33999999240041 1545
3.35999999195337 1451
3.37999999150634 1496
3.3999999910593 1509
3.41999999061227 1502
3.43999999016523 1523
3.4599999897182 1435
3.47999998927116 1374
3.49999998882413 1435
3.51999998837709 1428
3.53999998793006 1354
3.55999998748302 1472
3.57999998703599 1544
3.59999998658895 1455
3.61999998614192 1397
3.63999998569489 1443
3.65999998524785 1411
3.67999998480082 1404
3.69999998435378 1430
3.71999998390675 1431
3.73999998345971 1432
3.75999998301268 1445
3.77999998256564 1415
3.79999998211861 1395
3.81999998167157 1391
3.83999998122454 1459
3.8599999807775 1371
3.87999998033047 1421
3.89999997988343 1474
3.9199999794364 1416
3.93999997898936 1418
3.95999997854233 1456
3.97999997809529 1533
3.99999997764826 1396
4.01999997720122 1494
4.03999997675419 1416
4.05999997630715 1424
4.07999997586012 1536
4.09999997541308 1488
4.11999997496605 1474
4.13999997451901 1626
4.15999997407198 1625
4.17999997362494 1545
4.19999997317791 1530
4.21999997273087 1540
4.23999997228384 1475
4.25999997183681 1530
4.27999997138977 1522
4.29999997094274 1473
4.3199999704957 1420
4.33999997004867 1468
4.35999996960163 1506
4.3799999691546 1625
4.39999996870756 1521
4.41999996826053 1512
4.43999996781349 1532
4.45999996736646 1563
4.47999996691942 1546
4.49999996647239 1509
4.51999996602535 1484
4.53999996557832 1547
4.55999996513128 1555
4.57999996468425 1580
4.59999996423721 1539
4.61999996379018 1561
4.63999996334314 1544
4.65999996289611 1559
4.67999996244907 1591
4.69999996200204 1639
4.719999961555 1643
4.73999996110797 1619
4.75999996066093 1679
4.7799999602139 1593
4.79999995976686 1619
4.81999995931983 1628
4.83999995887279 1611
4.85999995842576 1611
4.87999995797873 1637
4.89999995753169 1629
4.91999995708466 1649
4.93999995663762 1602
4.95999995619059 1667
4.97999995574355 1699
4.99999995529652 1655
5.01999995484948 1674
5.03999995440245 1643
5.05999995395541 1578
5.07999995350838 1655
5.09999995306134 1632
5.11999995261431 1648
5.13999995216727 1700
5.15999995172024 1727
5.1799999512732 1681
5.19999995082617 1680
5.21999995037913 1697
5.2399999499321 1711
5.25999994948506 1697
5.27999994903803 1637
5.29999994859099 1703
5.31999994814396 1776
5.33999994769692 1690
5.35999994724989 1744
5.37999994680285 1814
5.39999994635582 1786
5.41999994590878 1904
5.43999994546175 1920
5.45999994501471 2014
5.47999994456768 1982
5.49999994412065 1800
5.51999994367361 1672
5.53999994322658 1623
5.55999994277954 1662
5.57999994233251 1702
5.59999994188547 1667
5.61999994143844 1657
5.6399999409914 1729
5.65999994054437 1700
5.67999994009733 1718
5.6999999396503 1787
5.71999993920326 1846
5.73999993875623 1910
5.75999993830919 2019
5.77999993786216 2185
5.79999993741512 2441
5.81999993696809 2595
5.83999993652105 2422
5.85999993607402 1917
5.87999993562698 1494
5.89999993517995 1261
5.91999993473291 1183
5.93999993428588 1215
5.95999993383884 1222
5.97999993339181 1139
5.99999993294477 1204
6.01999993249774 1094
6.0399999320507 1139
6.05999993160367 1070
6.07999993115663 1127
6.0999999307096 1109
6.11999993026257 1075
6.13999992981553 1057
6.1599999293685 1109
6.17999992892146 1128
6.19999992847443 1041
6.21999992802739 1049
6.23999992758036 1027
6.25999992713332 1007
6.27999992668629 1002
6.29999992623925 998
6.31999992579222 972
6.33999992534518 970
6.35999992489815 1009
6.37999992445111 945
6.39999992400408 968
6.41999992355704 978
6.43999992311001 985
6.45999992266297 977
6.47999992221594 914
6.4999999217689 945
6.51999992132187 957
6.53999992087483 964
6.5599999204278 918
6.57999991998076 972
6.59999991953373 973
6.61999991908669 982
6.63999991863966 1006
6.65999991819262 1086
6.67999991774559 1079
6.69999991729855 1035
6.71999991685152 1018
6.73999991640449 892
6.75999991595745 949
6.77999991551042 899
6.79999991506338 967
6.81999991461635 943
6.83999991416931 936
6.85999991372228 915
6.87999991327524 878
6.89999991282821 814
6.91999991238117 879
6.93999991193414 846
6.9599999114871 813
6.97999991104007 796
6.99999991059303 796
7.019999910146 816
7.03999990969896 831
7.05999990925193 827
7.07999990880489 808
7.09999990835786 800
7.11999990791082 806
7.13999990746379 744
7.15999990701675 806
7.17999990656972 796
7.19999990612268 792
7.21999990567565 735
7.23999990522861 795
7.25999990478158 747
7.27999990433454 741
7.29999990388751 750
7.31999990344047 807
7.33999990299344 758
7.35999990254641 776
7.37999990209937 737
7.39999990165234 774
7.4199999012053 738
7.43999990075827 761
7.45999990031123 792
7.4799998998642 782
7.49999989941716 772
7.51999989897013 783
7.53999989852309 721
7.55999989807606 747
7.57999989762902 752
7.59999989718199 765
7.61999989673495 757
7.63999989628792 810
7.65999989584088 764
7.67999989539385 731
7.69999989494681 740
7.71999989449978 774
7.73999989405274 741
7.75999989360571 690
7.77999989315867 718
7.79999989271164 784
7.8199998922646 729
7.83999989181757 710
7.85999989137053 736
7.8799998909235 687
7.89999989047646 782
7.91999989002943 756
7.9399998895824 751
7.95999988913536 755
7.97999988868833 750
7.99999988824129 700
8.01999988779426 750
8.03999988734722 752
8.05999988690019 730
8.07999988645315 761
8.09999988600612 766
8.11999988555908 756
8.13999988511205 823
8.15999988466501 765
8.17999988421798 747
8.19999988377094 743
8.21999988332391 746
8.23999988287687 755
8.25999988242984 746
8.2799998819828 743
8.29999988153577 721
8.31999988108873 742
8.3399998806417 704
8.35999988019466 756
8.37999987974763 736
8.39999987930059 734
8.41999987885356 735
8.43999987840652 751
8.45999987795949 676
8.47999987751245 732
8.49999987706542 728
8.51999987661839 754
8.53999987617135 708
8.55999987572432 750
8.57999987527728 698
8.59999987483025 812
8.61999987438321 749
8.63999987393618 705
8.65999987348914 732
8.67999987304211 681
8.69999987259507 694
8.71999987214804 745
8.739999871701 748
8.75999987125397 764
8.77999987080693 746
8.7999998703599 691
8.81999986991286 726
8.83999986946583 722
8.85999986901879 703
8.87999986857176 721
8.89999986812472 721
8.91999986767769 737
8.93999986723065 703
8.95999986678362 789
8.97999986633658 762
8.99999986588955 796
9.01999986544251 758
9.03999986499548 723
9.05999986454844 708
9.07999986410141 774
9.09999986365438 776
9.11999986320734 811
9.13999986276031 806
9.15999986231327 784
9.17999986186624 804
9.1999998614192 814
9.21999986097217 792
9.23999986052513 848
9.2599998600781 859
9.27999985963106 858
9.29999985918403 877
9.31999985873699 920
9.33999985828996 1075
9.35999985784292 1110
9.37999985739589 1284
9.39999985694885 1215
9.41999985650182 974
9.43999985605478 905
9.45999985560775 801
9.47999985516071 768
9.49999985471368 760
9.51999985426664 739
9.53999985381961 800
9.55999985337257 739
9.57999985292554 720
9.5999998524785 743
9.61999985203147 709
9.63999985158443 692
9.6599998511374 775
9.67999985069037 741
9.69999985024333 719
9.7199998497963 714
9.73999984934926 721
9.75999984890223 745
9.77999984845519 773
9.79999984800816 749
9.81999984756112 711
9.83999984711409 687
9.85999984666705 765
9.87999984622002 718
9.89999984577298 688
9.91999984532595 721
9.93999984487891 735
9.95999984443188 707
9.97999984398484 739
9.99999984353781 720
10.0199998430908 712
10.0399998426437 740
10.0599998421967 764
10.0799998417497 762
10.0999998413026 726
10.1199998408556 780
10.1399998404086 713
10.1599998399615 718
10.1799998395145 768
10.1999998390675 842
10.2199998386204 841
10.2399998381734 842
10.2599998377264 793
10.2799998372793 753
10.2999998368323 696
10.3199998363853 732
10.3399998359382 736
10.3599998354912 713
10.3799998350441 714
10.3999998345971 711
10.4199998341501 695
10.439999833703 700
10.459999833256 703
10.479999832809 693
10.4999998323619 671
10.5199998319149 689
10.5399998314679 722
10.5599998310208 704
10.5799998305738 694
10.5999998301268 722
10.6199998296797 751
10.6399998292327 757
10.6599998287857 762
10.6799998283386 686
10.6999998278916 782
10.7199998274446 782
10.7399998269975 800
10.7599998265505 830
10.7799998261034 785
10.7999998256564 841
10.8199998252094 850
10.8399998247623 795
10.8599998243153 837
10.8799998238683 845
10.8999998234212 822
10.9199998229742 810
10.9399998225272 837
10.9599998220801 931
10.9799998216331 995
10.9999998211861 1045
11.019999820739 1045
11.039999820292 970
11.059999819845 850
11.0799998193979 803
11.0999998189509 729
11.1199998185039 722
11.1399998180568 700
11.1599998176098 665
11.1799998171628 691
11.1999998167157 759
11.2199998162687 717
11.2399998158216 726
11.2599998153746 668
11.2799998149276 672
11.2999998144805 766
11.3199998140335 719
11.3399998135865 775
11.3599998131394 739
11.3799998126924 745
11.3999998122454 690
11.4199998117983 724
11.4399998113513 780
11.4599998109043 737
11.4799998104572 837
11.4999998100102 813
11.5199998095632 843
11.5399998091161 882
11.5599998086691 870
11.5799998082221 825
11.599999807775 803
11.619999807328 782
11.639999806881 753
11.6599998064339 667
11.6799998059869 737
11.6999998055398 667
11.7199998050928 685
11.7399998046458 696
11.7599998041987 729
11.7799998037517 669
11.7999998033047 710
11.8199998028576 679
11.8399998024106 764
11.8599998019636 693
11.8799998015165 690
11.8999998010695 690
11.9199998006225 678
11.9399998001754 729
11.9599997997284 674
11.9799997992814 741
11.9999997988343 732
12.0199997983873 699
12.0399997979403 702
12.0599997974932 706
12.0799997970462 716
12.0999997965992 756
12.1199997961521 732
12.1399997957051 789
12.159999795258 743
12.179999794811 714
12.199999794364 753
12.2199997939169 748
12.2399997934699 727
12.2599997930229 753
12.2799997925758 756
12.2999997921288 729
12.3199997916818 757
12.3399997912347 760
12.3599997907877 715
12.3799997903407 691
12.3999997898936 725
12.4199997894466 729
12.4399997889996 727
12.4599997885525 674
12.4799997881055 713
12.4999997876585 707
12.5199997872114 736
12.5399997867644 721
12.5599997863173 712
12.5799997858703 787
12.5999997854233 706
12.6199997849762 731
12.6399997845292 709
12.6599997840822 714
12.6799997836351 734
12.6999997831881 712
12.7199997827411 701
12.739999782294 731
12.759999781847 698
12.7799997814 713
12.7999997809529 745
12.8199997805059 721
12.8399997800589 668
12.8599997796118 762
12.8799997791648 717
12.8999997787178 685
12.9199997782707 728
12.9399997778237 731
12.9599997773767 692
12.9799997769296 717
12.9999997764826 707
13.0199997760355 769
13.0399997755885 693
13.0599997751415 695
13.0799997746944 753
13.0999997742474 718
13.1199997738004 699
13.1399997733533 702
13.1599997729063 736
13.1799997724593 683
13.1999997720122 728
13.2199997715652 732
13.2399997711182 761
13.2599997706711 727
13.2799997702241 767
13.2999997697771 733
13.31999976933 722
13.339999768883 705
13.359999768436 746
13.3799997679889 737
13.3999997675419 767
13.4199997670949 708
13.4399997666478 712
13.4599997662008 706
13.4799997657537 739
13.4999997653067 731
13.5199997648597 773
13.5399997644126 711
13.5599997639656 719
13.5799997635186 703
13.5999997630715 775
13.6199997626245 725
13.6399997621775 709
13.6599997617304 759
13.6799997612834 758
13.6999997608364 719
13.7199997603893 793
13.7399997599423 777
13.7599997594953 733
13.7799997590482 730
13.7999997586012 767
13.8199997581542 755
13.8399997577071 751
13.8599997572601 756
13.879999756813 742
13.899999756366 736
13.919999755919 748
13.9399997554719 745
13.9599997550249 779
13.9799997545779 756
13.9999997541308 754
14.0199997536838 739
14.0399997532368 751
14.0599997527897 749
14.0799997523427 740
14.0999997518957 760
14.1199997514486 758
14.1399997510016 777
14.1599997505546 750
14.1799997501075 762
14.1999997496605 750
14.2199997492135 791
14.2399997487664 800
14.2599997483194 731
14.2799997478724 770
14.2999997474253 785
14.3199997469783 816
14.3399997465312 782
14.3599997460842 748
14.3799997456372 791
14.3999997451901 747
14.4199997447431 792
14.4399997442961 780
14.459999743849 808
14.479999743402 813
14.499999742955 760
14.5199997425079 794
14.5399997420609 780
14.5599997416139 781
14.5799997411668 776
14.5999997407198 812
14.6199997402728 787
14.6399997398257 830
14.6599997393787 801
14.6799997389317 735
14.6999997384846 768
14.7199997380376 811
14.7399997375906 834
14.7599997371435 775
14.7799997366965 823
14.7999997362494 803
14.8199997358024 762
14.8399997353554 842
14.8599997349083 828
14.8799997344613 912
14.8999997340143 804
14.9199997335672 814
14.9399997331202 789
14.9599997326732 802
14.9799997322261 773
14.9999997317791 806
15.0199997313321 850
15.039999730885 783
15.059999730438 842
15.079999729991 817
15.0999997295439 808
15.1199997290969 862
15.1399997286499 846
15.1599997282028 864
15.1799997277558 816
15.1999997273088 822
15.2199997268617 888
15.2399997264147 841
15.2599997259676 847
15.2799997255206 796
15.2999997250736 871
15.3199997246265 857
15.3399997241795 896
15.3599997237325 847
15.3799997232854 807
15.3999997228384 918
15.4199997223914 868
15.4399997219443 867
15.4599997214973 799
15.4799997210503 829
15.4999997206032 868
15.5199997201562 926
15.5399997197092 871
15.5599997192621 888
15.5799997188151 898
15.5999997183681 844
15.619999717921 850
15.639999717474 846
15.659999717027 879
15.6799997165799 880
15.6999997161329 938
15.7199997156858 881
15.7399997152388 856
15.7599997147918 863
15.7799997143447 868
15.7999997138977 902
15.8199997134507 828
15.8399997130036 923
15.8599997125566 923
15.8799997121096 878
15.8999997116625 857
15.9199997112155 901
15.9399997107685 939
15.9599997103214 881
15.9799997098744 886
15.9999997094274 879
16.0199997089803 872
16.0399997085333 906
16.0599997080863 932
16.0799997076392 892
16.0999997071922 886
16.1199997067451 921
16.1399997062981 866
16.1599997058511 881
16.179999705404 938
16.199999704957 947
16.21999970451 940
16.2399997040629 1009
16.2599997036159 880
16.2799997031689 943
16.2999997027218 960
16.3199997022748 971
16.3399997018278 986
16.3599997013807 935
16.3799997009337 960
16.3999997004867 973
16.4199997000396 968
16.4399996995926 966
16.4599996991456 1035
16.4799996986985 997
16.4999996982515 921
16.5199996978045 1015
16.5399996973574 910
16.5599996969104 954
16.5799996964633 909
16.5999996960163 979
16.6199996955693 988
16.6399996951222 1019
16.6599996946752 951
16.6799996942282 1030
16.6999996937811 1010
16.7199996933341 976
16.7399996928871 1024
16.75999969244 973
16.779999691993 943
16.799999691546 985
16.8199996910989 1063
16.8399996906519 974
16.8599996902049 1038
16.8799996897578 1049
16.8999996893108 1020
16.9199996888638 1039
16.9399996884167 1024
16.9599996879697 1033
16.9799996875226 1118
16.9999996870756 1054
17.0199996866286 1030
17.0399996861815 1084
17.0599996857345 1060
17.0799996852875 1024
17.0999996848404 1053
17.1199996843934 1000
17.1399996839464 1054
17.1599996834993 1062
17.1799996830523 1145
17.1999996826053 1071
17.2199996821582 1099
17.2399996817112 1077
17.2599996812642 1083
17.2799996808171 1089
17.2999996803701 1127
17.3199996799231 1120
17.339999679476 1075
17.359999679029 1155
17.379999678582 1110
17.3999996781349 1111
17.4199996776879 1079
17.4399996772408 1083
17.4599996767938 1140
17.4799996763468 1033
17.4999996758997 1125
17.5199996754527 1161
17.5399996750057 1174
17.5599996745586 1127
17.5799996741116 1066
17.5999996736646 1169
17.6199996732175 1098
17.6399996727705 1149
17.6599996723235 1118
17.6799996718764 1178
17.6999996714294 1158
17.7199996709824 1162
17.7399996705353 1189
17.7599996700883 1155
17.7799996696413 1173
17.7999996691942 1153
17.8199996687472 1189
17.8399996683002 1152
17.8599996678531 1172
17.8799996674061 1158
17.899999666959 1194
17.919999666512 1220
17.939999666065 1194
17.9599996656179 1227
17.9799996651709 1264
17.9999996647239 1229
18.0199996642768 1249
18.0399996638298 1185
18.0599996633828 1182
18.0799996629357 1211
18.0999996624887 1221
18.1199996620417 1224
18.1399996615946 1218
18.1599996611476 1251
18.1799996607006 1208
18.1999996602535 1283
18.2199996598065 1202
18.2399996593595 1189
18.2599996589124 1254
18.2799996584654 1189
18.2999996580184 1212
18.3199996575713 1263
18.3399996571243 1223
18.3599996566772 1267
18.3799996562302 1189
18.3999996557832 1258
18.4199996553361 1244
18.4399996548891 1130
18.4599996544421 1229
18.479999653995 1202
18.499999653548 1311
18.519999653101 1303
18.5399996526539 1241
18.5599996522069 1360
18.5799996517599 1248
18.5999996513128 1292
18.6199996508658 1284
18.6399996504188 1310
18.6599996499717 1344
18.6799996495247 1336
18.6999996490777 1304
18.7199996486306 1366
18.7399996481836 1291
18.7599996477366 1340
18.7799996472895 1318
18.7999996468425 1371
18.8199996463954 1378
18.8399996459484 1415
18.8599996455014 1400
18.8799996450543 1309
18.8999996446073 1324
18.9199996441603 1349
18.9399996437132 1337
18.9599996432662 1307
18.9799996428192 1362
18.9999996423721 1352
19.0199996419251 1401
19.0399996414781 1425
19.059999641031 1405
19.079999640584 1389
19.099999640137 1459
19.1199996396899 1472
19.1399996392429 1549
19.1599996387959 1524
19.1799996383488 1525
19.1999996379018 1437
19.2199996374547 1427
19.2399996370077 1442
19.2599996365607 1459
19.2799996361136 1375
19.2999996356666 1359
19.3199996352196 1406
19.3399996347725 1449
19.3599996343255 1363
19.3799996338785 1392
19.3999996334314 1420
19.4199996329844 1446
19.4399996325374 1421
19.4599996320903 1432
19.4799996316433 1556
19.4999996311963 1492
19.5199996307492 1519
19.5399996303022 1566
19.5599996298552 1542
19.5799996294081 1540
19.5999996289611 1537
19.6199996285141 1553
19.639999628067 1605
19.65999962762 1523
19.6799996271729 1495
19.6999996267259 1445
19.7199996262789 1463
19.7399996258318 1427
19.7599996253848 1513
19.7799996249378 1485
19.7999996244907 1430
19.8199996240437 1474
19.8399996235967 1477
19.8599996231496 1536
19.8799996227026 1553
19.8999996222556 1572
19.9199996218085 1628
19.9399996213615 1648
19.9599996209145 1564
19.9799996204674 1506
19.9999996200204 1462
