3 3087
3.01999999955297 2870
3.03999999910593 2651
3.0599999986589 2643
3.07999999821186 2474
3.09999999776483 2332
3.11999999731779 2406
3.13999999687076 2293
3.15999999642372 2291
3.17999999597669 2366
3.19999999552965 2211
3.21999999508262 2208
3.23999999463558 2152
3.25999999418855 2106
3.27999999374151 2194
3.29999999329448 2042
3.31999999284744 2080
3.33999999240041 2034
3.35999999195337 1915
3.37999999150634 2004
3.3999999910593 1983
3.41999999061227 2066
3.43999999016523 1898
3.4599999897182 1862
3.47999998927116 1913
3.49999998882413 1855
3.51999998837709 1815
3.53999998793006 1803
3.55999998748302 1734
3.57999998703599 1849
3.59999998658895 1822
3.61999998614192 1718
3.63999998569489 1678
3.65999998524785 1720
3.67999998480082 1711
3.69999998435378 1685
3.71999998390675 1651
3.73999998345971 1679
3.75999998301268 1583
3.77999998256564 1599
3.79999998211861 1628
3.81999998167157 1605
3.83999998122454 1572
3.8599999807775 1632
3.87999998033047 1553
3.89999997988343 1573
3.9199999794364 1554
3.93999997898936 1536
3.95999997854233 1564
3.97999997809529 1490
3.99999997764826 1499
4.01999997720122 1421
4.03999997675419 1462
4.05999997630715 1489
4.07999997586012 1425
4.09999997541308 1450
4.11999997496605 1407
4.13999997451901 1522
4.15999997407198 1422
4.17999997362494 1383
4.19999997317791 1418
4.21999997273087 1426
4.23999997228384 1381
4.25999997183681 1466
4.27999997138977 1480
4.29999997094274 1374
4.3199999704957 1390
4.33999997004867 1382
4.35999996960163 1349
4.3799999691546 1374
4.39999996870756 1331
4.41999996826053 1316
4.43999996781349 1355
4.45999996736646 1356
4.47999996691942 1384
4.49999996647239 1402
4.51999996602535 1322
4.53999996557832 1312
4.55999996513128 1296
4.57999996468425 1250
4.59999996423721 1277
4.61999996379018 1290
4.63999996334314 1279
4.65999996289611 1305
4.67999996244907 1209
4.69999996200204 1281
4.719999961555 1337
4.73999996110797 1268
4.75999996066093 1245
4.7799999602139 1216
4.79999995976686 1193
4.81999995931983 1225
4.83999995887279 1281
4.85999995842576 1217
4.87999995797873 1253
4.89999995753169 1159
4.91999995708466 1241
4.93999995663762 1279
4.95999995619059 1215
4.97999995574355 1201
4.99999995529652 1215
5.01999995484948 1198
5.03999995440245 1174
5.05999995395541 1166
5.07999995350838 1175
5.09999995306134 1193
5.11999995261431 1099
5.13999995216727 1161
5.15999995172024 1125
5.1799999512732 1210
5.19999995082617 1136
5.21999995037913 1145
5.2399999499321 1158
5.25999994948506 1135
5.27999994903803 1121
5.29999994859099 1099
5.31999994814396 1082
5.33999994769692 1054
5.35999994724989 1093
5.37999994680285 1075
5.39999994635582 1111
5.41999994590878 1030
5.43999994546175 1081
5.45999994501471 1080
5.47999994456768 1048
5.49999994412065 1100
5.51999994367361 1032
5.53999994322658 1048
5.55999994277954 1080
5.57999994233251 1053
5.59999994188547 1075
5.61999994143844 1010
5.6399999409914 978
5.65999994054437 990
5.67999994009733 1027
5.6999999396503 972
5.71999993920326 916
5.73999993875623 956
5.75999993830919 963
5.77999993786216 996
5.79999993741512 898
5.81999993696809 885
5.83999993652105 949
5.85999993607402 912
5.87999993562698 913
5.89999993517995 863
5.91999993473291 912
5.93999993428588 887
5.95999993383884 898
5.97999993339181 885
5.99999993294477 870
6.01999993249774 852
6.0399999320507 905
6.05999993160367 893
6.07999993115663 897
6.0999999307096 886
6.11999993026257 894
6.13999992981553 808
6.1599999293685 901
6.17999992892146 858
6.19999992847443 853
6.21999992802739 910
6.23999992758036 870
6.25999992713332 871
6.27999992668629 789
6.29999992623925 867
6.31999992579222 836
6.33999992534518 841
6.35999992489815 835
6.37999992445111 786
6.39999992400408 811
6.41999992355704 825
6.43999992311001 825
6.45999992266297 790
6.47999992221594 791
6.4999999217689 784
6.51999992132187 817
6.53999992087483 816
6.5599999204278 821
6.57999991998076 762
6.59999991953373 803
6.61999991908669 842
6.63999991863966 806
6.65999991819262 795
6.67999991774559 788
6.69999991729855 766
6.71999991685152 785
6.73999991640449 798
6.75999991595745 751
6.77999991551042 774
6.79999991506338 792
6.81999991461635 770
6.83999991416931 788
6.85999991372228 729
6.87999991327524 802
6.89999991282821 763
6.91999991238117 757
6.93999991193414 776
6.9599999114871 832
6.97999991104007 775
6.99999991059303 795
7.019999910146 790
7.03999990969896 758
7.05999990925193 746
7.07999990880489 738
7.09999990835786 721
7.11999990791082 762
7.13999990746379 698
7.15999990701675 735
7.17999990656972 727
7.19999990612268 749
7.21999990567565 732
7.23999990522861 687
7.25999990478158 756
7.27999990433454 723
7.29999990388751 707
7.31999990344047 767
7.33999990299344 758
7.35999990254641 738
7.37999990209937 740
7.39999990165234 729
7.4199999012053 726
7.43999990075827 757
7.45999990031123 701
7.4799998998642 714
7.49999989941716 725
7.51999989897013 736
7.53999989852309 702
7.55999989807606 718
7.57999989762902 673
7.59999989718199 737
7.61999989673495 754
7.63999989628792 735
7.65999989584088 713
7.67999989539385 686
7.69999989494681 743
7.71999989449978 735
7.73999989405274 698
7.75999989360571 737
7.77999989315867 734
7.79999989271164 695
7.8199998922646 726
7.83999989181757 710
7.85999989137053 693
7.8799998909235 701
7.89999989047646 708
7.91999989002943 672
7.9399998895824 723
7.95999988913536 649
7.97999988868833 720
7.99999988824129 730
8.01999988779426 698
8.03999988734722 674
8.05999988690019 677
8.07999988645315 699
8.09999988600612 704
8.11999988555908 728
8.13999988511205 706
8.15999988466501 696
8.17999988421798 677
8.19999988377094 710
8.21999988332391 689
8.23999988287687 652
8.25999988242984 685
8.2799998819828 715
8.29999988153577 669
8.31999988108873 694
8.3399998806417 720
8.35999988019466 679
8.37999987974763 744
8.39999987930059 660
8.41999987885356 673
8.43999987840652 657
8.45999987795949 657
8.47999987751245 681
8.49999987706542 693
8.51999987661839 706
8.53999987617135 706
8.55999987572432 697
8.57999987527728 679
8.59999987483025 646
8.61999987438321 711
8.63999987393618 637
8.65999987348914 714
8.67999987304211 692
8.69999987259507 677
8.71999987214804 690
8.739999871701 645
8.75999987125397 645
8.77999987080693 668
8.7999998703599 715
8.81999986991286 660
8.83999986946583 626
8.85999986901879 643
8.87999986857176 653
8.89999986812472 653
8.91999986767769 677
8.93999986723065 701
8.95999986678362 666
8.97999986633658 685
8.99999986588955 704
9.01999986544251 633
9.03999986499548 658
9.05999986454844 684
9.07999986410141 662
9.09999986365438 729
9.11999986320734 681
9.13999986276031 678
9.15999986231327 681
9.17999986186624 626
9.1999998614192 663
9.21999986097217 629
9.23999986052513 668
9.2599998600781 632
9.27999985963106 661
9.29999985918403 650
9.31999985873699 660
9.33999985828996 609
9.35999985784292 661
9.37999985739589 726
9.39999985694885 687
9.41999985650182 683
9.43999985605478 696
9.45999985560775 672
9.47999985516071 678
9.49999985471368 666
9.51999985426664 690
9.53999985381961 685
9.55999985337257 664
9.57999985292554 678
9.5999998524785 687
9.61999985203147 640
9.63999985158443 667
9.6599998511374 643
9.67999985069037 648
9.69999985024333 643
9.7199998497963 651
9.73999984934926 670
9.75999984890223 696
9.77999984845519 608
9.79999984800816 615
9.81999984756112 637
9.83999984711409 670
9.85999984666705 629
9.87999984622002 647
9.89999984577298 670
9.91999984532595 607
9.93999984487891 645
9.95999984443188 660
9.97999984398484 634
9.99999984353781 633
10.0199998430908 643
10.0399998426437 672
10.0599998421967 616
10.0799998417497 635
10.0999998413026 626
10.1199998408556 674
10.1399998404086 618
10.1599998399615 658
10.1799998395145 657
10.1999998390675 640
10.2199998386204 650
10.2399998381734 646
10.2599998377264 617
10.2799998372793 633
10.2999998368323 632
10.3199998363853 624
10.3399998359382 657
10.3599998354912 637
10.3799998350441 631
10.3999998345971 602
10.4199998341501 651
10.439999833703 618
10.459999833256 594
10.479999832809 683
10.4999998323619 622
10.5199998319149 601
10.5399998314679 616
10.5599998310208 665
10.5799998305738 638
10.5999998301268 598
10.6199998296797 609
10.6399998292327 626
10.6599998287857 587
10.6799998283386 632
10.6999998278916 594
10.7199998274446 617
10.7399998269975 620
10.7599998265505 669
10.7799998261034 644
10.7999998256564 636
10.8199998252094 620
10.8399998247623 631
10.8599998243153 570
10.8799998238683 655
10.8999998234212 619
10.9199998229742 617
10.9399998225272 646
10.9599998220801 623
10.9799998216331 662
10.9999998211861 631
11.019999820739 615
11.039999820292 634
11.059999819845 644
11.0799998193979 598
11.0999998189509 636
11.1199998185039 681
11.1399998180568 656
11.1599998176098 605
11.1799998171628 643
11.1999998167157 606
11.2199998162687 602
11.2399998158216 627
11.2599998153746 619
11.2799998149276 653
11.2999998144805 620
11.3199998140335 612
11.3399998135865 591
11.3599998131394 613
11.3799998126924 614
11.3999998122454 631
11.4199998117983 616
11.4399998113513 658
11.4599998109043 624
11.4799998104572 633
11.4999998100102 620
11.5199998095632 636
11.5399998091161 632
11.5599998086691 602
11.5799998082221 620
11.599999807775 608
11.619999807328 649
11.639999806881 609
11.6599998064339 649
11.6799998059869 664
11.6999998055398 606
11.7199998050928 637
11.7399998046458 618
11.7599998041987 628
11.7799998037517 627
11.7999998033047 620
11.8199998028576 604
11.8399998024106 628
11.8599998019636 603
11.8799998015165 618
11.8999998010695 641
11.9199998006225 635
11.9399998001754 651
11.9599997997284 615
11.9799997992814 675
11.9999997988343 659
12.0199997983873 689
12.0399997979403 596
12.0599997974932 623
12.0799997970462 712
12.0999997965992 663
12.1199997961521 665
12.1399997957051 609
12.159999795258 661
12.179999794811 639
12.199999794364 655
12.2199997939169 650
12.2399997934699 670
12.2599997930229 619
12.2799997925758 600
12.2999997921288 613
12.3199997916818 615
12.3399997912347 650
12.3599997907877 599
12.3799997903407 662
12.3999997898936 649
12.4199997894466 631
12.4399997889996 696
12.4599997885525 660
12.4799997881055 666
12.4999997876585 679
12.5199997872114 716
12.5399997867644 655
12.5599997863173 670
12.5799997858703 656
12.5999997854233 648
12.6199997849762 664
12.6399997845292 663
12.6599997840822 652
12.6799997836351 664
12.6999997831881 616
12.7199997827411 669
12.739999782294 667
12.759999781847 647
12.7799997814 686
12.7999997809529 650
12.8199997805059 681
12.8399997800589 667
12.8599997796118 671
12.8799997791648 714
12.8999997787178 682
12.9199997782707 725
12.9399997778237 717
12.9599997773767 696
12.9799997769296 694
12.9999997764826 695
13.0199997760355 744
13.0399997755885 706
13.0599997751415 694
13.0799997746944 683
13.0999997742474 646
13.1199997738004 631
13.1399997733533 682
13.1599997729063 719
13.1799997724593 660
13.1999997720122 675
13.2199997715652 675
13.2399997711182 713
13.2599997706711 695
13.2799997702241 723
13.2999997697771 698
13.31999976933 687
13.339999768883 696
13.359999768436 662
13.3799997679889 700
13.3999997675419 648
13.4199997670949 673
13.4399997666478 660
13.4599997662008 689
13.4799997657537 716
13.4999997653067 725
13.5199997648597 723
13.5399997644126 669
13.5599997639656 668
13.5799997635186 700
13.5999997630715 692
13.6199997626245 772
13.6399997621775 682
13.6599997617304 700
13.6799997612834 709
13.6999997608364 703
13.7199997603893 702
13.7399997599423 706
13.7599997594953 733
13.7799997590482 715
13.7999997586012 721
13.8199997581542 756
13.8399997577071 687
13.8599997572601 706
13.879999756813 740
13.899999756366 735
13.919999755919 699
13.9399997554719 738
13.9599997550249 735
13.9799997545779 731
13.9999997541308 735
14.0199997536838 699
14.0399997532368 726
14.0599997527897 735
14.0799997523427 715
14.0999997518957 732
14.1199997514486 736
14.1399997510016 767
14.1599997505546 761
14.1799997501075 712
14.1999997496605 708
14.2199997492135 722
14.2399997487664 741
14.2599997483194 739
14.2799997478724 762
14.2999997474253 781
14.3199997469783 700
14.3399997465312 708
14.3599997460842 773
14.3799997456372 802
14.3999997451901 747
14.4199997447431 722
14.4399997442961 727
14.459999743849 787
14.479999743402 769
14.499999742955 724
14.5199997425079 776
14.5399997420609 745
14.5599997416139 763
14.5799997411668 755
14.5999997407198 787
14.6199997402728 763
14.6399997398257 777
14.6599997393787 752
14.6799997389317 749
14.6999997384846 753
14.7199997380376 758
14.7399997375906 760
14.7599997371435 779
14.7799997366965 778
14.7999997362494 727
14.8199997358024 791
14.8399997353554 813
14.8599997349083 811
14.8799997344613 770
14.8999997340143 766
14.9199997335672 871
14.9399997331202 801
14.9599997326732 795
14.9799997322261 821
14.9999997317791 762
15.0199997313321 715
15.039999730885 809
15.059999730438 763
15.079999729991 791
15.0999997295439 811
15.1199997290969 779
15.1399997286499 814
15.1599997282028 787
15.1799997277558 840
15.1999997273088 853
15.2199997268617 801
15.2399997264147 822
15.2599997259676 825
15.2799997255206 853
15.2999997250736 826
15.3199997246265 814
15.3399997241795 842
15.3599997237325 830
15.3799997232854 815
15.3999997228384 813
15.4199997223914 820
15.4399997219443 808
15.4599997214973 826
15.4799997210503 861
15.4999997206032 858
15.5199997201562 856
15.5399997197092 806
15.5599997192621 874
15.5799997188151 820
15.5999997183681 862
15.619999717921 861
15.639999717474 840
15.659999717027 879
15.6799997165799 834
15.6999997161329 854
15.7199997156858 891
15.7399997152388 838
15.7599997147918 866
15.7799997143447 905
15.7999997138977 862
15.8199997134507 815
15.8399997130036 825
15.8599997125566 894
15.8799997121096 887
15.8999997116625 882
15.9199997112155 918
15.9399997107685 931
15.9599997103214 857
15.9799997098744 839
15.9999997094274 893
16.0199997089803 905
16.0399997085333 953
16.0599997080863 890
16.0799997076392 911
16.0999997071922 888
16.1199997067451 915
16.1399997062981 842
16.1599997058511 928
16.179999705404 855
16.199999704957 855
16.21999970451 873
16.2399997040629 912
16.2599997036159 907
16.2799997031689 934
16.2999997027218 921
16.3199997022748 967
16.3399997018278 944
16.3599997013807 873
16.3799997009337 942
16.3999997004867 913
16.4199997000396 902
16.4399996995926 939
16.4599996991456 949
16.4799996986985 921
16.4999996982515 940
16.5199996978045 981
16.5399996973574 922
16.5599996969104 938
16.5799996964633 978
16.5999996960163 939
16.6199996955693 995
16.6399996951222 941
16.6599996946752 979
16.6799996942282 952
16.6999996937811 976
16.7199996933341 930
16.7399996928871 1023
16.75999969244 971
16.779999691993 1037
16.799999691546 1031
16.8199996910989 1016
16.8399996906519 1074
16.8599996902049 1081
16.8799996897578 1114
16.8999996893108 1150
16.9199996888638 1253
16.9399996884167 1373
16.9599996879697 1594
16.9799996875226 1665
16.9999996870756 1853
17.0199996866286 1892
17.0399996861815 1807
17.0599996857345 1660
17.0799996852875 1529
17.0999996848404 1333
17.1199996843934 1202
17.1399996839464 1130
17.1599996834993 1063
17.1799996830523 1110
17.1999996826053 1054
17.2199996821582 1020
17.2399996817112 1079
17.2599996812642 1074
17.2799996808171 1091
17.2999996803701 1061
17.3199996799231 1091
17.339999679476 1053
17.359999679029 1031
17.379999678582 1070
17.3999996781349 1051
17.4199996776879 1060
17.4399996772408 1087
17.4599996767938 1054
17.4799996763468 1064
17.4999996758997 1040
17.5199996754527 1104
17.5399996750057 1064
17.5599996745586 1070
17.5799996741116 1115
17.5999996736646 1143
17.6199996732175 1107
17.6399996727705 1103
17.6599996723235 1125
17.6799996718764 1142
17.6999996714294 1176
17.7199996709824 1137
17.7399996705353 1151
17.7599996700883 1123
17.7799996696413 1099
17.7999996691942 1051
17.8199996687472 1161
17.8399996683002 1105
17.8599996678531 1184
17.8799996674061 1096
17.899999666959 1139
17.919999666512 1067
17.939999666065 1185
17.9599996656179 1159
17.9799996651709 1143
17.9999996647239 1148
18.0199996642768 1063
18.0399996638298 1181
18.0599996633828 1207
18.0799996629357 1186
18.0999996624887 1115
18.1199996620417 1175
18.1399996615946 1186
18.1599996611476 1225
18.1799996607006 1248
18.1999996602535 1205
18.2199996598065 1170
18.2399996593595 1143
18.2599996589124 1197
18.2799996584654 1233
18.2999996580184 1238
18.3199996575713 1273
18.3399996571243 1243
18.3599996566772 1215
18.3799996562302 1290
18.3999996557832 1188
18.4199996553361 1177
18.4399996548891 1303
18.4599996544421 1286
18.479999653995 1289
18.499999653548 1277
18.519999653101 1256
18.5399996526539 1267
18.5599996522069 1268
18.5799996517599 1278
18.5999996513128 1234
18.6199996508658 1317
18.6399996504188 1226
18.6599996499717 1307
18.6799996495247 1335
18.6999996490777 1242
18.7199996486306 1317
18.7399996481836 1348
18.7599996477366 1355
18.7799996472895 1339
18.7999996468425 1357
18.8199996463954 1326
18.8399996459484 1297
18.8599996455014 1364
18.8799996450543 1273
18.8999996446073 1286
18.9199996441603 1367
18.9399996437132 1303
18.9599996432662 1333
18.9799996428192 1309
18.9999996423721 1398
19.0199996419251 1293
19.0399996414781 1367
19.059999641031 1384
19.079999640584 1372
19.099999640137 1333
19.1199996396899 1370
19.1399996392429 1332
19.1599996387959 1374
19.1799996383488 1363
19.1999996379018 1384
19.2199996374547 1401
19.2399996370077 1401
19.2599996365607 1345
19.2799996361136 1403
19.2999996356666 1421
19.3199996352196 1405
19.3399996347725 1349
19.3599996343255 1421
19.3799996338785 1413
19.3999996334314 1346
19.4199996329844 1401
19.4399996325374 1389
19.4599996320903 1387
19.4799996316433 1423
19.4999996311963 1346
19.5199996307492 1440
19.5399996303022 1396
19.5599996298552 1463
19.5799996294081 1418
19.5999996289611 1366
19.6199996285141 1389
19.639999628067 1516
19.65999962762 1442
19.6799996271729 1354
19.6999996267259 1407
19.7199996262789 1444
19.7399996258318 1438
19.7599996253848 1484
19.7799996249378 1498
19.7999996244907 1434
19.8199996240437 1438
19.8399996235967 1508
19.8599996231496 1489
19.8799996227026 1457
19.8999996222556 1448
19.9199996218085 1483
19.9399996213615 1442
19.9599996209145 1440
19.9799996204674 1484
19.9999996200204 1540
