3 2390
3.01999999955297 2221
3.03999999910593 2015
3.0599999986589 1886
3.07999999821186 1752
3.09999999776483 1771
3.11999999731779 1630
3.13999999687076 1646
3.15999999642372 1593
3.17999999597669 1512
3.19999999552965 1626
3.21999999508262 1527
3.23999999463558 1530
3.25999999418855 1484
3.27999999374151 1535
3.29999999329448 1505
3.31999999284744 1436
3.33999999240041 1491
3.35999999195337 1436
3.37999999150634 1408
3.3999999910593 1333
3.41999999061227 1362
3.43999999016523 1362
3.4599999897182 1367
3.47999998927116 1303
3.49999998882413 1317
3.51999998837709 1313
3.53999998793006 1284
3.55999998748302 1380
3.57999998703599 1270
3.59999998658895 1206
3.61999998614192 1265
3.63999998569489 1258
3.65999998524785 1246
3.67999998480082 1246
3.69999998435378 1186
3.71999998390675 1246
3.73999998345971 1204
3.75999998301268 1172
3.77999998256564 1204
3.79999998211861 1144
3.81999998167157 1198
3.83999998122454 1163
3.8599999807775 1166
3.87999998033047 1145
3.89999997988343 1142
3.9199999794364 1152
3.93999997898936 1200
3.95999997854233 1134
3.97999997809529 1039
3.99999997764826 1081
4.01999997720122 1105
4.03999997675419 1131
4.05999997630715 1132
4.07999997586012 1068
4.09999997541308 1032
4.11999997496605 1046
4.13999997451901 1005
4.15999997407198 1057
4.17999997362494 1089
4.19999997317791 1098
4.21999997273087 1010
4.23999997228384 1025
4.25999997183681 1016
4.27999997138977 968
4.29999997094274 994
4.3199999704957 1098
4.33999997004867 978
4.35999996960163 1000
4.3799999691546 1044
4.39999996870756 973
4.41999996826053 996
4.43999996781349 976
4.45999996736646 987
4.47999996691942 976
4.49999996647239 987
4.51999996602535 971
4.53999996557832 1008
4.55999996513128 953
4.57999996468425 950
4.59999996423721 926
4.61999996379018 975
4.63999996334314 931
4.65999996289611 958
4.67999996244907 940
4.69999996200204 917
4.719999961555 864
4.73999996110797 945
4.75999996066093 976
4.7799999602139 981
4.79999995976686 918
4.81999995931983 929
4.83999995887279 864
4.85999995842576 881
4.87999995797873 880
4.89999995753169 921
4.91999995708466 856
4.93999995663762 877
4.95999995619059 916
4.97999995574355 898
4.99999995529652 876
5.01999995484948 879
5.03999995440245 880
5.05999995395541 891
5.07999995350838 916
5.09999995306134 903
5.11999995261431 884
5.13999995216727 855
5.15999995172024 810
5.1799999512732 860
5.19999995082617 865
5.21999995037913 840
5.2399999499321 895
5.25999994948506 825
5.27999994903803 858
5.29999994859099 859
5.31999994814396 950
5.33999994769692 914
5.35999994724989 869
5.37999994680285 941
5.39999994635582 961
5.41999994590878 971
5.43999994546175 930
5.45999994501471 942
5.47999994456768 879
5.49999994412065 883
5.51999994367361 819
5.53999994322658 809
5.55999994277954 813
5.57999994233251 827
5.59999994188547 857
5.61999994143844 810
5.6399999409914 821
5.65999994054437 802
5.67999994009733 818
5.6999999396503 869
5.71999993920326 845
5.73999993875623 871
5.75999993830919 842
5.77999993786216 806
5.79999993741512 811
5.81999993696809 836
5.83999993652105 772
5.85999993607402 737
5.87999993562698 746
5.89999993517995 781
5.91999993473291 680
5.93999993428588 703
5.95999993383884 670
5.97999993339181 671
5.99999993294477 710
6.01999993249774 677
6.0399999320507 628
6.05999993160367 695
6.07999993115663 693
6.0999999307096 648
6.11999993026257 670
6.13999992981553 711
6.1599999293685 702
6.17999992892146 700
6.19999992847443 647
6.21999992802739 706
6.23999992758036 663
6.25999992713332 618
6.27999992668629 642
6.29999992623925 622
6.31999992579222 646
6.33999992534518 611
6.35999992489815 661
6.37999992445111 608
6.39999992400408 658
6.41999992355704 623
6.43999992311001 639
6.45999992266297 659
6.47999992221594 641
6.4999999217689 614
6.51999992132187 601
6.53999992087483 607
6.5599999204278 643
6.57999991998076 591
6.59999991953373 631
6.61999991908669 583
6.63999991863966 625
6.65999991819262 634
6.67999991774559 590
6.69999991729855 579
6.71999991685152 646
6.73999991640449 613
6.75999991595745 617
6.77999991551042 629
6.79999991506338 594
6.81999991461635 622
6.83999991416931 623
6.85999991372228 608
6.87999991327524 616
6.89999991282821 611
6.91999991238117 577
6.93999991193414 583
6.9599999114871 598
6.97999991104007 587
6.99999991059303 559
7.019999910146 590
7.03999990969896 611
7.05999990925193 600
7.07999990880489 604
7.09999990835786 604
7.11999990791082 589
7.13999990746379 601
7.15999990701675 620
7.17999990656972 565
7.19999990612268 614
7.21999990567565 624
7.23999990522861 588
7.25999990478158 615
7.27999990433454 555
7.29999990388751 597
7.31999990344047 565
7.33999990299344 582
7.35999990254641 614
7.37999990209937 572
7.39999990165234 612
7.4199999012053 600
7.43999990075827 586
7.45999990031123 607
7.4799998998642 570
7.49999989941716 591
7.51999989897013 605
7.53999989852309 581
7.55999989807606 592
7.57999989762902 608
7.59999989718199 597
7.61999989673495 578
7.63999989628792 583
7.65999989584088 559
7.67999989539385 594
7.69999989494681 605
7.71999989449978 585
7.73999989405274 585
7.75999989360571 515
7.77999989315867 562
7.79999989271164 563
7.8199998922646 569
7.83999989181757 584
7.85999989137053 586
7.8799998909235 614
7.89999989047646 605
7.91999989002943 550
7.9399998895824 574
7.95999988913536 597
7.97999988868833 594
7.99999988824129 563
8.01999988779426 588
8.03999988734722 546
8.05999988690019 577
8.07999988645315 606
8.09999988600612 590
8.11999988555908 534
8.13999988511205 548
8.15999988466501 571
8.17999988421798 599
8.19999988377094 597
8.21999988332391 535
8.23999988287687 578
8.25999988242984 585
8.2799998819828 557
8.29999988153577 592
8.31999988108873 546
8.3399998806417 564
8.35999988019466 550
8.37999987974763 520
8.39999987930059 541
8.41999987885356 581
8.43999987840652 577
8.45999987795949 608
8.47999987751245 560
8.49999987706542 556
8.51999987661839 544
8.53999987617135 570
8.55999987572432 543
8.57999987527728 540
8.59999987483025 560
8.61999987438321 549
8.63999987393618 550
8.65999987348914 561
8.67999987304211 520
8.69999987259507 579
8.71999987214804 605
8.739999871701 573
8.75999987125397 574
8.77999987080693 569
8.7999998703599 583
8.81999986991286 540
8.83999986946583 591
8.85999986901879 595
8.87999986857176 560
8.89999986812472 565
8.91999986767769 602
8.93999986723065 597
8.95999986678362 565
8.97999986633658 544
8.99999986588955 557
9.01999986544251 587
9.03999986499548 559
9.05999986454844 530
9.07999986410141 521
9.09999986365438 552
9.11999986320734 557
9.13999986276031 535
9.15999986231327 581
9.17999986186624 641
9.1999998614192 560
9.21999986097217 585
9.23999986052513 546
9.2599998600781 560
9.27999985963106 523
9.29999985918403 592
9.31999985873699 572
9.33999985828996 605
9.35999985784292 635
9.37999985739589 586
9.39999985694885 551
9.41999985650182 534
9.43999985605478 507
9.45999985560775 528
9.47999985516071 536
9.49999985471368 558
9.51999985426664 537
9.53999985381961 590
9.55999985337257 569
9.57999985292554 544
9.5999998524785 527
9.61999985203147 528
9.63999985158443 583
9.6599998511374 557
9.67999985069037 512
9.69999985024333 582
9.7199998497963 557
9.73999984934926 534
9.75999984890223 508
9.77999984845519 573
9.79999984800816 515
9.81999984756112 516
9.83999984711409 530
9.85999984666705 568
9.87999984622002 545
9.89999984577298 549
9.91999984532595 556
9.93999984487891 530
9.95999984443188 558
9.97999984398484 565
9.99999984353781 526
10.0199998430908 539
10.0399998426437 519
10.0599998421967 532
10.0799998417497 546
10.0999998413026 557
10.1199998408556 534
10.1399998404086 508
10.1599998399615 522
10.1799998395145 553
10.1999998390675 575
10.2199998386204 558
10.2399998381734 521
10.2599998377264 539
10.2799998372793 542
10.2999998368323 574
10.3199998363853 506
10.3399998359382 519
10.3599998354912 522
10.3799998350441 528
10.3999998345971 570
10.4199998341501 499
10.439999833703 493
10.459999833256 522
10.479999832809 532
10.4999998323619 521
10.5199998319149 534
10.5399998314679 520
10.5599998310208 558
10.5799998305738 555
10.5999998301268 543
10.6199998296797 522
10.6399998292327 494
10.6599998287857 517
10.6799998283386 584
10.6999998278916 529
10.7199998274446 500
10.7399998269975 484
10.7599998265505 527
10.7799998261034 597
10.7999998256564 573
10.8199998252094 560
10.8399998247623 586
10.8599998243153 536
10.8799998238683 509
10.8999998234212 574
10.9199998229742 536
10.9399998225272 529
10.9599998220801 574
10.9799998216331 553
10.9999998211861 526
11.019999820739 532
11.039999820292 510
11.059999819845 549
11.0799998193979 513
11.0999998189509 532
11.1199998185039 510
11.1399998180568 493
11.1599998176098 499
11.1799998171628 496
11.1999998167157 537
11.2199998162687 515
11.2399998158216 530
11.2599998153746 510
11.2799998149276 500
11.2999998144805 493
11.3199998140335 492
11.3399998135865 495
11.3599998131394 545
11.3799998126924 517
11.3999998122454 546
11.4199998117983 477
11.4399998113513 508
11.4599998109043 516
11.4799998104572 559
11.4999998100102 520
11.5199998095632 521
11.5399998091161 503
11.5599998086691 537
11.5799998082221 506
11.599999807775 522
11.619999807328 530
11.639999806881 494
11.6599998064339 541
11.6799998059869 503
11.6999998055398 513
11.7199998050928 508
11.7399998046458 504
11.7599998041987 503
11.7799998037517 494
11.7999998033047 525
11.8199998028576 532
11.8399998024106 502
11.8599998019636 558
11.8799998015165 532
11.8999998010695 534
11.9199998006225 535
11.9399998001754 540
11.9599997997284 559
11.9799997992814 535
11.9999997988343 487
12.0199997983873 541
12.0399997979403 498
12.0599997974932 565
12.0799997970462 487
12.0999997965992 520
12.1199997961521 518
12.1399997957051 484
12.159999795258 528
12.179999794811 534
12.199999794364 551
12.2199997939169 519
12.2399997934699 508
12.2599997930229 553
12.2799997925758 524
12.2999997921288 520
12.3199997916818 556
12.3399997912347 524
12.3599997907877 531
12.3799997903407 515
12.3999997898936 529
12.4199997894466 554
12.4399997889996 517
12.4599997885525 526
12.4799997881055 562
12.4999997876585 519
12.5199997872114 541
12.5399997867644 531
12.5599997863173 532
12.5799997858703 534
12.5999997854233 580
12.6199997849762 523
12.6399997845292 558
12.6599997840822 510
12.6799997836351 554
12.6999997831881 498
12.7199997827411 541
12.739999782294 531
12.759999781847 546
12.7799997814 527
12.7999997809529 533
12.8199997805059 502
12.8399997800589 497
12.8599997796118 518
12.8799997791648 553
12.8999997787178 556
12.9199997782707 568
12.9399997778237 505
12.9599997773767 542
12.9799997769296 521
12.9999997764826 496
13.0199997760355 535
13.0399997755885 504
13.0599997751415 484
13.0799997746944 543
13.0999997742474 544
13.1199997738004 576
13.1399997733533 523
13.1599997729063 514
13.1799997724593 491
13.1999997720122 557
13.2199997715652 552
13.2399997711182 546
13.2599997706711 533
13.2799997702241 549
13.2999997697771 531
13.31999976933 506
13.339999768883 598
13.359999768436 552
13.3799997679889 552
13.3999997675419 547
13.4199997670949 565
13.4399997666478 537
13.4599997662008 521
13.4799997657537 502
13.4999997653067 575
13.5199997648597 516
13.5399997644126 556
13.5599997639656 566
13.5799997635186 539
13.5999997630715 561
13.6199997626245 518
13.6399997621775 541
13.6599997617304 538
13.6799997612834 502
13.6999997608364 560
13.7199997603893 506
13.7399997599423 505
13.7599997594953 541
13.7799997590482 563
13.7999997586012 564
13.8199997581542 563
13.8399997577071 561
13.8599997572601 572
13.879999756813 540
13.899999756366 552
13.919999755919 549
13.9399997554719 568
13.9599997550249 566
13.9799997545779 560
13.9999997541308 548
14.0199997536838 582
14.0399997532368 528
14.0599997527897 586
14.0799997523427 543
14.0999997518957 566
14.1199997514486 584
14.1399997510016 567
14.1599997505546 579
14.1799997501075 569
14.1999997496605 561
14.2199997492135 596
14.2399997487664 555
14.2599997483194 554
14.2799997478724 589
14.2999997474253 601
14.3199997469783 582
14.3399997465312 612
14.3599997460842 599
14.3799997456372 592
14.3999997451901 588
14.4199997447431 589
14.4399997442961 522
14.459999743849 551
14.479999743402 548
14.499999742955 557
14.5199997425079 535
14.5399997420609 581
14.5599997416139 587
14.5799997411668 552
14.5999997407198 579
14.6199997402728 604
14.6399997398257 601
14.6599997393787 608
14.6799997389317 577
14.6999997384846 584
14.7199997380376 617
14.7399997375906 611
14.7599997371435 605
14.7799997366965 593
14.7999997362494 606
14.8199997358024 599
14.8399997353554 578
14.8599997349083 583
14.8799997344613 588
14.8999997340143 573
14.9199997335672 579
14.9399997331202 608
14.9599997326732 568
14.9799997322261 590
14.9999997317791 603
15.0199997313321 611
15.039999730885 564
15.059999730438 613
15.079999729991 589
15.0999997295439 595
15.1199997290969 600
15.1399997286499 601
15.1599997282028 621
15.1799997277558 590
15.1999997273088 573
15.2199997268617 600
15.2399997264147 584
15.2599997259676 632
15.2799997255206 615
15.2999997250736 595
15.3199997246265 570
15.3399997241795 667
15.3599997237325 596
15.3799997232854 622
15.3999997228384 577
15.4199997223914 632
15.4399997219443 592
15.4599997214973 671
15.4799997210503 599
15.4999997206032 598
15.5199997201562 634
15.5399997197092 645
15.5599997192621 650
15.5799997188151 647
15.5999997183681 573
15.619999717921 640
15.639999717474 641
15.659999717027 645
15.6799997165799 653
15.6999997161329 641
15.7199997156858 650
15.7399997152388 668
15.7599997147918 659
15.7799997143447 636
15.7999997138977 628
15.8199997134507 632
15.8399997130036 631
15.8599997125566 655
15.8799997121096 649
15.8999997116625 638
15.9199997112155 636
15.9399997107685 638
15.9599997103214 653
15.9799997098744 651
15.9999997094274 634
16.0199997089803 680
16.0399997085333 629
16.0599997080863 629
16.0799997076392 651
16.0999997071922 651
16.1199997067451 657
16.1399997062981 639
16.1599997058511 643
16.179999705404 652
16.199999704957 650
16.21999970451 713
16.2399997040629 659
16.2599997036159 688
16.2799997031689 632
16.2999997027218 670
16.3199997022748 698
16.3399997018278 714
16.3599997013807 674
16.3799997009337 683
16.3999997004867 697
16.4199997000396 687
16.4399996995926 672
16.4599996991456 743
16.4799996986985 728
16.4999996982515 683
16.5199996978045 684
16.5399996973574 706
16.5599996969104 725
16.5799996964633 685
16.5999996960163 746
16.6199996955693 689
16.6399996951222 707
16.6599996946752 727
16.6799996942282 704
16.6999996937811 747
16.7199996933341 750
16.7399996928871 766
16.75999969244 737
16.779999691993 792
16.799999691546 723
16.8199996910989 769
16.8399996906519 767
16.8599996902049 850
16.8799996897578 893
16.8999996893108 859
16.9199996888638 897
16.9399996884167 993
16.9599996879697 1027
16.9799996875226 1051
16.9999996870756 1278
17.0199996866286 1197
17.0399996861815 1287
17.0599996857345 1288
17.0799996852875 1045
17.0999996848404 959
17.1199996843934 851
17.1399996839464 770
17.1599996834993 783
17.1799996830523 818
17.1999996826053 735
17.2199996821582 745
17.2399996817112 765
17.2599996812642 726
17.2799996808171 792
17.2999996803701 757
17.3199996799231 744
17.339999679476 743
17.359999679029 744
17.379999678582 766
17.3999996781349 755
17.4199996776879 758
17.4399996772408 747
17.4599996767938 810
17.4799996763468 771
17.4999996758997 759
17.5199996754527 784
17.5399996750057 746
17.5599996745586 756
17.5799996741116 769
17.5999996736646 784
17.6199996732175 775
17.6399996727705 819
17.6599996723235 835
17.6799996718764 756
17.6999996714294 829
17.7199996709824 799
17.7399996705353 805
17.7599996700883 809
17.7799996696413 867
17.7999996691942 804
17.8199996687472 831
17.8399996683002 805
17.8599996678531 787
17.8799996674061 820
17.899999666959 831
17.919999666512 813
17.939999666065 830
17.9599996656179 825
17.9799996651709 807
17.9999996647239 843
18.0199996642768 821
18.0399996638298 801
18.0599996633828 824
18.0799996629357 815
18.0999996624887 794
18.1199996620417 805
18.1399996615946 783
18.1599996611476 838
18.1799996607006 837
18.1999996602535 857
18.2199996598065 850
18.2399996593595 806
18.2599996589124 795
18.2799996584654 844
18.2999996580184 837
18.3199996575713 865
18.3399996571243 872
18.3599996566772 846
18.3799996562302 853
18.3999996557832 841
18.4199996553361 800
18.4399996548891 886
18.4599996544421 865
18.479999653995 906
18.499999653548 839
18.519999653101 848
18.5399996526539 860
18.5599996522069 950
18.5799996517599 897
18.5999996513128 879
18.6199996508658 836
18.6399996504188 896
18.6599996499717 938
18.6799996495247 846
18.6999996490777 916
18.7199996486306 848
18.7399996481836 902
18.7599996477366 891
18.7799996472895 937
18.7999996468425 906
18.8199996463954 902
18.8399996459484 922
18.8599996455014 893
18.8799996450543 893
18.8999996446073 882
18.9199996441603 913
18.9399996437132 884
18.9599996432662 913
18.9799996428192 938
18.9999996423721 868
19.0199996419251 917
19.0399996414781 904
19.059999641031 932
19.079999640584 981
19.099999640137 956
19.1199996396899 1004
19.1399996392429 959
19.1599996387959 1013
19.1799996383488 975
19.1999996379018 924
19.2199996374547 979
19.2399996370077 940
19.2599996365607 910
19.2799996361136 988
19.2999996356666 972
19.3199996352196 961
19.3399996347725 938
19.3599996343255 962
19.3799996338785 911
19.3999996334314 988
19.4199996329844 980
19.4399996325374 933
19.4599996320903 988
19.4799996316433 899
19.4999996311963 926
19.5199996307492 1005
19.5399996303022 982
19.5599996298552 1025
19.5799996294081 1009
19.5999996289611 1000
19.6199996285141 1019
19.639999628067 985
19.65999962762 953
19.6799996271729 942
19.6999996267259 1059
19.7199996262789 986
19.7399996258318 962
19.7599996253848 999
19.7799996249378 1022
19.7999996244907 1005
19.8199996240437 1022
19.8399996235967 1015
19.8599996231496 1068
19.8799996227026 1000
19.8999996222556 1002
19.9199996218085 979
19.9399996213615 1017
19.9599996209145 1024
19.9799996204674 1076
19.9999996200204 973
20.0199996195734 1000
20.0399996191263 1057
20.0599996186793 1034
20.0799996182322 999
20.0999996177852 1077
20.1199996173382 1037
20.1399996168911 1015
20.1599996164441 1007
20.1799996159971 1069
20.19999961555 1030
20.219999615103 1060
20.239999614656 1048
20.2599996142089 985
20.2799996137619 1062
20.2999996133149 1034
20.3199996128678 1036
20.3399996124208 1065
20.3599996119738 1113
20.3799996115267 1072
20.3999996110797 1071
20.4199996106327 1050
20.4399996101856 1065
20.4599996097386 1062
20.4799996092916 1098
20.4999996088445 1036
20.5199996083975 1038
20.5399996079504 996
20.5599996075034 1086
20.5799996070564 1089
20.5999996066093 1098
20.6199996061623 1049
20.6399996057153 1040
20.6599996052682 1041
20.6799996048212 1057
20.6999996043742 1103
20.7199996039271 1082
20.7399996034801 1055
20.7599996030331 1082
20.779999602586 1082
20.799999602139 1097
20.819999601692 1154
20.8399996012449 1126
20.8599996007979 1129
20.8799996003509 1110
20.8999995999038 1086
20.9199995994568 1010
20.9399995990098 1100
20.9599995985627 1067
20.9799995981157 1076
20.9999995976686 1053
21.0199995972216 1104
21.0399995967746 1116
21.0599995963275 1145
21.0799995958805 1118
21.0999995954335 1119
21.1199995949864 1077
21.1399995945394 1079
21.1599995940924 1151
21.1799995936453 1092
21.1999995931983 1138
21.2199995927513 1068
21.2399995923042 1115
21.2599995918572 1099
21.2799995914102 1090
21.2999995909631 1046
21.3199995905161 1091
21.3399995900691 1124
21.359999589622 1079
21.379999589175 1083
21.399999588728 1069
21.4199995882809 1109
21.4399995878339 1057
21.4599995873868 1112
21.4799995869398 1106
21.4999995864928 1093
21.5199995860457 1139
21.5399995855987 1125
21.5599995851517 1138
21.5799995847046 1131
21.5999995842576 1153
21.6199995838106 1173
21.6399995833635 1081
21.6599995829165 1112
21.6799995824695 1188
21.6999995820224 1096
21.7199995815754 1156
21.7399995811284 1131
21.7599995806813 1179
21.7799995802343 1150
21.7999995797873 1121
21.8199995793402 1078
21.8399995788932 1097
21.8599995784462 1115
21.8799995779991 1127
21.8999995775521 1130
21.919999577105 1152
21.939999576658 1190
21.959999576211 1082
21.9799995757639 1178
21.9999995753169 1171
22.0199995748699 1143
22.0399995744228 1129
22.0599995739758 1101
22.0799995735288 1112
22.0999995730817 1153
22.1199995726347 1066
22.1399995721877 1167
22.1599995717406 1095
22.1799995712936 1163
22.1999995708466 1139
22.2199995703995 1065
22.2399995699525 1043
22.2599995695055 1150
22.2799995690584 1108
22.2999995686114 1086
22.3199995681643 1162
22.3399995677173 1104
22.3599995672703 1162
22.3799995668232 1172
22.3999995663762 1124
22.4199995659292 1184
22.4399995654821 1106
22.4599995650351 1110
22.4799995645881 1172
22.499999564141 1148
22.519999563694 1082
22.539999563247 1111
22.5599995627999 1142
22.5799995623529 1163
22.5999995619059 1170
22.6199995614588 1118
22.6399995610118 1177
22.6599995605648 1138
22.6799995601177 1168
22.6999995596707 1105
22.7199995592237 1115
22.7399995587766 1148
22.7599995583296 1123
22.7799995578825 1150
22.7999995574355 1148
22.8199995569885 1185
22.8399995565414 1105
22.8599995560944 1098
22.8799995556474 1139
22.8999995552003 1185
22.9199995547533 1158
22.9399995543063 1100
22.9599995538592 1091
22.9799995534122 1153
22.9999995529652 1195
23.0199995525181 1146
23.0399995520711 1152
23.0599995516241 1079
23.079999551177 1150
23.09999955073 1134
23.119999550283 1103
23.1399995498359 1160
23.1599995493889 1163
23.1799995489418 1178
23.1999995484948 1114
23.2199995480478 1194
23.2399995476007 1139
23.2599995471537 1096
23.2799995467067 1152
23.2999995462596 1161
23.3199995458126 1152
23.3399995453656 1082
23.3599995449185 1157
23.3799995444715 1143
23.3999995440245 1106
23.4199995435774 1186
23.4399995431304 1145
23.4599995426834 1124
23.4799995422363 1101
23.4999995417893 1115
23.5199995413423 1141
23.5399995408952 1156
23.5599995404482 1152
23.5799995400012 1101
23.5999995395541 1129
23.6199995391071 1151
23.63999953866 1148
23.659999538213 1158
23.679999537766 1192
23.6999995373189 1118
23.7199995368719 1068
23.7399995364249 1087
23.7599995359778 1048
23.7799995355308 1124
23.7999995350838 1147
23.8199995346367 1117
23.8399995341897 1163
23.8599995337427 1130
23.8799995332956 1166
23.8999995328486 1151
23.9199995324016 1089
23.9399995319545 1127
23.9599995315075 1166
23.9799995310605 1126
23.9999995306134 1149
24.0199995301664 1123
24.0399995297194 1094
24.0599995292723 1091
24.0799995288253 1136
24.0999995283782 1152
24.1199995279312 1135
24.1399995274842 1116
24.1599995270371 1093
24.1799995265901 1175
24.1999995261431 1155
24.219999525696 1119
24.239999525249 1109
24.259999524802 1155
24.2799995243549 1120
24.2999995239079 1084
24.3199995234609 1119
24.3399995230138 1181
24.3599995225668 1112
24.3799995221198 1059
24.3999995216727 1123
24.4199995212257 1116
24.4399995207787 1100
24.4599995203316 1088
24.4799995198846 1105
24.4999995194376 1145
24.5199995189905 1125
24.5399995185435 1089
24.5599995180964 1119
24.5799995176494 1125
24.5999995172024 1113
24.6199995167553 1097
24.6399995163083 1131
24.6599995158613 1122
24.6799995154142 1052
24.6999995149672 1105
24.7199995145202 1136
24.7399995140731 1135
24.7599995136261 1101
24.7799995131791 1042
24.799999512732 1131
24.819999512285 1125
24.839999511838 1111
24.8599995113909 1056
24.8799995109439 1058
24.8999995104969 1184
24.9199995100498 1118
24.9399995096028 1092
24.9599995091558 1106
24.9799995087087 1072
24.9999995082617 1089
25.0199995078146 1103
25.0399995073676 1100
25.0599995069206 1055
25.0799995064735 1096
25.0999995060265 1068
25.1199995055795 1111
25.1399995051324 1066
25.1599995046854 1126
25.1799995042384 1146
25.1999995037913 1071
25.2199995033443 1106
25.2399995028973 1095
25.2599995024502 1125
25.2799995020032 1121
25.2999995015562 1158
25.3199995011091 1192
25.3399995006621 1131
25.3599995002151 1083
25.379999499768 1095
25.399999499321 1129
25.4199994988739 1123
25.4399994984269 1162
25.4599994979799 1088
25.4799994975328 1061
25.4999994970858 1057
25.5199994966388 1078
25.5399994961917 1068
25.5599994957447 995
25.5799994952977 1047
25.5999994948506 1071
25.6199994944036 1094
25.6399994939566 1085
25.6599994935095 1093
25.6799994930625 1102
25.6999994926155 1064
25.7199994921684 1094
25.7399994917214 1058
25.7599994912744 1034
25.7799994908273 991
25.7999994903803 1085
25.8199994899333 1105
25.8399994894862 1033
25.8599994890392 1091
25.8799994885921 1060
25.8999994881451 1056
25.9199994876981 1049
25.939999487251 1088
25.959999486804 1048
25.979999486357 1056
25.9999994859099 1061
26.0199994854629 1058
26.0399994850159 1043
26.0599994845688 1054
26.0799994841218 1023
26.0999994836748 1029
26.1199994832277 1070
26.1399994827807 1037
26.1599994823337 1058
26.1799994818866 1058
26.1999994814396 1041
26.2199994809926 1043
26.2399994805455 1033
26.2599994800985 1033
26.2799994796514 1036
26.2999994792044 1050
26.3199994787574 1022
26.3399994783103 1102
26.3599994778633 1031
26.3799994774163 1036
26.3999994769692 1025
26.4199994765222 1025
26.4399994760752 987
26.4599994756281 1035
26.4799994751811 1060
26.4999994747341 1037
26.519999474287 1029
26.53999947384 1040
26.559999473393 1034
26.5799994729459 978
26.5999994724989 1009
26.6199994720519 1045
26.6399994716048 1007
26.6599994711578 1059
26.6799994707108 1041
26.6999994702637 992
26.7199994698167 1046
26.7399994693697 1027
26.7599994689226 1053
26.7799994684756 1028
26.7999994680285 1057
26.8199994675815 1117
26.8399994671345 1056
26.8599994666874 1049
26.8799994662404 1104
26.8999994657934 1086
26.9199994653463 1043
26.9399994648993 1107
26.9599994644523 1103
26.9799994640052 1053
26.9999994635582 1040
27.0199994631112 1041
27.0399994626641 1022
27.0599994622171 1002
27.0799994617701 1025
27.099999461323 1040
27.119999460876 1029
27.139999460429 1012
27.1599994599819 1053
27.1799994595349 974
27.1999994590878 1000
27.2199994586408 1003
27.2399994581938 946
27.2599994577467 997
27.2799994572997 989
27.2999994568527 1003
27.3199994564056 1003
27.3399994559586 1048
27.3599994555116 969
27.3799994550645 1039
27.3999994546175 1009
27.4199994541705 1019
27.4399994537234 992
27.4599994532764 996
27.4799994528294 1032
27.4999994523823 1045
27.5199994519353 976
27.5399994514883 1002
27.5599994510412 1006
27.5799994505942 947
27.5999994501472 997
27.6199994497001 956
27.6399994492531 921
27.659999448806 1002
27.679999448359 946
27.699999447912 934
27.7199994474649 967
27.7399994470179 998
27.7599994465709 1009
27.7799994461238 999
27.7999994456768 1003
27.8199994452298 939
27.8399994447827 987
27.8599994443357 953
27.8799994438887 1005
27.8999994434416 989
27.9199994429946 979
27.9399994425476 1007
27.9599994421005 968
27.9799994416535 970
27.9999994412065 953
28.0199994407594 971
28.0399994403124 1016
28.0599994398654 939
28.0799994394183 980
28.0999994389713 980
28.1199994385242 991
28.1399994380772 975
28.1599994376302 1027
28.1799994371831 1013
28.1999994367361 1047
28.2199994362891 981
28.239999435842 1015
28.259999435395 978
28.279999434948 1041
28.2999994345009 973
28.3199994340539 940
28.3399994336069 980
28.3599994331598 1003
28.3799994327128 1017
28.3999994322658 926
28.4199994318187 980
28.4399994313717 912
28.4599994309247 934
28.4799994304776 965
28.4999994300306 910
28.5199994295835 936
28.5399994291365 1004
28.5599994286895 958
28.5799994282424 971
28.5999994277954 946
28.6199994273484 928
28.6399994269013 914
28.6599994264543 920
28.6799994260073 895
28.6999994255602 985
28.7199994251132 974
28.7399994246662 964
28.7599994242191 946
28.7799994237721 945
28.7999994233251 944
28.819999422878 940
28.839999422431 995
28.859999421984 933
28.8799994215369 901
28.8999994210899 844
28.9199994206429 951
28.9399994201958 932
28.9599994197488 965
28.9799994193017 941
28.9999994188547 939
29.0199994184077 925
29.0399994179606 903
29.0599994175136 992
29.0799994170666 938
29.0999994166195 925
29.1199994161725 934
29.1399994157255 939
29.1599994152784 925
29.1799994148314 913
29.1999994143844 986
29.2199994139373 890
29.2399994134903 971
29.2599994130433 930
29.2799994125962 889
29.2999994121492 931
29.3199994117022 932
29.3399994112551 939
29.3599994108081 894
29.379999410361 910
29.399999409914 955
29.419999409467 979
29.4399994090199 917
29.4599994085729 921
29.4799994081259 897
29.4999994076788 943
29.5199994072318 938
29.5399994067848 854
29.5599994063377 896
29.5799994058907 898
29.5999994054437 887
29.6199994049966 928
29.6399994045496 903
29.6599994041026 931
29.6799994036555 906
29.6999994032085 831
29.7199994027615 899
29.7399994023144 899
29.7599994018674 898
29.7799994014204 911
29.7999994009733 905
29.8199994005263 943
29.8399994000793 871
29.8599993996322 879
29.8799993991852 903
29.8999993987381 904
29.9199993982911 889
29.9399993978441 906
29.959999397397 919
29.97999939695 915
29.999999396503 951
