3 4281
3.01999999955297 4224
3.03999999910593 4116
3.0599999986589 4037
3.07999999821186 3741
3.09999999776483 3402
3.11999999731779 3089
3.13999999687076 3031
3.15999999642372 3023
3.17999999597669 2937
3.19999999552965 2876
3.21999999508262 2723
3.23999999463558 2479
3.25999999418855 2421
3.27999999374151 2317
3.29999999329448 2357
3.31999999284744 2362
3.33999999240041 2454
3.35999999195337 2453
3.37999999150634 2420
3.3999999910593 2388
3.41999999061227 2261
3.43999999016523 2279
3.4599999897182 2084
3.47999998927116 2072
3.49999998882413 1985
3.51999998837709 2034
3.53999998793006 2019
3.55999998748302 1851
3.57999998703599 1866
3.59999998658895 1893
3.61999998614192 1879
3.63999998569489 1914
3.65999998524785 1835
3.67999998480082 1858
3.69999998435378 1862
3.71999998390675 1761
3.73999998345971 1754
3.75999998301268 1741
3.77999998256564 1715
3.79999998211861 1694
3.81999998167157 1634
3.83999998122454 1732
3.8599999807775 1793
3.87999998033047 1688
3.89999997988343 1671
3.9199999794364 1683
3.93999997898936 1757
3.95999997854233 1696
3.97999997809529 1733
3.99999997764826 1705
4.01999997720122 1650
4.03999997675419 1682
4.05999997630715 1714
4.07999997586012 1670
4.09999997541308 1665
4.11999997496605 1717
4.13999997451901 1763
4.15999997407198 1760
4.17999997362494 1713
4.19999997317791 1740
4.21999997273087 1802
4.23999997228384 1702
4.25999997183681 1694
4.27999997138977 1712
4.29999997094274 1664
4.3199999704957 1725
4.33999997004867 1706
4.35999996960163 1649
4.3799999691546 1713
4.39999996870756 1662
4.41999996826053 1619
4.43999996781349 1679
4.45999996736646 1648
4.47999996691942 1707
4.49999996647239 1663
4.51999996602535 1641
4.53999996557832 1565
4.55999996513128 1640
4.57999996468425 1592
4.59999996423721 1524
4.61999996379018 1501
4.63999996334314 1598
4.65999996289611 1609
4.67999996244907 1591
4.69999996200204 1508
4.719999961555 1553
4.73999996110797 1594
4.75999996066093 1605
4.7799999602139 1597
4.79999995976686 1553
4.81999995931983 1655
4.83999995887279 1647
4.85999995842576 1677
4.87999995797873 1560
4.89999995753169 1577
4.91999995708466 1587
4.93999995663762 1656
4.95999995619059 1556
4.97999995574355 1556
4.99999995529652 1601
5.01999995484948 1676
5.03999995440245 1653
5.05999995395541 1643
5.07999995350838 1651
5.09999995306134 1653
5.11999995261431 1721
5.13999995216727 1630
5.15999995172024 1727
5.1799999512732 1666
5.19999995082617 1781
5.21999995037913 1835
5.2399999499321 1768
5.25999994948506 1799
5.27999994903803 1855
5.29999994859099 1946
5.31999994814396 1899
5.33999994769692 2057
5.35999994724989 2091
5.37999994680285 2249
5.39999994635582 2334
5.41999994590878 2498
5.43999994546175 2592
5.45999994501471 2490
5.47999994456768 2266
5.49999994412065 2051
5.51999994367361 1948
5.53999994322658 1791
5.55999994277954 1827
5.57999994233251 1871
5.59999994188547 1835
5.61999994143844 1846
5.6399999409914 1851
5.65999994054437 1993
5.67999994009733 2012
5.6999999396503 1993
5.71999993920326 2094
5.73999993875623 2171
5.75999993830919 2179
5.77999993786216 2256
5.79999993741512 2321
5.81999993696809 2114
5.83999993652105 1944
5.85999993607402 1699
5.87999993562698 1552
5.89999993517995 1443
5.91999993473291 1345
5.93999993428588 1294
5.95999993383884 1259
5.97999993339181 1218
5.99999993294477 1163
6.01999993249774 1175
6.0399999320507 1144
6.05999993160367 1157
6.07999993115663 1081
6.0999999307096 1177
6.11999993026257 1093
6.13999992981553 1122
6.1599999293685 1133
6.17999992892146 1105
6.19999992847443 1085
6.21999992802739 1108
6.23999992758036 1060
6.25999992713332 1033
6.27999992668629 1036
6.29999992623925 1086
6.31999992579222 1034
6.33999992534518 1076
6.35999992489815 1024
6.37999992445111 1082
6.39999992400408 981
6.41999992355704 1040
6.43999992311001 1022
6.45999992266297 1036
6.47999992221594 1018
6.4999999217689 1043
6.51999992132187 1040
6.53999992087483 1001
6.5599999204278 1011
6.57999991998076 1003
6.59999991953373 974
6.61999991908669 1027
6.63999991863966 1038
6.65999991819262 1037
6.67999991774559 1074
6.69999991729855 1071
6.71999991685152 1021
6.73999991640449 940
6.75999991595745 1011
6.77999991551042 1046
6.79999991506338 967
6.81999991461635 985
6.83999991416931 991
6.85999991372228 1015
6.87999991327524 968
6.89999991282821 916
6.91999991238117 967
6.93999991193414 957
6.9599999114871 942
6.97999991104007 914
6.99999991059303 897
7.019999910146 921
7.03999990969896 864
7.05999990925193 857
7.07999990880489 890
7.09999990835786 921
7.11999990791082 902
7.13999990746379 946
7.15999990701675 880
7.17999990656972 876
7.19999990612268 901
7.21999990567565 883
7.23999990522861 908
7.25999990478158 870
7.27999990433454 889
7.29999990388751 907
7.31999990344047 909
7.33999990299344 895
7.35999990254641 918
7.37999990209937 848
7.39999990165234 877
7.4199999012053 894
7.43999990075827 931
7.45999990031123 936
7.4799998998642 883
7.49999989941716 870
7.51999989897013 873
7.53999989852309 839
7.55999989807606 903
7.57999989762902 835
7.59999989718199 842
7.61999989673495 818
7.63999989628792 861
7.65999989584088 896
7.67999989539385 888
7.69999989494681 818
7.71999989449978 854
7.73999989405274 888
7.75999989360571 869
7.77999989315867 875
7.79999989271164 864
7.8199998922646 891
7.83999989181757 932
7.85999989137053 890
7.8799998909235 868
7.89999989047646 862
7.91999989002943 876
7.9399998895824 827
7.95999988913536 853
7.97999988868833 862
7.99999988824129 889
8.01999988779426 861
8.03999988734722 856
8.05999988690019 873
8.07999988645315 829
8.09999988600612 841
8.11999988555908 816
8.13999988511205 876
8.15999988466501 882
8.17999988421798 845
8.19999988377094 866
8.21999988332391 921
8.23999988287687 866
8.25999988242984 863
8.2799998819828 839
8.29999988153577 834
8.31999988108873 866
8.3399998806417 890
8.35999988019466 883
8.37999987974763 838
8.39999987930059 871
8.41999987885356 906
8.43999987840652 871
8.45999987795949 900
8.47999987751245 838
8.49999987706542 838
8.51999987661839 790
8.53999987617135 846
8.55999987572432 842
8.57999987527728 842
8.59999987483025 824
8.61999987438321 909
8.63999987393618 911
8.65999987348914 858
8.67999987304211 857
8.69999987259507 862
8.71999987214804 876
8.739999871701 886
8.75999987125397 800
8.77999987080693 823
8.7999998703599 860
8.81999986991286 784
8.83999986946583 840
8.85999986901879 900
8.87999986857176 856
8.89999986812472 910
8.91999986767769 881
8.93999986723065 868
8.95999986678362 892
8.97999986633658 942
8.99999986588955 861
9.01999986544251 926
9.03999986499548 898
9.05999986454844 930
9.07999986410141 897
9.09999986365438 966
9.11999986320734 932
9.13999986276031 994
9.15999986231327 943
9.17999986186624 1019
9.1999998614192 995
9.21999986097217 1053
9.23999986052513 1148
9.2599998600781 1116
9.27999985963106 1162
9.29999985918403 1224
9.31999985873699 1328
9.33999985828996 1460
9.35999985784292 1442
9.37999985739589 1420
9.39999985694885 1209
9.41999985650182 1049
9.43999985605478 1003
9.45999985560775 911
9.47999985516071 917
9.49999985471368 883
9.51999985426664 872
9.53999985381961 864
9.55999985337257 840
9.57999985292554 827
9.5999998524785 830
9.61999985203147 870
9.63999985158443 812
9.6599998511374 865
9.67999985069037 860
9.69999985024333 864
9.7199998497963 857
9.73999984934926 897
9.75999984890223 874
9.77999984845519 885
9.79999984800816 871
9.81999984756112 859
9.83999984711409 919
9.85999984666705 882
9.87999984622002 805
9.89999984577298 857
9.91999984532595 876
9.93999984487891 817
9.95999984443188 884
9.97999984398484 828
9.99999984353781 859
10.0199998430908 907
10.0399998426437 867
10.0599998421967 885
10.0799998417497 877
10.0999998413026 853
10.1199998408556 880
10.1399998404086 951
10.1599998399615 929
10.1799998395145 923
10.1999998390675 920
10.2199998386204 938
10.2399998381734 955
10.2599998377264 909
10.2799998372793 906
10.2999998368323 871
10.3199998363853 877
10.3399998359382 813
10.3599998354912 885
10.3799998350441 824
10.3999998345971 765
10.4199998341501 864
10.439999833703 808
10.459999833256 891
10.479999832809 900
10.4999998323619 876
10.5199998319149 871
10.5399998314679 822
10.5599998310208 866
10.5799998305738 831
10.5999998301268 886
10.6199998296797 934
10.6399998292327 866
10.6599998287857 848
10.6799998283386 936
10.6999998278916 957
10.7199998274446 909
10.7399998269975 961
10.7599998265505 1039
10.7799998261034 1063
10.7999998256564 1056
10.8199998252094 1007
10.8399998247623 1033
10.8599998243153 1024
10.8799998238683 989
10.8999998234212 1020
10.9199998229742 1052
10.9399998225272 1027
10.9599998220801 1039
10.9799998216331 1058
10.9999998211861 1046
11.019999820739 974
11.039999820292 934
11.059999819845 908
11.0799998193979 838
11.0999998189509 863
11.1199998185039 825
11.1399998180568 858
11.1599998176098 831
11.1799998171628 836
11.1999998167157 844
11.2199998162687 843
11.2399998158216 827
11.2599998153746 846
11.2799998149276 834
11.2999998144805 871
11.3199998140335 824
11.3399998135865 834
11.3599998131394 894
11.3799998126924 859
11.3999998122454 877
11.4199998117983 891
11.4399998113513 860
11.4599998109043 851
11.4799998104572 833
11.4999998100102 951
11.5199998095632 938
11.5399998091161 889
11.5599998086691 877
11.5799998082221 859
11.599999807775 908
11.619999807328 884
11.639999806881 849
11.6599998064339 869
11.6799998059869 854
11.6999998055398 854
11.7199998050928 858
11.7399998046458 869
11.7599998041987 822
11.7799998037517 826
11.7999998033047 824
11.8199998028576 862
11.8399998024106 865
11.8599998019636 867
11.8799998015165 829
11.8999998010695 869
11.9199998006225 822
11.9399998001754 840
11.9599997997284 889
11.9799997992814 866
11.9999997988343 854
12.0199997983873 860
12.0399997979403 912
12.0599997974932 898
12.0799997970462 868
12.0999997965992 820
12.1199997961521 845
12.1399997957051 892
12.159999795258 884
12.179999794811 855
12.199999794364 932
12.2199997939169 888
12.2399997934699 900
12.2599997930229 874
12.2799997925758 863
12.2999997921288 931
12.3199997916818 894
12.3399997912347 877
12.3599997907877 883
12.3799997903407 892
12.3999997898936 852
12.4199997894466 922
12.4399997889996 912
12.4599997885525 872
12.4799997881055 906
12.4999997876585 905
12.5199997872114 850
12.5399997867644 876
12.5599997863173 881
12.5799997858703 887
12.5999997854233 852
12.6199997849762 912
12.6399997845292 894
12.6599997840822 894
12.6799997836351 911
12.6999997831881 900
12.7199997827411 846
12.739999782294 850
12.759999781847 873
12.7799997814 927
12.7999997809529 934
12.8199997805059 841
12.8399997800589 873
12.8599997796118 930
12.8799997791648 846
12.8999997787178 927
12.9199997782707 913
12.9399997778237 870
12.9599997773767 875
12.9799997769296 938
12.9999997764826 956
13.0199997760355 857
13.0399997755885 1004
13.0599997751415 915
13.0799997746944 914
13.0999997742474 932
13.1199997738004 917
13.1399997733533 853
13.1599997729063 906
13.1799997724593 892
13.1999997720122 958
13.2199997715652 942
13.2399997711182 936
13.2599997706711 944
13.2799997702241 967
13.2999997697771 959
13.31999976933 909
13.339999768883 925
13.359999768436 973
13.3799997679889 935
13.3999997675419 960
13.4199997670949 1023
13.4399997666478 1014
13.4599997662008 980
13.4799997657537 912
13.4999997653067 906
13.5199997648597 952
13.5399997644126 906
13.5599997639656 957
13.5799997635186 955
13.5999997630715 1007
13.6199997626245 970
13.6399997621775 958
13.6599997617304 964
13.6799997612834 957
13.6999997608364 956
13.7199997603893 954
13.7399997599423 1024
13.7599997594953 949
13.7799997590482 960
13.7999997586012 982
13.8199997581542 996
13.8399997577071 954
13.8599997572601 953
13.879999756813 962
13.899999756366 1017
13.919999755919 957
13.9399997554719 977
13.9599997550249 979
13.9799997545779 1013
13.9999997541308 1000
14.0199997536838 985
14.0399997532368 1017
14.0599997527897 997
14.0799997523427 998
14.0999997518957 1007
14.1199997514486 1070
14.1399997510016 967
14.1599997505546 991
14.1799997501075 1045
14.1999997496605 1013
14.2199997492135 1047
14.2399997487664 1055
14.2599997483194 1064
14.2799997478724 1042
14.2999997474253 1056
14.3199997469783 1045
14.3399997465312 1068
14.3599997460842 1044
14.3799997456372 1084
14.3999997451901 1087
14.4199997447431 1050
14.4399997442961 1062
14.459999743849 1100
14.479999743402 1081
14.499999742955 1053
14.5199997425079 1062
14.5399997420609 1000
14.5599997416139 1101
14.5799997411668 1045
14.5999997407198 1055
14.6199997402728 1038
14.6399997398257 983
14.6599997393787 1040
14.6799997389317 999
14.6999997384846 1115
14.7199997380376 1052
14.7399997375906 1048
14.7599997371435 1092
14.7799997366965 1099
14.7999997362494 1060
14.8199997358024 1125
14.8399997353554 1125
14.8599997349083 1167
14.8799997344613 1101
14.8999997340143 1091
14.9199997335672 1105
14.9399997331202 1112
14.9599997326732 1110
14.9799997322261 1106
14.9999997317791 1076
15.0199997313321 1230
15.039999730885 1170
15.059999730438 1120
15.079999729991 1069
15.0999997295439 1155
15.1199997290969 1173
15.1399997286499 1110
15.1599997282028 1137
15.1799997277558 1124
15.1999997273088 1166
15.2199997268617 1137
15.2399997264147 1164
15.2599997259676 1179
15.2799997255206 1126
15.2999997250736 1181
15.3199997246265 1172
15.3399997241795 1191
15.3599997237325 1172
15.3799997232854 1179
15.3999997228384 1127
15.4199997223914 1132
15.4399997219443 1211
15.4599997214973 1194
15.4799997210503 1181
15.4999997206032 1140
15.5199997201562 1191
15.5399997197092 1124
15.5599997192621 1205
15.5799997188151 1154
15.5999997183681 1230
15.619999717921 1210
15.639999717474 1179
15.659999717027 1311
15.6799997165799 1182
15.6999997161329 1261
15.7199997156858 1183
15.7399997152388 1277
15.7599997147918 1248
15.7799997143447 1254
15.7999997138977 1147
15.8199997134507 1225
15.8399997130036 1229
15.8599997125566 1191
15.8799997121096 1257
15.8999997116625 1274
15.9199997112155 1218
15.9399997107685 1303
15.9599997103214 1273
15.9799997098744 1326
15.9999997094274 1237
16.0199997089803 1278
16.0399997085333 1261
16.0599997080863 1258
16.0799997076392 1325
16.0999997071922 1304
16.1199997067451 1264
16.1399997062981 1269
16.1599997058511 1263
16.179999705404 1343
16.199999704957 1346
16.21999970451 1342
16.2399997040629 1323
16.2599997036159 1337
16.2799997031689 1366
16.2999997027218 1342
16.3199997022748 1279
16.3399997018278 1327
16.3599997013807 1310
16.3799997009337 1338
16.3999997004867 1370
16.4199997000396 1355
16.4399996995926 1388
16.4599996991456 1444
16.4799996986985 1375
16.4999996982515 1371
16.5199996978045 1318
16.5399996973574 1404
16.5599996969104 1421
16.5799996964633 1376
16.5999996960163 1443
16.6199996955693 1451
16.6399996951222 1390
16.6599996946752 1398
16.6799996942282 1455
16.6999996937811 1442
16.7199996933341 1419
16.7399996928871 1470
16.75999969244 1485
16.779999691993 1531
16.799999691546 1506
16.8199996910989 1539
16.8399996906519 1614
16.8599996902049 1637
16.8799996897578 1712
16.8999996893108 1688
16.9199996888638 1875
16.9399996884167 2003
16.9599996879697 2165
16.9799996875226 2303
16.9999996870756 2176
17.0199996866286 1976
17.0399996861815 1834
17.0599996857345 1746
17.0799996852875 1638
17.0999996848404 1547
17.1199996843934 1514
17.1399996839464 1563
17.1599996834993 1561
17.1799996830523 1509
17.1999996826053 1549
17.2199996821582 1498
17.2399996817112 1526
17.2599996812642 1584
17.2799996808171 1639
17.2999996803701 1560
17.3199996799231 1610
17.339999679476 1592
17.359999679029 1632
17.379999678582 1621
17.3999996781349 1607
17.4199996776879 1660
17.4399996772408 1616
17.4599996767938 1520
17.4799996763468 1579
17.4999996758997 1612
17.5199996754527 1704
17.5399996750057 1564
17.5599996745586 1577
17.5799996741116 1664
17.5999996736646 1699
17.6199996732175 1632
17.6399996727705 1662
17.6599996723235 1613
17.6799996718764 1645
17.6999996714294 1693
17.7199996709824 1708
17.7399996705353 1682
17.7599996700883 1675
17.7799996696413 1676
17.7999996691942 1665
17.8199996687472 1644
17.8399996683002 1610
17.8599996678531 1623
17.8799996674061 1709
17.899999666959 1704
17.919999666512 1688
17.939999666065 1667
17.9599996656179 1701
17.9799996651709 1694
17.9999996647239 1723
18.0199996642768 1778
18.0399996638298 1699
18.0599996633828 1649
18.0799996629357 1694
18.0999996624887 1694
18.1199996620417 1747
18.1399996615946 1728
18.1599996611476 1678
18.1799996607006 1739
18.1999996602535 1715
18.2199996598065 1729
18.2399996593595 1856
18.2599996589124 1762
18.2799996584654 1708
18.2999996580184 1793
18.3199996575713 1787
18.3399996571243 1776
18.3599996566772 1824
18.3799996562302 1747
18.3999996557832 1801
18.4199996553361 1859
18.4399996548891 1788
18.4599996544421 1791
18.479999653995 1809
18.499999653548 1803
18.519999653101 1916
18.5399996526539 1833
18.5599996522069 1867
18.5799996517599 1786
18.5999996513128 1901
18.6199996508658 1892
18.6399996504188 1811
18.6599996499717 1946
18.6799996495247 1823
18.6999996490777 1950
18.7199996486306 1886
18.7399996481836 1901
18.7599996477366 1892
18.7799996472895 1905
18.7999996468425 1929
18.8199996463954 1819
18.8399996459484 1878
18.8599996455014 1962
18.8799996450543 1963
18.8999996446073 1992
18.9199996441603 1942
18.9399996437132 2023
18.9599996432662 1938
18.9799996428192 1964
18.9999996423721 2101
19.0199996419251 2017
19.0399996414781 1984
19.059999641031 1954
19.079999640584 2059
19.099999640137 2104
19.1199996396899 2024
19.1399996392429 1979
19.1599996387959 2043
19.1799996383488 2076
19.1999996379018 2012
19.2199996374547 2067
19.2399996370077 1982
19.2599996365607 2049
19.2799996361136 2110
19.2999996356666 2028
19.3199996352196 2108
19.3399996347725 2134
19.3599996343255 2112
19.3799996338785 2016
19.3999996334314 2053
19.4199996329844 2167
19.4399996325374 2121
19.4599996320903 2182
19.4799996316433 2153
19.4999996311963 2222
19.5199996307492 2235
19.5399996303022 2196
19.5599996298552 2102
19.5799996294081 2140
19.5999996289611 2126
19.6199996285141 2123
19.639999628067 2123
19.65999962762 2134
19.6799996271729 2107
19.6999996267259 2119
19.7199996262789 2090
19.7399996258318 2044
19.7599996253848 2153
19.7799996249378 2079
19.7999996244907 2221
19.8199996240437 2114
19.8399996235967 2172
19.8599996231496 2111
19.8799996227026 2136
19.8999996222556 2189
19.9199996218085 2146
19.9399996213615 2217
19.9599996209145 2171
19.9799996204674 2192
19.9999996200204 2170
