3 2103
3.01999999955297 2001
3.03999999910593 1878
3.0599999986589 1759
3.07999999821186 1695
3.09999999776483 1622
3.11999999731779 1603
3.13999999687076 1538
3.15999999642372 1569
3.17999999597669 1519
3.19999999552965 1485
3.21999999508262 1478
3.23999999463558 1462
3.25999999418855 1487
3.27999999374151 1430
3.29999999329448 1463
3.31999999284744 1427
3.33999999240041 1411
3.35999999195337 1377
3.37999999150634 1381
3.3999999910593 1336
3.41999999061227 1357
3.43999999016523 1345
3.4599999897182 1274
3.47999998927116 1309
3.49999998882413 1391
3.51999998837709 1326
3.53999998793006 1307
3.55999998748302 1310
3.57999998703599 1227
3.59999998658895 1221
3.61999998614192 1280
3.63999998569489 1292
3.65999998524785 1279
3.67999998480082 1280
3.69999998435378 1231
3.71999998390675 1201
3.73999998345971 1221
3.75999998301268 1212
3.77999998256564 1143
3.79999998211861 1186
3.81999998167157 1187
3.83999998122454 1213
3.8599999807775 1143
3.87999998033047 1208
3.89999997988343 1157
3.9199999794364 1171
3.93999997898936 1168
3.95999997854233 1170
3.97999997809529 1159
3.99999997764826 1118
4.01999997720122 1145
4.03999997675419 1145
4.05999997630715 1093
4.07999997586012 1118
4.09999997541308 1182
4.11999997496605 1148
4.13999997451901 1145
4.15999997407198 1151
4.17999997362494 1128
4.19999997317791 1138
4.21999997273087 1177
4.23999997228384 1171
4.25999997183681 1130
4.27999997138977 1116
4.29999997094274 1088
4.3199999704957 1092
4.33999997004867 1078
4.35999996960163 1052
4.3799999691546 1169
4.39999996870756 1158
4.41999996826053 1126
4.43999996781349 1074
4.45999996736646 1111
4.47999996691942 1113
4.49999996647239 1043
4.51999996602535 1080
4.53999996557832 1055
4.55999996513128 1104
4.57999996468425 1040
4.59999996423721 1132
4.61999996379018 1098
4.63999996334314 1044
4.65999996289611 1040
4.67999996244907 1087
4.69999996200204 1034
4.719999961555 1057
4.73999996110797 1006
4.75999996066093 1044
4.7799999602139 1083
4.79999995976686 1176
4.81999995931983 1071
4.83999995887279 1042
4.85999995842576 1096
4.87999995797873 1206
4.89999995753169 1159
4.91999995708466 1149
4.93999995663762 1153
4.95999995619059 1225
4.97999995574355 1167
4.99999995529652 1238
5.01999995484948 1215
5.03999995440245 1216
5.05999995395541 1199
5.07999995350838 1227
5.09999995306134 1301
5.11999995261431 1310
5.13999995216727 1357
5.15999995172024 1331
5.1799999512732 1351
5.19999995082617 1442
5.21999995037913 1451
5.2399999499321 1488
5.25999994948506 1482
5.27999994903803 1584
5.29999994859099 1623
5.31999994814396 1737
5.33999994769692 1733
5.35999994724989 1925
5.37999994680285 2005
5.39999994635582 2154
5.41999994590878 2293
5.43999994546175 2450
5.45999994501471 2578
5.47999994456768 2626
5.49999994412065 2693
5.51999994367361 2659
5.53999994322658 2585
5.55999994277954 2296
5.57999994233251 2107
5.59999994188547 2079
5.61999994143844 1985
5.6399999409914 1804
5.65999994054437 1751
5.67999994009733 1814
5.6999999396503 1795
5.71999993920326 1863
5.73999993875623 1928
5.75999993830919 1999
5.77999993786216 1905
5.79999993741512 2027
5.81999993696809 2075
5.83999993652105 1945
5.85999993607402 1850
5.87999993562698 1773
5.89999993517995 1634
5.91999993473291 1504
5.93999993428588 1374
5.95999993383884 1209
5.97999993339181 1171
5.99999993294477 1078
6.01999993249774 984
6.0399999320507 901
6.05999993160367 967
6.07999993115663 870
6.0999999307096 853
6.11999993026257 805
6.13999992981553 856
6.1599999293685 866
6.17999992892146 766
6.19999992847443 807
6.21999992802739 788
6.23999992758036 763
6.25999992713332 760
6.27999992668629 790
6.29999992623925 740
6.31999992579222 766
6.33999992534518 805
6.35999992489815 763
6.37999992445111 752
6.39999992400408 769
6.41999992355704 751
6.43999992311001 802
6.45999992266297 780
6.47999992221594 734
6.4999999217689 759
6.51999992132187 736
6.53999992087483 727
6.5599999204278 729
6.57999991998076 741
6.59999991953373 756
6.61999991908669 787
6.63999991863966 795
6.65999991819262 763
6.67999991774559 765
6.69999991729855 775
6.71999991685152 775
6.73999991640449 785
6.75999991595745 742
6.77999991551042 770
6.79999991506338 779
6.81999991461635 801
6.83999991416931 809
6.85999991372228 753
6.87999991327524 797
6.89999991282821 738
6.91999991238117 797
6.93999991193414 712
6.9599999114871 721
6.97999991104007 757
6.99999991059303 757
7.019999910146 690
7.03999990969896 692
7.05999990925193 711
7.07999990880489 723
7.09999990835786 678
7.11999990791082 696
7.13999990746379 690
7.15999990701675 704
7.17999990656972 670
7.19999990612268 699
7.21999990567565 696
7.23999990522861 707
7.25999990478158 677
7.27999990433454 664
7.29999990388751 647
7.31999990344047 619
7.33999990299344 666
7.35999990254641 694
7.37999990209937 686
7.39999990165234 660
7.4199999012053 649
7.43999990075827 671
7.45999990031123 670
7.4799998998642 627
7.49999989941716 657
7.51999989897013 681
7.53999989852309 690
7.55999989807606 640
7.57999989762902 641
7.59999989718199 648
7.61999989673495 646
7.63999989628792 646
7.65999989584088 645
7.67999989539385 596
7.69999989494681 649
7.71999989449978 665
7.73999989405274 643
7.75999989360571 695
7.77999989315867 660
7.79999989271164 635
7.8199998922646 641
7.83999989181757 681
7.85999989137053 727
7.8799998909235 671
7.89999989047646 660
7.91999989002943 714
7.9399998895824 688
7.95999988913536 643
7.97999988868833 632
7.99999988824129 665
8.01999988779426 658
8.03999988734722 653
8.05999988690019 673
8.07999988645315 651
8.09999988600612 730
8.11999988555908 671
8.13999988511205 691
8.15999988466501 669
8.17999988421798 640
8.19999988377094 703
8.21999988332391 658
8.23999988287687 680
8.25999988242984 677
8.2799998819828 669
8.29999988153577 672
8.31999988108873 674
8.3399998806417 651
8.35999988019466 677
8.37999987974763 656
8.39999987930059 641
8.41999987885356 683
8.43999987840652 656
8.45999987795949 676
8.47999987751245 674
8.49999987706542 718
8.51999987661839 695
8.53999987617135 620
8.55999987572432 687
8.57999987527728 667
8.59999987483025 718
8.61999987438321 652
8.63999987393618 683
8.65999987348914 674
8.67999987304211 677
8.69999987259507 664
8.71999987214804 639
8.739999871701 649
8.75999987125397 704
8.77999987080693 679
8.7999998703599 704
8.81999986991286 675
8.83999986946583 689
8.85999986901879 759
8.87999986857176 721
8.89999986812472 708
8.91999986767769 748
8.93999986723065 693
8.95999986678362 711
8.97999986633658 703
8.99999986588955 737
9.01999986544251 790
9.03999986499548 785
9.05999986454844 768
9.07999986410141 813
9.09999986365438 860
9.11999986320734 811
9.13999986276031 856
9.15999986231327 861
9.17999986186624 970
9.1999998614192 946
9.21999986097217 973
9.23999986052513 1087
9.2599998600781 1100
9.27999985963106 1135
9.29999985918403 1265
9.31999985873699 1350
9.33999985828996 1545
9.35999985784292 1652
9.37999985739589 1778
9.39999985694885 1705
9.41999985650182 1447
9.43999985605478 1295
9.45999985560775 1226
9.47999985516071 1027
9.49999985471368 980
9.51999985426664 843
9.53999985381961 777
9.55999985337257 751
9.57999985292554 728
9.5999998524785 752
9.61999985203147 781
9.63999985158443 704
9.6599998511374 672
9.67999985069037 732
9.69999985024333 718
9.7199998497963 695
9.73999984934926 711
9.75999984890223 738
9.77999984845519 663
9.79999984800816 741
9.81999984756112 725
9.83999984711409 731
9.85999984666705 698
9.87999984622002 706
9.89999984577298 732
9.91999984532595 745
9.93999984487891 695
9.95999984443188 739
9.97999984398484 721
9.99999984353781 743
10.0199998430908 771
10.0399998426437 729
10.0599998421967 765
10.0799998417497 729
10.0999998413026 796
10.1199998408556 746
10.1399998404086 754
10.1599998399615 817
10.1799998395145 816
10.1999998390675 852
10.2199998386204 863
10.2399998381734 860
10.2599998377264 770
10.2799998372793 833
10.2999998368323 761
10.3199998363853 804
10.3399998359382 733
10.3599998354912 714
10.3799998350441 751
10.3999998345971 685
10.4199998341501 734
10.439999833703 772
10.459999833256 780
10.479999832809 741
10.4999998323619 709
10.5199998319149 796
10.5399998314679 795
10.5599998310208 736
10.5799998305738 788
10.5999998301268 830
10.6199998296797 767
10.6399998292327 805
10.6599998287857 883
10.6799998283386 928
10.6999998278916 942
10.7199998274446 969
10.7399998269975 1018
10.7599998265505 1074
10.7799998261034 1158
10.7999998256564 1200
10.8199998252094 1231
10.8399998247623 1247
10.8599998243153 1280
10.8799998238683 1192
10.8999998234212 1120
10.9199998229742 1104
10.9399998225272 1133
10.9599998220801 1174
10.9799998216331 1040
10.9999998211861 1152
11.019999820739 1056
11.039999820292 1022
11.059999819845 1022
11.0799998193979 945
11.0999998189509 855
11.1199998185039 842
11.1399998180568 801
11.1599998176098 804
11.1799998171628 770
11.1999998167157 719
11.2199998162687 727
11.2399998158216 687
11.2599998153746 720
11.2799998149276 720
11.2999998144805 717
11.3199998140335 717
11.3399998135865 729
11.3599998131394 729
11.3799998126924 766
11.3999998122454 739
11.4199998117983 777
11.4399998113513 788
11.4599998109043 771
11.4799998104572 795
11.4999998100102 816
11.5199998095632 777
11.5399998091161 781
11.5599998086691 779
11.5799998082221 816
11.599999807775 809
11.619999807328 786
11.639999806881 745
11.6599998064339 745
11.6799998059869 779
11.6999998055398 771
11.7199998050928 720
11.7399998046458 711
11.7599998041987 672
11.7799998037517 711
11.7999998033047 718
11.8199998028576 736
11.8399998024106 692
11.8599998019636 708
11.8799998015165 714
11.8999998010695 722
11.9199998006225 715
11.9399998001754 707
11.9599997997284 678
11.9799997992814 713
11.9999997988343 723
12.0199997983873 699
12.0399997979403 667
12.0599997974932 699
12.0799997970462 754
12.0999997965992 742
12.1199997961521 716
12.1399997957051 738
12.159999795258 766
12.179999794811 788
12.199999794364 778
12.2199997939169 830
12.2399997934699 769
12.2599997930229 759
12.2799997925758 825
12.2999997921288 769
12.3199997916818 796
12.3399997912347 815
12.3599997907877 768
12.3799997903407 797
12.3999997898936 796
12.4199997894466 757
12.4399997889996 794
12.4599997885525 763
12.4799997881055 732
12.4999997876585 757
12.5199997872114 740
12.5399997867644 723
12.5599997863173 711
12.5799997858703 747
12.5999997854233 713
12.6199997849762 778
12.6399997845292 694
12.6599997840822 696
12.6799997836351 761
12.6999997831881 737
12.7199997827411 747
12.739999782294 676
12.759999781847 746
12.7799997814 761
12.7999997809529 718
12.8199997805059 738
12.8399997800589 729
12.8599997796118 753
12.8799997791648 737
12.8999997787178 787
12.9199997782707 748
12.9399997778237 712
12.9599997773767 731
12.9799997769296 747
12.9999997764826 720
13.0199997760355 753
13.0399997755885 722
13.0599997751415 734
13.0799997746944 789
13.0999997742474 727
13.1199997738004 687
13.1399997733533 765
13.1599997729063 760
13.1799997724593 791
13.1999997720122 803
13.2199997715652 732
13.2399997711182 746
13.2599997706711 797
13.2799997702241 789
13.2999997697771 812
13.31999976933 795
13.339999768883 823
13.359999768436 754
13.3799997679889 811
13.3999997675419 801
13.4199997670949 768
13.4399997666478 739
13.4599997662008 782
13.4799997657537 792
13.4999997653067 814
13.5199997648597 832
13.5399997644126 809
13.5599997639656 802
13.5799997635186 789
13.5999997630715 746
13.6199997626245 808
13.6399997621775 810
13.6599997617304 797
13.6799997612834 767
13.6999997608364 806
13.7199997603893 835
13.7399997599423 847
13.7599997594953 774
13.7799997590482 820
13.7999997586012 855
13.8199997581542 803
13.8399997577071 722
13.8599997572601 809
13.879999756813 780
13.899999756366 833
13.919999755919 787
13.9399997554719 836
13.9599997550249 795
13.9799997545779 850
13.9999997541308 850
14.0199997536838 804
14.0399997532368 778
14.0599997527897 837
14.0799997523427 819
14.0999997518957 835
14.1199997514486 800
14.1399997510016 787
14.1599997505546 839
14.1799997501075 865
14.1999997496605 872
14.2199997492135 797
14.2399997487664 854
14.2599997483194 897
14.2799997478724 891
14.2999997474253 882
14.3199997469783 922
14.3399997465312 913
14.3599997460842 929
14.3799997456372 892
14.3999997451901 922
14.4199997447431 875
14.4399997442961 846
14.459999743849 873
14.479999743402 891
14.499999742955 863
14.5199997425079 911
14.5399997420609 883
14.5599997416139 901
14.5799997411668 868
14.5999997407198 844
14.6199997402728 851
14.6399997398257 848
14.6599997393787 880
14.6799997389317 869
14.6999997384846 833
14.7199997380376 893
14.7399997375906 888
14.7599997371435 935
14.7799997366965 868
14.7999997362494 924
14.8199997358024 888
14.8399997353554 898
14.8599997349083 928
14.8799997344613 900
14.8999997340143 916
14.9199997335672 904
14.9399997331202 869
14.9599997326732 891
14.9799997322261 914
14.9999997317791 905
15.0199997313321 901
15.039999730885 886
15.059999730438 875
15.079999729991 892
15.0999997295439 889
15.1199997290969 891
15.1399997286499 969
15.1599997282028 973
15.1799997277558 960
15.1999997273088 868
15.2199997268617 880
15.2399997264147 866
15.2599997259676 904
15.2799997255206 910
15.2999997250736 869
15.3199997246265 936
15.3399997241795 987
15.3599997237325 961
15.3799997232854 947
15.3999997228384 936
15.4199997223914 923
15.4399997219443 919
15.4599997214973 932
15.4799997210503 982
15.4999997206032 947
15.5199997201562 968
15.5399997197092 967
15.5599997192621 969
15.5799997188151 928
15.5999997183681 952
15.619999717921 958
15.639999717474 959
15.659999717027 942
15.6799997165799 938
15.6999997161329 967
15.7199997156858 962
15.7399997152388 937
15.7599997147918 935
15.7799997143447 958
15.7999997138977 994
15.8199997134507 1017
15.8399997130036 940
15.8599997125566 932
15.8799997121096 957
15.8999997116625 968
15.9199997112155 984
15.9399997107685 963
15.9599997103214 1024
15.9799997098744 999
15.9999997094274 965
16.0199997089803 965
16.0399997085333 1033
16.0599997080863 1012
16.0799997076392 969
16.0999997071922 1005
16.1199997067451 1025
16.1399997062981 1025
16.1599997058511 1028
16.179999705404 1074
16.199999704957 1124
16.21999970451 1122
16.2399997040629 1050
16.2599997036159 1063
16.2799997031689 1101
16.2999997027218 984
16.3199997022748 1117
16.3399997018278 1092
16.3599997013807 1104
16.3799997009337 1084
16.3999997004867 1070
16.4199997000396 1095
16.4399996995926 1144
16.4599996991456 1085
16.4799996986985 1102
16.4999996982515 1131
16.5199996978045 1118
16.5399996973574 1106
16.5599996969104 1124
16.5799996964633 1151
16.5999996960163 1113
16.6199996955693 1084
16.6399996951222 1143
16.6599996946752 1065
16.6799996942282 1104
16.6999996937811 1081
16.7199996933341 1075
16.7399996928871 1127
16.75999969244 1117
16.779999691993 1162
16.799999691546 1219
16.8199996910989 1189
16.8399996906519 1127
16.8599996902049 1138
16.8799996897578 1200
16.8999996893108 1174
16.9199996888638 1227
16.9399996884167 1221
16.9599996879697 1336
16.9799996875226 1400
16.9999996870756 1416
17.0199996866286 1390
17.0399996861815 1310
17.0599996857345 1282
17.0799996852875 1249
17.0999996848404 1199
17.1199996843934 1211
17.1399996839464 1244
17.1599996834993 1173
17.1799996830523 1193
17.1999996826053 1196
17.2199996821582 1223
17.2399996817112 1216
17.2599996812642 1245
17.2799996808171 1274
17.2999996803701 1237
17.3199996799231 1247
17.339999679476 1202
17.359999679029 1269
17.379999678582 1361
17.3999996781349 1228
17.4199996776879 1279
17.4399996772408 1309
17.4599996767938 1210
17.4799996763468 1297
17.4999996758997 1297
17.5199996754527 1299
17.5399996750057 1211
17.5599996745586 1227
17.5799996741116 1299
17.5999996736646 1286
17.6199996732175 1308
17.6399996727705 1299
17.6599996723235 1265
17.6799996718764 1302
17.6999996714294 1316
17.7199996709824 1278
17.7399996705353 1317
17.7599996700883 1295
17.7799996696413 1365
17.7999996691942 1318
17.8199996687472 1307
17.8399996683002 1388
17.8599996678531 1371
17.8799996674061 1296
17.899999666959 1315
17.919999666512 1336
17.939999666065 1396
17.9599996656179 1332
17.9799996651709 1335
17.9999996647239 1291
18.0199996642768 1306
18.0399996638298 1352
18.0599996633828 1361
18.0799996629357 1318
18.0999996624887 1389
18.1199996620417 1346
18.1399996615946 1311
18.1599996611476 1383
18.1799996607006 1307
18.1999996602535 1340
18.2199996598065 1338
18.2399996593595 1318
18.2599996589124 1391
18.2799996584654 1346
18.2999996580184 1349
18.3199996575713 1430
18.3399996571243 1379
18.3599996566772 1334
18.3799996562302 1434
18.3999996557832 1375
18.4199996553361 1311
18.4399996548891 1373
18.4599996544421 1344
18.479999653995 1418
18.499999653548 1370
18.519999653101 1376
18.5399996526539 1404
18.5599996522069 1373
18.5799996517599 1439
18.5999996513128 1397
18.6199996508658 1464
18.6399996504188 1493
18.6599996499717 1484
18.6799996495247 1562
18.6999996490777 1585
18.7199996486306 1548
18.7399996481836 1550
18.7599996477366 1567
18.7799996472895 1567
18.7999996468425 1500
18.8199996463954 1466
18.8399996459484 1467
18.8599996455014 1549
18.8799996450543 1499
18.8999996446073 1567
18.9199996441603 1531
18.9399996437132 1498
18.9599996432662 1490
18.9799996428192 1544
18.9999996423721 1574
19.0199996419251 1618
19.0399996414781 1597
19.059999641031 1606
19.079999640584 1608
19.099999640137 1625
19.1199996396899 1676
19.1399996392429 1659
19.1599996387959 1575
19.1799996383488 1667
19.1999996379018 1643
19.2199996374547 1582
19.2399996370077 1624
19.2599996365607 1602
19.2799996361136 1640
19.2999996356666 1596
19.3199996352196 1651
19.3399996347725 1613
19.3599996343255 1711
19.3799996338785 1712
19.3999996334314 1737
19.4199996329844 1706
19.4399996325374 1819
19.4599996320903 1954
19.4799996316433 1893
19.4999996311963 1940
19.5199996307492 1886
19.5399996303022 1877
19.5599996298552 1954
19.5799996294081 1988
19.5999996289611 1888
19.6199996285141 1827
19.639999628067 1822
19.65999962762 1662
19.6799996271729 1728
19.6999996267259 1691
19.7199996262789 1661
19.7399996258318 1591
19.7599996253848 1572
19.7799996249378 1562
19.7999996244907 1610
19.8199996240437 1604
19.8399996235967 1614
19.8599996231496 1625
19.8799996227026 1720
19.8999996222556 1729
19.9199996218085 1680
19.9399996213615 1662
19.9599996209145 1699
19.9799996204674 1628
19.9999996200204 1743
