3 2394
3.01999999955297 2289
3.03999999910593 2151
3.0599999986589 1989
3.07999999821186 1951
3.09999999776483 1871
3.11999999731779 1840
3.13999999687076 1873
3.15999999642372 1850
3.17999999597669 1834
3.19999999552965 1776
3.21999999508262 1789
3.23999999463558 1794
3.25999999418855 1681
3.27999999374151 1707
3.29999999329448 1728
3.31999999284744 1759
3.33999999240041 1696
3.35999999195337 1633
3.37999999150634 1700
3.3999999910593 1687
3.41999999061227 1634
3.43999999016523 1689
3.4599999897182 1669
3.47999998927116 1625
3.49999998882413 1638
3.51999998837709 1616
3.53999998793006 1605
3.55999998748302 1640
3.57999998703599 1715
3.59999998658895 1640
3.61999998614192 1653
3.63999998569489 1573
3.65999998524785 1572
3.67999998480082 1654
3.69999998435378 1572
3.71999998390675 1540
3.73999998345971 1630
3.75999998301268 1587
3.77999998256564 1563
3.79999998211861 1557
3.81999998167157 1696
3.83999998122454 1578
3.8599999807775 1564
3.87999998033047 1584
3.89999997988343 1581
3.9199999794364 1609
3.93999997898936 1672
3.95999997854233 1610
3.97999997809529 1565
3.99999997764826 1605
4.01999997720122 1638
4.03999997675419 1614
4.05999997630715 1666
4.07999997586012 1650
4.09999997541308 1691
4.11999997496605 1719
4.13999997451901 1655
4.15999997407198 1771
4.17999997362494 1642
4.19999997317791 1737
4.21999997273087 1748
4.23999997228384 1681
4.25999997183681 1731
4.27999997138977 1744
4.29999997094274 1845
4.3199999704957 1773
4.33999997004867 1755
4.35999996960163 1757
4.3799999691546 1834
4.39999996870756 1770
4.41999996826053 1866
4.43999996781349 1884
4.45999996736646 1868
4.47999996691942 1762
4.49999996647239 1828
4.51999996602535 1817
4.53999996557832 1903
4.55999996513128 1945
4.57999996468425 1894
4.59999996423721 1875
4.61999996379018 1916
4.63999996334314 1912
4.65999996289611 1907
4.67999996244907 1932
4.69999996200204 1969
4.719999961555 1936
4.73999996110797 1966
4.75999996066093 1982
4.7799999602139 1942
4.79999995976686 1885
4.81999995931983 1953
4.83999995887279 1928
4.85999995842576 1966
4.87999995797873 2013
4.89999995753169 1946
4.91999995708466 2018
4.93999995663762 1996
4.95999995619059 2033
4.97999995574355 2009
4.99999995529652 1993
5.01999995484948 2077
5.03999995440245 2009
5.05999995395541 2003
5.07999995350838 1998
5.09999995306134 2041
5.11999995261431 1999
5.13999995216727 2030
5.15999995172024 1991
5.1799999512732 2048
5.19999995082617 2036
5.21999995037913 2083
5.2399999499321 2032
5.25999994948506 2117
5.27999994903803 2124
5.29999994859099 2225
5.31999994814396 2166
5.33999994769692 2201
5.35999994724989 2293
5.37999994680285 2342
5.39999994635582 2484
5.41999994590878 2697
5.43999994546175 2600
5.45999994501471 2554
5.47999994456768 2305
5.49999994412065 2087
5.51999994367361 2000
5.53999994322658 1858
5.55999994277954 1945
5.57999994233251 1888
5.59999994188547 1909
5.61999994143844 1848
5.6399999409914 1825
5.65999994054437 1767
5.67999994009733 1706
5.6999999396503 1804
5.71999993920326 1702
5.73999993875623 1653
5.75999993830919 1701
5.77999993786216 1697
5.79999993741512 1648
5.81999993696809 1565
5.83999993652105 1506
5.85999993607402 1440
5.87999993562698 1435
5.89999993517995 1338
5.91999993473291 1358
5.93999993428588 1378
5.95999993383884 1342
5.97999993339181 1319
5.99999993294477 1297
6.01999993249774 1275
6.0399999320507 1282
6.05999993160367 1280
6.07999993115663 1224
6.0999999307096 1274
6.11999993026257 1185
6.13999992981553 1249
6.1599999293685 1179
6.17999992892146 1177
6.19999992847443 1190
6.21999992802739 1142
6.23999992758036 1110
6.25999992713332 1095
6.27999992668629 1164
6.29999992623925 1117
6.31999992579222 1144
6.33999992534518 1039
6.35999992489815 1108
6.37999992445111 1057
6.39999992400408 1083
6.41999992355704 1110
6.43999992311001 1070
6.45999992266297 1098
6.47999992221594 1044
6.4999999217689 1117
6.51999992132187 1037
6.53999992087483 1069
6.5599999204278 987
6.57999991998076 963
6.59999991953373 1048
6.61999991908669 989
6.63999991863966 1053
6.65999991819262 1009
6.67999991774559 974
6.69999991729855 992
6.71999991685152 989
6.73999991640449 1000
6.75999991595745 1025
6.77999991551042 986
6.79999991506338 978
6.81999991461635 972
6.83999991416931 941
6.85999991372228 1054
6.87999991327524 994
6.89999991282821 911
6.91999991238117 932
6.93999991193414 948
6.9599999114871 942
6.97999991104007 928
6.99999991059303 919
7.019999910146 960
7.03999990969896 942
7.05999990925193 957
7.07999990880489 897
7.09999990835786 887
7.11999990791082 894
7.13999990746379 933
7.15999990701675 877
7.17999990656972 907
7.19999990612268 921
7.21999990567565 880
7.23999990522861 936
7.25999990478158 910
7.27999990433454 945
7.29999990388751 885
7.31999990344047 852
7.33999990299344 891
7.35999990254641 904
7.37999990209937 872
7.39999990165234 873
7.4199999012053 896
7.43999990075827 865
7.45999990031123 915
7.4799998998642 888
7.49999989941716 874
7.51999989897013 899
7.53999989852309 915
7.55999989807606 888
7.57999989762902 873
7.59999989718199 901
7.61999989673495 859
7.63999989628792 894
7.65999989584088 911
7.67999989539385 897
7.69999989494681 850
7.71999989449978 879
7.73999989405274 903
7.75999989360571 873
7.77999989315867 821
7.79999989271164 849
7.8199998922646 845
7.83999989181757 913
7.85999989137053 855
7.8799998909235 875
7.89999989047646 898
7.91999989002943 846
7.9399998895824 831
7.95999988913536 822
7.97999988868833 883
7.99999988824129 891
8.01999988779426 892
8.03999988734722 872
8.05999988690019 853
8.07999988645315 843
8.09999988600612 894
8.11999988555908 893
8.13999988511205 841
8.15999988466501 846
8.17999988421798 849
8.19999988377094 888
8.21999988332391 880
8.23999988287687 889
8.25999988242984 850
8.2799998819828 801
8.29999988153577 862
8.31999988108873 880
8.3399998806417 910
8.35999988019466 879
8.37999987974763 936
8.39999987930059 859
8.41999987885356 904
8.43999987840652 939
8.45999987795949 911
8.47999987751245 883
8.49999987706542 906
8.51999987661839 849
8.53999987617135 920
8.55999987572432 891
8.57999987527728 875
8.59999987483025 882
8.61999987438321 883
8.63999987393618 941
8.65999987348914 853
8.67999987304211 875
8.69999987259507 894
8.71999987214804 877
8.739999871701 926
8.75999987125397 857
8.77999987080693 841
8.7999998703599 912
8.81999986991286 897
8.83999986946583 872
8.85999986901879 840
8.87999986857176 916
8.89999986812472 904
8.91999986767769 885
8.93999986723065 915
8.95999986678362 893
8.97999986633658 911
8.99999986588955 865
9.01999986544251 1001
9.03999986499548 926
9.05999986454844 924
9.07999986410141 945
9.09999986365438 941
9.11999986320734 974
9.13999986276031 965
9.15999986231327 960
9.17999986186624 998
9.1999998614192 1023
9.21999986097217 1042
9.23999986052513 1053
9.2599998600781 1038
9.27999985963106 1058
9.29999985918403 1175
9.31999985873699 1290
9.33999985828996 1310
9.35999985784292 1309
9.37999985739589 1272
9.39999985694885 1047
9.41999985650182 976
9.43999985605478 955
9.45999985560775 876
9.47999985516071 918
9.49999985471368 887
9.51999985426664 901
9.53999985381961 895
9.55999985337257 920
9.57999985292554 923
9.5999998524785 900
9.61999985203147 939
9.63999985158443 913
9.6599998511374 883
9.67999985069037 865
9.69999985024333 855
9.7199998497963 862
9.73999984934926 855
9.75999984890223 928
9.77999984845519 901
9.79999984800816 897
9.81999984756112 901
9.83999984711409 894
9.85999984666705 902
9.87999984622002 830
9.89999984577298 908
9.91999984532595 886
9.93999984487891 879
9.95999984443188 843
9.97999984398484 871
9.99999984353781 919
10.0199998430908 874
10.0399998426437 873
10.0599998421967 903
10.0799998417497 873
10.0999998413026 913
10.1199998408556 922
10.1399998404086 870
10.1599998399615 885
10.1799998395145 916
10.1999998390675 922
10.2199998386204 893
10.2399998381734 858
10.2599998377264 850
10.2799998372793 904
10.2999998368323 882
10.3199998363853 869
10.3399998359382 861
10.3599998354912 910
10.3799998350441 910
10.3999998345971 933
10.4199998341501 846
10.439999833703 855
10.459999833256 889
10.479999832809 911
10.4999998323619 883
10.5199998319149 925
10.5399998314679 883
10.5599998310208 856
10.5799998305738 883
10.5999998301268 904
10.6199998296797 912
10.6399998292327 936
10.6599998287857 982
10.6799998283386 946
10.6999998278916 981
10.7199998274446 1021
10.7399998269975 1034
10.7599998265505 1058
10.7799998261034 944
10.7999998256564 1043
10.8199998252094 1070
10.8399998247623 1024
10.8599998243153 999
10.8799998238683 957
10.8999998234212 1000
10.9199998229742 951
10.9399998225272 979
10.9599998220801 965
10.9799998216331 970
10.9999998211861 929
11.019999820739 895
11.039999820292 862
11.059999819845 891
11.0799998193979 865
11.0999998189509 857
11.1199998185039 863
11.1399998180568 904
11.1599998176098 871
11.1799998171628 868
11.1999998167157 894
11.2199998162687 875
11.2399998158216 891
11.2599998153746 858
11.2799998149276 872
11.2999998144805 841
11.3199998140335 858
11.3399998135865 922
11.3599998131394 894
11.3799998126924 843
11.3999998122454 879
11.4199998117983 874
11.4399998113513 865
11.4599998109043 839
11.4799998104572 917
11.4999998100102 889
11.5199998095632 898
11.5399998091161 892
11.5599998086691 927
11.5799998082221 974
11.599999807775 904
11.619999807328 834
11.639999806881 887
11.6599998064339 895
11.6799998059869 887
11.6999998055398 863
11.7199998050928 851
11.7399998046458 909
11.7599998041987 869
11.7799998037517 902
11.7999998033047 869
11.8199998028576 891
11.8399998024106 826
11.8599998019636 845
11.8799998015165 852
11.8999998010695 926
11.9199998006225 875
11.9399998001754 903
11.9599997997284 852
11.9799997992814 879
11.9999997988343 906
12.0199997983873 921
12.0399997979403 894
12.0599997974932 920
12.0799997970462 847
12.0999997965992 880
12.1199997961521 870
12.1399997957051 885
12.159999795258 925
12.179999794811 914
12.199999794364 918
12.2199997939169 932
12.2399997934699 895
12.2599997930229 892
12.2799997925758 943
12.2999997921288 907
12.3199997916818 907
12.3399997912347 909
12.3599997907877 904
12.3799997903407 906
12.3999997898936 885
12.4199997894466 921
12.4399997889996 943
12.4599997885525 895
12.4799997881055 879
12.4999997876585 902
12.5199997872114 910
12.5399997867644 857
12.5599997863173 849
12.5799997858703 879
12.5999997854233 903
12.6199997849762 879
12.6399997845292 913
12.6599997840822 896
12.6799997836351 933
12.6999997831881 904
12.7199997827411 975
12.739999782294 989
12.759999781847 941
12.7799997814 943
12.7999997809529 957
12.8199997805059 941
12.8399997800589 939
12.8599997796118 952
12.8799997791648 924
12.8999997787178 907
12.9199997782707 943
12.9399997778237 914
12.9599997773767 948
12.9799997769296 908
12.9999997764826 883
13.0199997760355 887
13.0399997755885 918
13.0599997751415 901
13.0799997746944 927
13.0999997742474 929
13.1199997738004 950
13.1399997733533 1002
13.1599997729063 880
13.1799997724593 967
13.1999997720122 932
13.2199997715652 915
13.2399997711182 939
13.2599997706711 955
13.2799997702241 967
13.2999997697771 917
13.31999976933 970
13.339999768883 949
13.359999768436 1003
13.3799997679889 978
13.3999997675419 962
13.4199997670949 928
13.4399997666478 941
13.4599997662008 889
13.4799997657537 920
13.4999997653067 933
13.5199997648597 929
13.5399997644126 913
13.5599997639656 944
13.5799997635186 959
13.5999997630715 961
13.6199997626245 948
13.6399997621775 913
13.6599997617304 922
13.6799997612834 918
13.6999997608364 901
13.7199997603893 938
13.7399997599423 921
13.7599997594953 937
13.7799997590482 942
13.7999997586012 902
13.8199997581542 1003
13.8399997577071 957
13.8599997572601 957
13.879999756813 942
13.899999756366 922
13.919999755919 914
13.9399997554719 929
13.9599997550249 971
13.9799997545779 972
13.9999997541308 964
14.0199997536838 964
14.0399997532368 971
14.0599997527897 948
14.0799997523427 985
14.0999997518957 917
14.1199997514486 995
14.1399997510016 965
14.1599997505546 917
14.1799997501075 991
14.1999997496605 1010
14.2199997492135 1008
14.2399997487664 975
14.2599997483194 943
14.2799997478724 953
14.2999997474253 961
14.3199997469783 989
14.3399997465312 1047
14.3599997460842 950
14.3799997456372 976
14.3999997451901 1008
14.4199997447431 1022
14.4399997442961 1009
14.459999743849 977
14.479999743402 970
14.499999742955 966
14.5199997425079 995
14.5399997420609 975
14.5599997416139 985
14.5799997411668 991
14.5999997407198 945
14.6199997402728 1004
14.6399997398257 907
14.6599997393787 978
14.6799997389317 953
14.6999997384846 986
14.7199997380376 979
14.7399997375906 929
14.7599997371435 1003
14.7799997366965 968
14.7999997362494 1045
14.8199997358024 982
14.8399997353554 958
14.8599997349083 951
14.8799997344613 998
14.8999997340143 1033
14.9199997335672 1002
14.9399997331202 1006
14.9599997326732 989
14.9799997322261 1036
14.9999997317791 1006
15.0199997313321 970
15.039999730885 1053
15.059999730438 995
15.079999729991 1001
15.0999997295439 1028
15.1199997290969 976
15.1399997286499 1015
15.1599997282028 1068
15.1799997277558 1002
15.1999997273088 1009
15.2199997268617 989
15.2399997264147 1041
15.2599997259676 1054
15.2799997255206 1024
15.2999997250736 1027
15.3199997246265 1024
15.3399997241795 1043
15.3599997237325 1063
15.3799997232854 1053
15.3999997228384 1037
15.4199997223914 1048
15.4399997219443 1060
15.4599997214973 1086
15.4799997210503 1089
15.4999997206032 1011
15.5199997201562 1027
15.5399997197092 1032
15.5599997192621 1057
15.5799997188151 1034
15.5999997183681 1045
15.619999717921 1088
15.639999717474 1097
15.659999717027 1091
15.6799997165799 1061
15.6999997161329 1094
15.7199997156858 1081
15.7399997152388 1085
15.7599997147918 1097
15.7799997143447 1117
15.7999997138977 1016
15.8199997134507 1110
15.8399997130036 1147
15.8599997125566 1102
15.8799997121096 1102
15.8999997116625 1071
15.9199997112155 1148
15.9399997107685 1158
15.9599997103214 1106
15.9799997098744 1176
15.9999997094274 1092
16.0199997089803 1065
16.0399997085333 1105
16.0599997080863 1104
16.0799997076392 1106
16.0999997071922 1126
16.1199997067451 1172
16.1399997062981 1142
16.1599997058511 1117
16.179999705404 1126
16.199999704957 1151
16.21999970451 1126
16.2399997040629 1181
16.2599997036159 1140
16.2799997031689 1175
16.2999997027218 1142
16.3199997022748 1169
16.3399997018278 1198
16.3599997013807 1110
16.3799997009337 1160
16.3999997004867 1152
16.4199997000396 1229
16.4399996995926 1237
16.4599996991456 1175
16.4799996986985 1188
16.4999996982515 1199
16.5199996978045 1162
16.5399996973574 1201
16.5599996969104 1227
16.5799996964633 1226
16.5999996960163 1175
16.6199996955693 1199
16.6399996951222 1204
16.6599996946752 1184
16.6799996942282 1287
16.6999996937811 1236
16.7199996933341 1192
16.7399996928871 1211
16.75999969244 1275
16.779999691993 1286
16.799999691546 1349
16.8199996910989 1435
16.8399996906519 1485
16.8599996902049 1547
16.8799996897578 1555
16.8999996893108 1578
16.9199996888638 1764
16.9399996884167 1969
16.9599996879697 2450
16.9799996875226 3800
16.9999996870756 4413
17.0199996866286 4031
17.0399996861815 3368
17.0599996857345 2484
17.0799996852875 1805
17.0999996848404 1384
17.1199996843934 1307
17.1399996839464 1299
17.1599996834993 1337
17.1799996830523 1328
17.1999996826053 1344
17.2199996821582 1301
17.2399996817112 1323
17.2599996812642 1319
17.2799996808171 1289
17.2999996803701 1295
17.3199996799231 1291
17.339999679476 1315
17.359999679029 1340
17.379999678582 1310
17.3999996781349 1325
17.4199996776879 1366
17.4399996772408 1339
17.4599996767938 1419
17.4799996763468 1361
17.4999996758997 1368
17.5199996754527 1382
17.5399996750057 1325
17.5599996745586 1335
17.5799996741116 1282
17.5999996736646 1362
17.6199996732175 1321
17.6399996727705 1363
17.6599996723235 1357
17.6799996718764 1406
17.6999996714294 1381
17.7199996709824 1347
17.7399996705353 1364
17.7599996700883 1421
17.7799996696413 1388
17.7999996691942 1397
17.8199996687472 1374
17.8399996683002 1334
17.8599996678531 1372
17.8799996674061 1434
17.899999666959 1403
17.919999666512 1370
17.939999666065 1332
17.9599996656179 1377
17.9799996651709 1450
17.9999996647239 1437
18.0199996642768 1401
18.0399996638298 1424
18.0599996633828 1362
18.0799996629357 1458
18.0999996624887 1472
18.1199996620417 1337
18.1399996615946 1430
18.1599996611476 1481
18.1799996607006 1391
18.1999996602535 1478
18.2199996598065 1494
18.2399996593595 1501
18.2599996589124 1387
18.2799996584654 1410
18.2999996580184 1462
18.3199996575713 1458
18.3399996571243 1385
18.3599996566772 1475
18.3799996562302 1446
18.3999996557832 1493
18.4199996553361 1504
18.4399996548891 1499
18.4599996544421 1461
18.479999653995 1479
18.499999653548 1478
18.519999653101 1531
18.5399996526539 1579
18.5599996522069 1534
18.5799996517599 1452
18.5999996513128 1523
18.6199996508658 1517
18.6399996504188 1547
18.6599996499717 1540
18.6799996495247 1529
18.6999996490777 1514
18.7199996486306 1574
18.7399996481836 1504
18.7599996477366 1558
18.7799996472895 1503
18.7999996468425 1584
18.8199996463954 1552
18.8399996459484 1566
18.8599996455014 1642
18.8799996450543 1506
18.8999996446073 1502
18.9199996441603 1581
18.9399996437132 1515
18.9599996432662 1585
18.9799996428192 1577
18.9999996423721 1544
19.0199996419251 1592
19.0399996414781 1630
19.059999641031 1618
19.079999640584 1521
19.099999640137 1665
19.1199996396899 1590
19.1399996392429 1565
19.1599996387959 1620
19.1799996383488 1583
19.1999996379018 1616
19.2199996374547 1623
19.2399996370077 1654
19.2599996365607 1627
19.2799996361136 1615
19.2999996356666 1575
19.3199996352196 1676
19.3399996347725 1633
19.3599996343255 1687
19.3799996338785 1771
19.3999996334314 1643
19.4199996329844 1708
19.4399996325374 1717
19.4599996320903 1723
19.4799996316433 1757
19.4999996311963 1709
19.5199996307492 1744
19.5399996303022 1708
19.5599996298552 1744
19.5799996294081 1788
19.5999996289611 1711
19.6199996285141 1647
19.639999628067 1683
19.65999962762 1696
19.6799996271729 1712
19.6999996267259 1720
19.7199996262789 1702
19.7399996258318 1679
19.7599996253848 1746
19.7799996249378 1696
19.7999996244907 1678
19.8199996240437 1731
19.8399996235967 1735
19.8599996231496 1745
19.8799996227026 1753
19.8999996222556 1685
19.9199996218085 1691
19.9399996213615 1685
19.9599996209145 1735
19.9799996204674 1742
19.9999996200204 1779
