3 2861
3.01999999955297 2643
3.03999999910593 2454
3.0599999986589 2379
3.07999999821186 2328
3.09999999776483 2219
3.11999999731779 2116
3.13999999687076 2047
3.15999999642372 2037
3.17999999597669 2041
3.19999999552965 1956
3.21999999508262 1999
3.23999999463558 1965
3.25999999418855 1925
3.27999999374151 1934
3.29999999329448 1868
3.31999999284744 1831
3.33999999240041 1774
3.35999999195337 1807
3.37999999150634 1744
3.3999999910593 1801
3.41999999061227 1778
3.43999999016523 1698
3.4599999897182 1699
3.47999998927116 1718
3.49999998882413 1597
3.51999998837709 1634
3.53999998793006 1608
3.55999998748302 1678
3.57999998703599 1611
3.59999998658895 1583
3.61999998614192 1562
3.63999998569489 1540
3.65999998524785 1567
3.67999998480082 1477
3.69999998435378 1536
3.71999998390675 1513
3.73999998345971 1451
3.75999998301268 1506
3.77999998256564 1409
3.79999998211861 1409
3.81999998167157 1401
3.83999998122454 1445
3.8599999807775 1420
3.87999998033047 1338
3.89999997988343 1388
3.9199999794364 1415
3.93999997898936 1433
3.95999997854233 1383
3.97999997809529 1290
3.99999997764826 1335
4.01999997720122 1225
4.03999997675419 1310
4.05999997630715 1261
4.07999997586012 1310
4.09999997541308 1302
4.11999997496605 1276
4.13999997451901 1224
4.15999997407198 1250
4.17999997362494 1266
4.19999997317791 1239
4.21999997273087 1215
4.23999997228384 1209
4.25999997183681 1237
4.27999997138977 1251
4.29999997094274 1199
4.3199999704957 1233
4.33999997004867 1208
4.35999996960163 1264
4.3799999691546 1184
4.39999996870756 1159
4.41999996826053 1147
4.43999996781349 1192
4.45999996736646 1130
4.47999996691942 1165
4.49999996647239 1132
4.51999996602535 1102
4.53999996557832 1153
4.55999996513128 1168
4.57999996468425 1046
4.59999996423721 1119
4.61999996379018 1096
4.63999996334314 1125
4.65999996289611 1111
4.67999996244907 1089
4.69999996200204 1142
4.719999961555 1072
4.73999996110797 1129
4.75999996066093 1040
4.7799999602139 1150
4.79999995976686 1073
4.81999995931983 1098
4.83999995887279 1069
4.85999995842576 1123
4.87999995797873 1088
4.89999995753169 1082
4.91999995708466 1081
4.93999995663762 1052
4.95999995619059 1004
4.97999995574355 1036
4.99999995529652 1048
5.01999995484948 1055
5.03999995440245 1150
5.05999995395541 1079
5.07999995350838 1174
5.09999995306134 1077
5.11999995261431 1157
5.13999995216727 1247
5.15999995172024 1134
5.1799999512732 1183
5.19999995082617 1226
5.21999995037913 1274
5.2399999499321 1262
5.25999994948506 1277
5.27999994903803 1301
5.29999994859099 1348
5.31999994814396 1373
5.33999994769692 1438
5.35999994724989 1434
5.37999994680285 1596
5.39999994635582 1579
5.41999994590878 1753
5.43999994546175 1859
5.45999994501471 1939
5.47999994456768 1863
5.49999994412065 1662
5.51999994367361 1495
5.53999994322658 1325
5.55999994277954 1260
5.57999994233251 1166
5.59999994188547 1135
5.61999994143844 1157
5.6399999409914 1079
5.65999994054437 1067
5.67999994009733 1017
5.6999999396503 1027
5.71999993920326 1031
5.73999993875623 992
5.75999993830919 978
5.77999993786216 977
5.79999993741512 961
5.81999993696809 918
5.83999993652105 968
5.85999993607402 911
5.87999993562698 897
5.89999993517995 911
5.91999993473291 944
5.93999993428588 903
5.95999993383884 932
5.97999993339181 882
5.99999993294477 860
6.01999993249774 857
6.0399999320507 855
6.05999993160367 836
6.07999993115663 872
6.0999999307096 840
6.11999993026257 806
6.13999992981553 857
6.1599999293685 798
6.17999992892146 846
6.19999992847443 818
6.21999992802739 862
6.23999992758036 807
6.25999992713332 851
6.27999992668629 812
6.29999992623925 810
6.31999992579222 828
6.33999992534518 790
6.35999992489815 809
6.37999992445111 790
6.39999992400408 802
6.41999992355704 804
6.43999992311001 800
6.45999992266297 807
6.47999992221594 758
6.4999999217689 790
6.51999992132187 774
6.53999992087483 764
6.5599999204278 845
6.57999991998076 773
6.59999991953373 790
6.61999991908669 810
6.63999991863966 782
6.65999991819262 754
6.67999991774559 757
6.69999991729855 787
6.71999991685152 778
6.73999991640449 777
6.75999991595745 812
6.77999991551042 753
6.79999991506338 764
6.81999991461635 731
6.83999991416931 778
6.85999991372228 750
6.87999991327524 769
6.89999991282821 774
6.91999991238117 735
6.93999991193414 758
6.9599999114871 759
6.97999991104007 766
6.99999991059303 706
7.019999910146 712
7.03999990969896 726
7.05999990925193 722
7.07999990880489 734
7.09999990835786 734
7.11999990791082 756
7.13999990746379 740
7.15999990701675 727
7.17999990656972 686
7.19999990612268 764
7.21999990567565 730
7.23999990522861 744
7.25999990478158 702
7.27999990433454 717
7.29999990388751 692
7.31999990344047 671
7.33999990299344 718
7.35999990254641 722
7.37999990209937 731
7.39999990165234 729
7.4199999012053 738
7.43999990075827 736
7.45999990031123 709
7.4799998998642 690
7.49999989941716 726
7.51999989897013 742
7.53999989852309 733
7.55999989807606 694
7.57999989762902 708
7.59999989718199 754
7.61999989673495 716
7.63999989628792 729
7.65999989584088 673
7.67999989539385 644
7.69999989494681 699
7.71999989449978 701
7.73999989405274 717
7.75999989360571 681
7.77999989315867 713
7.79999989271164 713
7.8199998922646 703
7.83999989181757 711
7.85999989137053 699
7.8799998909235 699
7.89999989047646 710
7.91999989002943 714
7.9399998895824 650
7.95999988913536 711
7.97999988868833 706
7.99999988824129 671
8.01999988779426 680
8.03999988734722 686
8.05999988690019 668
8.07999988645315 635
8.09999988600612 682
8.11999988555908 726
8.13999988511205 661
8.15999988466501 660
8.17999988421798 682
8.19999988377094 637
8.21999988332391 652
8.23999988287687 698
8.25999988242984 663
8.2799998819828 654
8.29999988153577 648
8.31999988108873 648
8.3399998806417 656
8.35999988019466 633
8.37999987974763 715
8.39999987930059 671
8.41999987885356 682
8.43999987840652 670
8.45999987795949 658
8.47999987751245 671
8.49999987706542 708
8.51999987661839 672
8.53999987617135 615
8.55999987572432 646
8.57999987527728 625
8.59999987483025 686
8.61999987438321 668
8.63999987393618 664
8.65999987348914 664
8.67999987304211 665
8.69999987259507 645
8.71999987214804 670
8.739999871701 640
8.75999987125397 656
8.77999987080693 674
8.7999998703599 653
8.81999986991286 640
8.83999986946583 639
8.85999986901879 662
8.87999986857176 653
8.89999986812472 673
8.91999986767769 643
8.93999986723065 626
8.95999986678362 695
8.97999986633658 650
8.99999986588955 680
9.01999986544251 656
9.03999986499548 706
9.05999986454844 710
9.07999986410141 676
9.09999986365438 723
9.11999986320734 684
9.13999986276031 720
9.15999986231327 748
9.17999986186624 743
9.1999998614192 692
9.21999986097217 726
9.23999986052513 741
9.2599998600781 804
9.27999985963106 862
9.29999985918403 807
9.31999985873699 889
9.33999985828996 898
9.35999985784292 1000
9.37999985739589 995
9.39999985694885 964
9.41999985650182 914
9.43999985605478 788
9.45999985560775 750
9.47999985516071 712
9.49999985471368 715
9.51999985426664 690
9.53999985381961 665
9.55999985337257 682
9.57999985292554 674
9.5999998524785 700
9.61999985203147 696
9.63999985158443 630
9.6599998511374 632
9.67999985069037 668
9.69999985024333 654
9.7199998497963 686
9.73999984934926 601
9.75999984890223 665
9.77999984845519 625
9.79999984800816 663
9.81999984756112 638
9.83999984711409 634
9.85999984666705 659
9.87999984622002 606
9.89999984577298 648
9.91999984532595 617
9.93999984487891 603
9.95999984443188 587
9.97999984398484 612
9.99999984353781 604
10.0199998430908 656
10.0399998426437 606
10.0599998421967 634
10.0799998417497 631
10.0999998413026 611
10.1199998408556 623
10.1399998404086 618
10.1599998399615 592
10.1799998395145 597
10.1999998390675 621
10.2199998386204 629
10.2399998381734 671
10.2599998377264 655
10.2799998372793 640
10.2999998368323 673
10.3199998363853 600
10.3399998359382 622
10.3599998354912 609
10.3799998350441 645
10.3999998345971 649
10.4199998341501 650
10.439999833703 628
10.459999833256 591
10.479999832809 626
10.4999998323619 607
10.5199998319149 652
10.5399998314679 624
10.5599998310208 638
10.5799998305738 648
10.5999998301268 676
10.6199998296797 665
10.6399998292327 645
10.6599998287857 666
10.6799998283386 682
10.6999998278916 669
10.7199998274446 702
10.7399998269975 710
10.7599998265505 685
10.7799998261034 766
10.7999998256564 771
10.8199998252094 772
10.8399998247623 802
10.8599998243153 732
10.8799998238683 742
10.8999998234212 671
10.9199998229742 656
10.9399998225272 687
10.9599998220801 665
10.9799998216331 642
10.9999998211861 627
11.019999820739 619
11.039999820292 633
11.059999819845 641
11.0799998193979 629
11.0999998189509 657
11.1199998185039 626
11.1399998180568 587
11.1599998176098 607
11.1799998171628 622
11.1999998167157 604
11.2199998162687 642
11.2399998158216 604
11.2599998153746 608
11.2799998149276 569
11.2999998144805 590
11.3199998140335 626
11.3399998135865 641
11.3599998131394 560
11.3799998126924 564
11.3999998122454 579
11.4199998117983 623
11.4399998113513 595
11.4599998109043 569
11.4799998104572 583
11.4999998100102 575
11.5199998095632 581
11.5399998091161 603
11.5599998086691 584
11.5799998082221 568
11.599999807775 618
11.619999807328 640
11.639999806881 595
11.6599998064339 639
11.6799998059869 601
11.6999998055398 645
11.7199998050928 601
11.7399998046458 614
11.7599998041987 630
11.7799998037517 619
11.7999998033047 616
11.8199998028576 634
11.8399998024106 601
11.8599998019636 571
11.8799998015165 611
11.8999998010695 629
11.9199998006225 633
11.9399998001754 631
11.9599997997284 610
11.9799997992814 634
11.9999997988343 625
12.0199997983873 625
12.0399997979403 607
12.0599997974932 596
12.0799997970462 669
12.0999997965992 620
12.1199997961521 618
12.1399997957051 614
12.159999795258 658
12.179999794811 663
12.199999794364 646
12.2199997939169 662
12.2399997934699 637
12.2599997930229 641
12.2799997925758 644
12.2999997921288 637
12.3199997916818 637
12.3399997912347 608
12.3599997907877 621
12.3799997903407 604
12.3999997898936 641
12.4199997894466 632
12.4399997889996 616
12.4599997885525 593
12.4799997881055 593
12.4999997876585 606
12.5199997872114 622
12.5399997867644 628
12.5599997863173 603
12.5799997858703 670
12.5999997854233 652
12.6199997849762 644
12.6399997845292 687
12.6599997840822 633
12.6799997836351 611
12.6999997831881 638
12.7199997827411 660
12.739999782294 627
12.759999781847 633
12.7799997814 627
12.7999997809529 625
12.8199997805059 583
12.8399997800589 641
12.8599997796118 657
12.8799997791648 648
12.8999997787178 642
12.9199997782707 631
12.9399997778237 638
12.9599997773767 673
12.9799997769296 653
12.9999997764826 648
13.0199997760355 657
13.0399997755885 652
13.0599997751415 655
13.0799997746944 657
13.0999997742474 681
13.1199997738004 671
13.1399997733533 686
13.1599997729063 664
13.1799997724593 668
13.1999997720122 700
13.2199997715652 639
13.2399997711182 674
13.2599997706711 654
13.2799997702241 636
13.2999997697771 669
13.31999976933 641
13.339999768883 629
13.359999768436 659
13.3799997679889 636
13.3999997675419 645
13.4199997670949 659
13.4399997666478 678
13.4599997662008 680
13.4799997657537 660
13.4999997653067 640
13.5199997648597 663
13.5399997644126 703
13.5599997639656 678
13.5799997635186 680
13.5999997630715 679
13.6199997626245 660
13.6399997621775 631
13.6599997617304 678
13.6799997612834 697
13.6999997608364 678
13.7199997603893 739
13.7399997599423 661
13.7599997594953 666
13.7799997590482 667
13.7999997586012 720
13.8199997581542 685
13.8399997577071 636
13.8599997572601 661
13.879999756813 679
13.899999756366 718
13.919999755919 684
13.9399997554719 661
13.9599997550249 677
13.9799997545779 686
13.9999997541308 669
14.0199997536838 700
14.0399997532368 668
14.0599997527897 697
14.0799997523427 699
14.0999997518957 672
14.1199997514486 684
14.1399997510016 738
14.1599997505546 718
14.1799997501075 715
14.1999997496605 715
14.2199997492135 694
14.2399997487664 728
14.2599997483194 717
14.2799997478724 714
14.2999997474253 731
14.3199997469783 736
14.3399997465312 769
14.3599997460842 728
14.3799997456372 720
14.3999997451901 777
14.4199997447431 661
14.4399997442961 740
14.459999743849 680
14.479999743402 650
14.499999742955 705
14.5199997425079 766
14.5399997420609 716
14.5599997416139 718
14.5799997411668 665
14.5999997407198 756
14.6199997402728 717
14.6399997398257 708
14.6599997393787 744
14.6799997389317 754
14.6999997384846 730
14.7199997380376 712
14.7399997375906 741
14.7599997371435 707
14.7799997366965 714
14.7999997362494 764
14.8199997358024 739
14.8399997353554 770
14.8599997349083 719
14.8799997344613 729
14.8999997340143 722
14.9199997335672 740
14.9399997331202 761
14.9599997326732 808
14.9799997322261 729
14.9999997317791 779
15.0199997313321 782
15.039999730885 779
15.059999730438 717
15.079999729991 748
15.0999997295439 798
15.1199997290969 772
15.1399997286499 795
15.1599997282028 765
15.1799997277558 735
15.1999997273088 754
15.2199997268617 739
15.2399997264147 725
15.2599997259676 811
15.2799997255206 776
15.2999997250736 757
15.3199997246265 803
15.3399997241795 786
15.3599997237325 806
15.3799997232854 819
15.3999997228384 794
15.4199997223914 836
15.4399997219443 781
15.4599997214973 785
15.4799997210503 780
15.4999997206032 793
15.5199997201562 793
15.5399997197092 773
15.5599997192621 766
15.5799997188151 783
15.5999997183681 831
15.619999717921 778
15.639999717474 814
15.659999717027 798
15.6799997165799 777
15.6999997161329 766
15.7199997156858 802
15.7399997152388 756
15.7599997147918 755
15.7799997143447 794
15.7999997138977 748
15.8199997134507 771
15.8399997130036 813
15.8599997125566 784
15.8799997121096 806
15.8999997116625 847
15.9199997112155 789
15.9399997107685 771
15.9599997103214 831
15.9799997098744 822
15.9999997094274 831
16.0199997089803 808
16.0399997085333 813
16.0599997080863 843
16.0799997076392 857
16.0999997071922 788
16.1199997067451 870
16.1399997062981 834
16.1599997058511 789
16.179999705404 932
16.199999704957 833
16.21999970451 897
16.2399997040629 885
16.2599997036159 876
16.2799997031689 823
16.2999997027218 866
16.3199997022748 867
16.3399997018278 862
16.3599997013807 868
16.3799997009337 883
16.3999997004867 870
16.4199997000396 849
16.4399996995926 872
16.4599996991456 890
16.4799996986985 919
16.4999996982515 892
16.5199996978045 898
16.5399996973574 870
16.5599996969104 880
16.5799996964633 912
16.5999996960163 906
16.6199996955693 857
16.6399996951222 954
16.6599996946752 858
16.6799996942282 904
16.6999996937811 904
16.7199996933341 895
16.7399996928871 915
16.75999969244 895
16.779999691993 943
16.799999691546 948
16.8199996910989 961
16.8399996906519 940
16.8599996902049 933
16.8799996897578 1048
16.8999996893108 1061
16.9199996888638 1141
16.9399996884167 1133
16.9599996879697 1185
16.9799996875226 1267
16.9999996870756 1423
17.0199996866286 1514
17.0399996861815 1533
17.0599996857345 1525
17.0799996852875 1344
17.0999996848404 1248
17.1199996843934 1169
17.1399996839464 1099
17.1599996834993 1048
17.1799996830523 961
17.1999996826053 1002
17.2199996821582 997
17.2399996817112 1032
17.2599996812642 959
17.2799996808171 938
17.2999996803701 999
17.3199996799231 923
17.339999679476 971
17.359999679029 1022
17.379999678582 964
17.3999996781349 981
17.4199996776879 969
17.4399996772408 947
17.4599996767938 996
17.4799996763468 1053
17.4999996758997 1008
17.5199996754527 984
17.5399996750057 956
17.5599996745586 997
17.5799996741116 1001
17.5999996736646 972
17.6199996732175 1094
17.6399996727705 1003
17.6599996723235 1046
17.6799996718764 1028
17.6999996714294 1003
17.7199996709824 1028
17.7399996705353 989
17.7599996700883 1068
17.7799996696413 994
17.7999996691942 1026
17.8199996687472 1075
17.8399996683002 1050
17.8599996678531 1047
17.8799996674061 1061
17.899999666959 1086
17.919999666512 1092
17.939999666065 1099
17.9599996656179 1071
17.9799996651709 1045
17.9999996647239 1045
18.0199996642768 1050
18.0399996638298 1065
18.0599996633828 1118
18.0799996629357 1073
18.0999996624887 1033
18.1199996620417 1064
18.1399996615946 1033
18.1599996611476 1079
18.1799996607006 1036
18.1999996602535 1047
18.2199996598065 1086
18.2399996593595 1091
18.2599996589124 1105
18.2799996584654 1086
18.2999996580184 1134
18.3199996575713 1062
18.3399996571243 1061
18.3599996566772 1096
18.3799996562302 1118
18.3999996557832 1137
18.4199996553361 1133
18.4399996548891 1146
18.4599996544421 1164
18.479999653995 1126
18.499999653548 1124
18.519999653101 1109
18.5399996526539 1145
18.5599996522069 1128
18.5799996517599 1152
18.5999996513128 1104
18.6199996508658 1136
18.6399996504188 1084
18.6599996499717 1221
18.6799996495247 1195
18.6999996490777 1210
18.7199996486306 1175
18.7399996481836 1188
18.7599996477366 1132
18.7799996472895 1169
18.7999996468425 1158
18.8199996463954 1146
18.8399996459484 1201
18.8599996455014 1165
18.8799996450543 1165
18.8999996446073 1153
18.9199996441603 1186
18.9399996437132 1166
18.9599996432662 1254
18.9799996428192 1236
18.9999996423721 1216
19.0199996419251 1213
19.0399996414781 1223
19.059999641031 1224
19.079999640584 1251
19.099999640137 1284
19.1199996396899 1193
19.1399996392429 1214
19.1599996387959 1210
19.1799996383488 1251
19.1999996379018 1213
19.2199996374547 1257
19.2399996370077 1223
19.2599996365607 1280
19.2799996361136 1270
19.2999996356666 1244
19.3199996352196 1214
19.3399996347725 1336
19.3599996343255 1257
19.3799996338785 1303
19.3999996334314 1297
19.4199996329844 1307
19.4399996325374 1296
19.4599996320903 1396
19.4799996316433 1272
19.4999996311963 1284
19.5199996307492 1266
19.5399996303022 1367
19.5599996298552 1278
19.5799996294081 1313
19.5999996289611 1298
19.6199996285141 1284
19.639999628067 1280
19.65999962762 1279
19.6799996271729 1318
19.6999996267259 1289
19.7199996262789 1271
19.7399996258318 1319
19.7599996253848 1300
19.7799996249378 1260
19.7999996244907 1317
19.8199996240437 1313
19.8399996235967 1298
19.8599996231496 1257
19.8799996227026 1338
19.8999996222556 1318
19.9199996218085 1286
19.9399996213615 1367
19.9599996209145 1338
19.9799996204674 1377
19.9999996200204 1313
