3 2625
3.01999999955297 2530
3.03999999910593 2466
3.0599999986589 2323
3.07999999821186 2159
3.09999999776483 2122
3.11999999731779 2151
3.13999999687076 2018
3.15999999642372 1988
3.17999999597669 2014
3.19999999552965 1986
3.21999999508262 1878
3.23999999463558 1827
3.25999999418855 1862
3.27999999374151 1812
3.29999999329448 1835
3.31999999284744 1794
3.33999999240041 1860
3.35999999195337 1752
3.37999999150634 1709
3.3999999910593 1751
3.41999999061227 1765
3.43999999016523 1749
3.4599999897182 1755
3.47999998927116 1740
3.49999998882413 1728
3.51999998837709 1617
3.53999998793006 1618
3.55999998748302 1685
3.57999998703599 1688
3.59999998658895 1715
3.61999998614192 1649
3.63999998569489 1607
3.65999998524785 1554
3.67999998480082 1548
3.69999998435378 1597
3.71999998390675 1566
3.73999998345971 1606
3.75999998301268 1558
3.77999998256564 1538
3.79999998211861 1576
3.81999998167157 1577
3.83999998122454 1550
3.8599999807775 1555
3.87999998033047 1515
3.89999997988343 1529
3.9199999794364 1565
3.93999997898936 1491
3.95999997854233 1457
3.97999997809529 1456
3.99999997764826 1498
4.01999997720122 1493
4.03999997675419 1412
4.05999997630715 1483
4.07999997586012 1517
4.09999997541308 1488
4.11999997496605 1499
4.13999997451901 1481
4.15999997407198 1468
4.17999997362494 1403
4.19999997317791 1421
4.21999997273087 1355
4.23999997228384 1446
4.25999997183681 1437
4.27999997138977 1429
4.29999997094274 1356
4.3199999704957 1432
4.33999997004867 1398
4.35999996960163 1437
4.3799999691546 1383
4.39999996870756 1355
4.41999996826053 1464
4.43999996781349 1439
4.45999996736646 1410
4.47999996691942 1460
4.49999996647239 1381
4.51999996602535 1432
4.53999996557832 1352
4.55999996513128 1360
4.57999996468425 1309
4.59999996423721 1375
4.61999996379018 1390
4.63999996334314 1290
4.65999996289611 1306
4.67999996244907 1325
4.69999996200204 1351
4.719999961555 1388
4.73999996110797 1342
4.75999996066093 1446
4.7799999602139 1393
4.79999995976686 1385
4.81999995931983 1354
4.83999995887279 1348
4.85999995842576 1344
4.87999995797873 1339
4.89999995753169 1341
4.91999995708466 1370
4.93999995663762 1418
4.95999995619059 1356
4.97999995574355 1443
4.99999995529652 1372
5.01999995484948 1433
5.03999995440245 1389
5.05999995395541 1365
5.07999995350838 1458
5.09999995306134 1367
5.11999995261431 1429
5.13999995216727 1444
5.15999995172024 1454
5.1799999512732 1493
5.19999995082617 1541
5.21999995037913 1497
5.2399999499321 1566
5.25999994948506 1603
5.27999994903803 1669
5.29999994859099 1659
5.31999994814396 1652
5.33999994769692 1772
5.35999994724989 1913
5.37999994680285 1923
5.39999994635582 1986
5.41999994590878 2179
5.43999994546175 2423
5.45999994501471 2500
5.47999994456768 2579
5.49999994412065 2315
5.51999994367361 1947
5.53999994322658 1731
5.55999994277954 1626
5.57999994233251 1572
5.59999994188547 1508
5.61999994143844 1415
5.6399999409914 1457
5.65999994054437 1405
5.67999994009733 1298
5.6999999396503 1364
5.71999993920326 1255
5.73999993875623 1279
5.75999993830919 1211
5.77999993786216 1276
5.79999993741512 1189
5.81999993696809 1209
5.83999993652105 1193
5.85999993607402 1093
5.87999993562698 1125
5.89999993517995 1166
5.91999993473291 999
5.93999993428588 1046
5.95999993383884 1057
5.97999993339181 1019
5.99999993294477 1037
6.01999993249774 1014
6.0399999320507 1056
6.05999993160367 995
6.07999993115663 939
6.0999999307096 965
6.11999993026257 944
6.13999992981553 976
6.1599999293685 1015
6.17999992892146 996
6.19999992847443 890
6.21999992802739 931
6.23999992758036 942
6.25999992713332 979
6.27999992668629 962
6.29999992623925 926
6.31999992579222 933
6.33999992534518 932
6.35999992489815 908
6.37999992445111 946
6.39999992400408 919
6.41999992355704 956
6.43999992311001 902
6.45999992266297 860
6.47999992221594 861
6.4999999217689 829
6.51999992132187 914
6.53999992087483 880
6.5599999204278 882
6.57999991998076 882
6.59999991953373 893
6.61999991908669 814
6.63999991863966 845
6.65999991819262 911
6.67999991774559 859
6.69999991729855 890
6.71999991685152 818
6.73999991640449 840
6.75999991595745 823
6.77999991551042 822
6.79999991506338 836
6.81999991461635 853
6.83999991416931 826
6.85999991372228 862
6.87999991327524 827
6.89999991282821 831
6.91999991238117 811
6.93999991193414 840
6.9599999114871 789
6.97999991104007 817
6.99999991059303 789
7.019999910146 778
7.03999990969896 826
7.05999990925193 754
7.07999990880489 842
7.09999990835786 795
7.11999990791082 814
7.13999990746379 834
7.15999990701675 820
7.17999990656972 831
7.19999990612268 793
7.21999990567565 840
7.23999990522861 781
7.25999990478158 755
7.27999990433454 776
7.29999990388751 774
7.31999990344047 788
7.33999990299344 789
7.35999990254641 768
7.37999990209937 841
7.39999990165234 834
7.4199999012053 800
7.43999990075827 770
7.45999990031123 769
7.4799998998642 743
7.49999989941716 786
7.51999989897013 762
7.53999989852309 742
7.55999989807606 782
7.57999989762902 772
7.59999989718199 729
7.61999989673495 830
7.63999989628792 826
7.65999989584088 763
7.67999989539385 771
7.69999989494681 694
7.71999989449978 780
7.73999989405274 822
7.75999989360571 779
7.77999989315867 814
7.79999989271164 763
7.8199998922646 772
7.83999989181757 754
7.85999989137053 766
7.8799998909235 766
7.89999989047646 828
7.91999989002943 769
7.9399998895824 726
7.95999988913536 733
7.97999988868833 729
7.99999988824129 743
8.01999988779426 748
8.03999988734722 684
8.05999988690019 752
8.07999988645315 724
8.09999988600612 779
8.11999988555908 748
8.13999988511205 751
8.15999988466501 736
8.17999988421798 719
8.19999988377094 762
8.21999988332391 761
8.23999988287687 752
8.25999988242984 794
8.2799998819828 762
8.29999988153577 722
8.31999988108873 713
8.3399998806417 719
8.35999988019466 737
8.37999987974763 753
8.39999987930059 778
8.41999987885356 728
8.43999987840652 777
8.45999987795949 769
8.47999987751245 766
8.49999987706542 691
8.51999987661839 708
8.53999987617135 700
8.55999987572432 668
8.57999987527728 713
8.59999987483025 725
8.61999987438321 695
8.63999987393618 730
8.65999987348914 732
8.67999987304211 739
8.69999987259507 732
8.71999987214804 706
8.739999871701 700
8.75999987125397 698
8.77999987080693 707
8.7999998703599 761
8.81999986991286 720
8.83999986946583 738
8.85999986901879 763
8.87999986857176 736
8.89999986812472 758
8.91999986767769 743
8.93999986723065 764
8.95999986678362 756
8.97999986633658 722
8.99999986588955 758
9.01999986544251 732
9.03999986499548 751
9.05999986454844 777
9.07999986410141 714
9.09999986365438 789
9.11999986320734 801
9.13999986276031 845
9.15999986231327 758
9.17999986186624 858
9.1999998614192 828
9.21999986097217 855
9.23999986052513 839
9.2599998600781 838
9.27999985963106 913
9.29999985918403 965
9.31999985873699 1032
9.33999985828996 1057
9.35999985784292 1123
9.37999985739589 1179
9.39999985694885 1191
9.41999985650182 1092
9.43999985605478 923
9.45999985560775 807
9.47999985516071 832
9.49999985471368 735
9.51999985426664 804
9.53999985381961 723
9.55999985337257 701
9.57999985292554 756
9.5999998524785 747
9.61999985203147 723
9.63999985158443 696
9.6599998511374 725
9.67999985069037 717
9.69999985024333 696
9.7199998497963 722
9.73999984934926 709
9.75999984890223 693
9.77999984845519 701
9.79999984800816 710
9.81999984756112 695
9.83999984711409 714
9.85999984666705 701
9.87999984622002 695
9.89999984577298 704
9.91999984532595 707
9.93999984487891 725
9.95999984443188 667
9.97999984398484 746
9.99999984353781 678
10.0199998430908 715
10.0399998426437 690
10.0599998421967 645
10.0799998417497 718
10.0999998413026 683
10.1199998408556 710
10.1399998404086 698
10.1599998399615 733
10.1799998395145 749
10.1999998390675 713
10.2199998386204 686
10.2399998381734 703
10.2599998377264 698
10.2799998372793 679
10.2999998368323 715
10.3199998363853 737
10.3399998359382 698
10.3599998354912 707
10.3799998350441 680
10.3999998345971 681
10.4199998341501 672
10.439999833703 670
10.459999833256 705
10.479999832809 717
10.4999998323619 733
10.5199998319149 718
10.5399998314679 768
10.5599998310208 691
10.5799998305738 718
10.5999998301268 752
10.6199998296797 746
10.6399998292327 758
10.6599998287857 736
10.6799998283386 772
10.6999998278916 787
10.7199998274446 777
10.7399998269975 786
10.7599998265505 893
10.7799998261034 885
10.7999998256564 896
10.8199998252094 874
10.8399998247623 940
10.8599998243153 925
10.8799998238683 814
10.8999998234212 810
10.9199998229742 804
10.9399998225272 753
10.9599998220801 766
10.9799998216331 765
10.9999998211861 710
11.019999820739 722
11.039999820292 678
11.059999819845 739
11.0799998193979 732
11.0999998189509 673
11.1199998185039 652
11.1399998180568 716
11.1599998176098 697
11.1799998171628 643
11.1999998167157 673
11.2199998162687 689
11.2399998158216 681
11.2599998153746 640
11.2799998149276 692
11.2999998144805 649
11.3199998140335 703
11.3399998135865 706
11.3599998131394 662
11.3799998126924 696
11.3999998122454 709
11.4199998117983 635
11.4399998113513 754
11.4599998109043 647
11.4799998104572 685
11.4999998100102 625
11.5199998095632 647
11.5399998091161 702
11.5599998086691 702
11.5799998082221 671
11.599999807775 668
11.619999807328 637
11.639999806881 709
11.6599998064339 698
11.6799998059869 662
11.6999998055398 686
11.7199998050928 677
11.7399998046458 681
11.7599998041987 714
11.7799998037517 661
11.7999998033047 639
11.8199998028576 703
11.8399998024106 686
11.8599998019636 702
11.8799998015165 715
11.8999998010695 691
11.9199998006225 727
11.9399998001754 717
11.9599997997284 687
11.9799997992814 690
11.9999997988343 648
12.0199997983873 734
12.0399997979403 687
12.0599997974932 717
12.0799997970462 678
12.0999997965992 673
12.1199997961521 723
12.1399997957051 688
12.159999795258 709
12.179999794811 705
12.199999794364 724
12.2199997939169 721
12.2399997934699 701
12.2599997930229 725
12.2799997925758 745
12.2999997921288 749
12.3199997916818 706
12.3399997912347 729
12.3599997907877 742
12.3799997903407 710
12.3999997898936 699
12.4199997894466 701
12.4399997889996 713
12.4599997885525 729
12.4799997881055 762
12.4999997876585 724
12.5199997872114 669
12.5399997867644 696
12.5599997863173 667
12.5799997858703 677
12.5999997854233 672
12.6199997849762 696
12.6399997845292 678
12.6599997840822 718
12.6799997836351 705
12.6999997831881 699
12.7199997827411 670
12.739999782294 673
12.759999781847 689
12.7799997814 703
12.7999997809529 700
12.8199997805059 696
12.8399997800589 702
12.8599997796118 721
12.8799997791648 697
12.8999997787178 737
12.9199997782707 685
12.9399997778237 738
12.9599997773767 739
12.9799997769296 768
12.9999997764826 750
13.0199997760355 743
13.0399997755885 731
13.0599997751415 726
13.0799997746944 689
13.0999997742474 759
13.1199997738004 758
13.1399997733533 735
13.1599997729063 762
13.1799997724593 722
13.1999997720122 725
13.2199997715652 755
13.2399997711182 753
13.2599997706711 749
13.2799997702241 749
13.2999997697771 689
13.31999976933 777
13.339999768883 765
13.359999768436 750
13.3799997679889 759
13.3999997675419 765
13.4199997670949 803
13.4399997666478 787
13.4599997662008 772
13.4799997657537 767
13.4999997653067 712
13.5199997648597 734
13.5399997644126 728
13.5599997639656 749
13.5799997635186 746
13.5999997630715 780
13.6199997626245 778
13.6399997621775 774
13.6599997617304 706
13.6799997612834 796
13.6999997608364 778
13.7199997603893 767
13.7399997599423 783
13.7599997594953 767
13.7799997590482 766
13.7999997586012 689
13.8199997581542 780
13.8399997577071 751
13.8599997572601 744
13.879999756813 725
13.899999756366 775
13.919999755919 775
13.9399997554719 739
13.9599997550249 776
13.9799997545779 820
13.9999997541308 823
14.0199997536838 795
14.0399997532368 753
14.0599997527897 795
14.0799997523427 754
14.0999997518957 746
14.1199997514486 744
14.1399997510016 779
14.1599997505546 766
14.1799997501075 728
14.1999997496605 800
14.2199997492135 795
14.2399997487664 826
14.2599997483194 800
14.2799997478724 857
14.2999997474253 826
14.3199997469783 843
14.3399997465312 805
14.3599997460842 837
14.3799997456372 771
14.3999997451901 799
14.4199997447431 831
14.4399997442961 822
14.459999743849 812
14.479999743402 832
14.499999742955 875
14.5199997425079 809
14.5399997420609 829
14.5599997416139 823
14.5799997411668 825
14.5999997407198 848
14.6199997402728 813
14.6399997398257 807
14.6599997393787 849
14.6799997389317 831
14.6999997384846 849
14.7199997380376 815
14.7399997375906 776
14.7599997371435 858
14.7799997366965 777
14.7999997362494 795
14.8199997358024 830
14.8399997353554 838
14.8599997349083 855
14.8799997344613 854
14.8999997340143 845
14.9199997335672 829
14.9399997331202 853
14.9599997326732 827
14.9799997322261 828
14.9999997317791 816
15.0199997313321 809
15.039999730885 830
15.059999730438 842
15.079999729991 877
15.0999997295439 867
15.1199997290969 792
15.1399997286499 835
15.1599997282028 885
15.1799997277558 881
15.1999997273088 864
15.2199997268617 835
15.2399997264147 844
15.2599997259676 831
15.2799997255206 937
15.2999997250736 833
15.3199997246265 894
15.3399997241795 880
15.3599997237325 923
15.3799997232854 864
15.3999997228384 869
15.4199997223914 870
15.4399997219443 899
15.4599997214973 868
15.4799997210503 897
15.4999997206032 923
15.5199997201562 892
15.5399997197092 875
15.5599997192621 930
15.5799997188151 912
15.5999997183681 895
15.619999717921 856
15.639999717474 937
15.659999717027 898
15.6799997165799 883
15.6999997161329 922
15.7199997156858 898
15.7399997152388 883
15.7599997147918 879
15.7799997143447 923
15.7999997138977 892
15.8199997134507 912
15.8399997130036 929
15.8599997125566 923
15.8799997121096 914
15.8999997116625 922
15.9199997112155 898
15.9399997107685 954
15.9599997103214 939
15.9799997098744 961
15.9999997094274 949
16.0199997089803 981
16.0399997085333 964
16.0599997080863 969
16.0799997076392 917
16.0999997071922 955
16.1199997067451 941
16.1399997062981 962
16.1599997058511 1003
16.179999705404 967
16.199999704957 936
16.21999970451 940
16.2399997040629 960
16.2599997036159 995
16.2799997031689 978
16.2999997027218 978
16.3199997022748 983
16.3399997018278 942
16.3599997013807 993
16.3799997009337 954
16.3999997004867 987
16.4199997000396 1006
16.4399996995926 1020
16.4599996991456 930
16.4799996986985 1025
16.4999996982515 1030
16.5199996978045 1026
16.5399996973574 1005
16.5599996969104 1022
16.5799996964633 992
16.5999996960163 984
16.6199996955693 1046
16.6399996951222 1012
16.6599996946752 1007
16.6799996942282 1082
16.6999996937811 1085
16.7199996933341 1043
16.7399996928871 1075
16.75999969244 1064
16.779999691993 1154
16.799999691546 1082
16.8199996910989 1113
16.8399996906519 1110
16.8599996902049 1166
16.8799996897578 1226
16.8999996893108 1150
16.9199996888638 1257
16.9399996884167 1315
16.9599996879697 1354
16.9799996875226 1478
16.9999996870756 1615
17.0199996866286 1872
17.0399996861815 2048
17.0599996857345 2145
17.0799996852875 1978
17.0999996848404 1712
17.1199996843934 1414
17.1399996839464 1268
17.1599996834993 1154
17.1799996830523 1207
17.1999996826053 1165
17.2199996821582 1142
17.2399996817112 1073
17.2599996812642 1119
17.2799996808171 1198
17.2999996803701 1166
17.3199996799231 1221
17.339999679476 1109
17.359999679029 1117
17.379999678582 1177
17.3999996781349 1165
17.4199996776879 1187
17.4399996772408 1220
17.4599996767938 1216
17.4799996763468 1144
17.4999996758997 1130
17.5199996754527 1174
17.5399996750057 1189
17.5599996745586 1153
17.5799996741116 1175
17.5999996736646 1210
17.6199996732175 1165
17.6399996727705 1242
17.6599996723235 1219
17.6799996718764 1144
17.6999996714294 1146
17.7199996709824 1216
17.7399996705353 1211
17.7599996700883 1244
17.7799996696413 1252
17.7999996691942 1209
17.8199996687472 1124
17.8399996683002 1169
17.8599996678531 1205
17.8799996674061 1156
17.899999666959 1261
17.919999666512 1319
17.939999666065 1202
17.9599996656179 1188
17.9799996651709 1275
17.9999996647239 1217
18.0199996642768 1226
18.0399996638298 1186
18.0599996633828 1199
18.0799996629357 1170
18.0999996624887 1196
18.1199996620417 1202
18.1399996615946 1265
18.1599996611476 1252
18.1799996607006 1259
18.1999996602535 1259
18.2199996598065 1295
18.2399996593595 1260
18.2599996589124 1211
18.2799996584654 1286
18.2999996580184 1287
18.3199996575713 1269
18.3399996571243 1299
18.3599996566772 1308
18.3799996562302 1285
18.3999996557832 1376
18.4199996553361 1361
18.4399996548891 1282
18.4599996544421 1286
18.479999653995 1284
18.499999653548 1300
18.519999653101 1326
18.5399996526539 1324
18.5599996522069 1332
18.5799996517599 1287
18.5999996513128 1400
18.6199996508658 1399
18.6399996504188 1273
18.6599996499717 1344
18.6799996495247 1370
18.6999996490777 1388
18.7199996486306 1340
18.7399996481836 1357
18.7599996477366 1402
18.7799996472895 1420
18.7999996468425 1420
18.8199996463954 1326
18.8399996459484 1318
18.8599996455014 1442
18.8799996450543 1431
18.8999996446073 1427
18.9199996441603 1338
18.9399996437132 1427
18.9599996432662 1421
18.9799996428192 1473
18.9999996423721 1404
19.0199996419251 1438
19.0399996414781 1378
19.059999641031 1462
19.079999640584 1450
19.099999640137 1408
19.1199996396899 1448
19.1399996392429 1447
19.1599996387959 1463
19.1799996383488 1438
19.1999996379018 1464
19.2199996374547 1483
19.2399996370077 1490
19.2599996365607 1479
19.2799996361136 1494
19.2999996356666 1471
19.3199996352196 1483
19.3399996347725 1497
19.3599996343255 1504
19.3799996338785 1563
19.3999996334314 1506
19.4199996329844 1555
19.4399996325374 1524
19.4599996320903 1614
19.4799996316433 1621
19.4999996311963 1627
19.5199996307492 1620
19.5399996303022 1562
19.5599996298552 1476
19.5799996294081 1583
19.5999996289611 1568
19.6199996285141 1594
19.639999628067 1573
19.65999962762 1558
19.6799996271729 1556
19.6999996267259 1580
19.7199996262789 1503
19.7399996258318 1591
19.7599996253848 1561
19.7799996249378 1571
19.7999996244907 1578
19.8199996240437 1511
19.8399996235967 1550
19.8599996231496 1546
19.8799996227026 1624
19.8999996222556 1537
19.9199996218085 1514
19.9399996213615 1537
19.9599996209145 1518
19.9799996204674 1599
19.9999996200204 1542
