3 2664
3.01999999955297 2571
3.03999999910593 2380
3.0599999986589 2166
3.07999999821186 2171
3.09999999776483 2041
3.11999999731779 2049
3.13999999687076 1953
3.15999999642372 1879
3.17999999597669 1973
3.19999999552965 1899
3.21999999508262 1909
3.23999999463558 1852
3.25999999418855 1731
3.27999999374151 1816
3.29999999329448 1817
3.31999999284744 1709
3.33999999240041 1721
3.35999999195337 1707
3.37999999150634 1644
3.3999999910593 1643
3.41999999061227 1620
3.43999999016523 1652
3.4599999897182 1576
3.47999998927116 1596
3.49999998882413 1483
3.51999998837709 1527
3.53999998793006 1526
3.55999998748302 1544
3.57999998703599 1546
3.59999998658895 1456
3.61999998614192 1452
3.63999998569489 1425
3.65999998524785 1400
3.67999998480082 1352
3.69999998435378 1425
3.71999998390675 1416
3.73999998345971 1332
3.75999998301268 1367
3.77999998256564 1364
3.79999998211861 1385
3.81999998167157 1279
3.83999998122454 1320
3.8599999807775 1274
3.87999998033047 1180
3.89999997988343 1259
3.9199999794364 1249
3.93999997898936 1259
3.95999997854233 1252
3.97999997809529 1238
3.99999997764826 1215
4.01999997720122 1248
4.03999997675419 1212
4.05999997630715 1154
4.07999997586012 1215
4.09999997541308 1233
4.11999997496605 1155
4.13999997451901 1208
4.15999997407198 1158
4.17999997362494 1195
4.19999997317791 1106
4.21999997273087 1139
4.23999997228384 1170
4.25999997183681 1064
4.27999997138977 1116
4.29999997094274 1071
4.3199999704957 1062
4.33999997004867 1139
4.35999996960163 1102
4.3799999691546 1064
4.39999996870756 1137
4.41999996826053 1117
4.43999996781349 1056
4.45999996736646 1066
4.47999996691942 1020
4.49999996647239 1064
4.51999996602535 1037
4.53999996557832 976
4.55999996513128 998
4.57999996468425 1009
4.59999996423721 1028
4.61999996379018 1025
4.63999996334314 1018
4.65999996289611 948
4.67999996244907 1046
4.69999996200204 1040
4.719999961555 971
4.73999996110797 970
4.75999996066093 1007
4.7799999602139 925
4.79999995976686 1024
4.81999995931983 1012
4.83999995887279 967
4.85999995842576 953
4.87999995797873 985
4.89999995753169 1044
4.91999995708466 993
4.93999995663762 975
4.95999995619059 1033
4.97999995574355 1006
4.99999995529652 1039
5.01999995484948 993
5.03999995440245 1044
5.05999995395541 999
5.07999995350838 1038
5.09999995306134 1050
5.11999995261431 1098
5.13999995216727 1077
5.15999995172024 1073
5.1799999512732 1071
5.19999995082617 1119
5.21999995037913 1154
5.2399999499321 1168
5.25999994948506 1226
5.27999994903803 1243
5.29999994859099 1305
5.31999994814396 1329
5.33999994769692 1438
5.35999994724989 1487
5.37999994680285 1527
5.39999994635582 1710
5.41999994590878 1852
5.43999994546175 1943
5.45999994501471 2142
5.47999994456768 2244
5.49999994412065 2139
5.51999994367361 1883
5.53999994322658 1718
5.55999994277954 1505
5.57999994233251 1278
5.59999994188547 1257
5.61999994143844 1176
5.6399999409914 1174
5.65999994054437 1114
5.67999994009733 1135
5.6999999396503 1094
5.71999993920326 1025
5.73999993875623 1019
5.75999993830919 983
5.77999993786216 1003
5.79999993741512 961
5.81999993696809 926
5.83999993652105 900
5.85999993607402 897
5.87999993562698 919
5.89999993517995 887
5.91999993473291 837
5.93999993428588 830
5.95999993383884 825
5.97999993339181 845
5.99999993294477 778
6.01999993249774 812
6.0399999320507 812
6.05999993160367 859
6.07999993115663 780
6.0999999307096 763
6.11999993026257 793
6.13999992981553 748
6.1599999293685 720
6.17999992892146 734
6.19999992847443 742
6.21999992802739 712
6.23999992758036 758
6.25999992713332 731
6.27999992668629 687
6.29999992623925 734
6.31999992579222 711
6.33999992534518 738
6.35999992489815 759
6.37999992445111 720
6.39999992400408 730
6.41999992355704 712
6.43999992311001 725
6.45999992266297 706
6.47999992221594 794
6.4999999217689 737
6.51999992132187 687
6.53999992087483 730
6.5599999204278 716
6.57999991998076 730
6.59999991953373 748
6.61999991908669 733
6.63999991863966 738
6.65999991819262 725
6.67999991774559 703
6.69999991729855 723
6.71999991685152 725
6.73999991640449 690
6.75999991595745 721
6.77999991551042 670
6.79999991506338 715
6.81999991461635 648
6.83999991416931 721
6.85999991372228 677
6.87999991327524 702
6.89999991282821 696
6.91999991238117 683
6.93999991193414 645
6.9599999114871 699
6.97999991104007 694
6.99999991059303 675
7.019999910146 682
7.03999990969896 666
7.05999990925193 705
7.07999990880489 711
7.09999990835786 715
7.11999990791082 688
7.13999990746379 655
7.15999990701675 681
7.17999990656972 681
7.19999990612268 686
7.21999990567565 625
7.23999990522861 662
7.25999990478158 650
7.27999990433454 662
7.29999990388751 642
7.31999990344047 685
7.33999990299344 643
7.35999990254641 640
7.37999990209937 656
7.39999990165234 678
7.4199999012053 690
7.43999990075827 594
7.45999990031123 623
7.4799998998642 673
7.49999989941716 635
7.51999989897013 638
7.53999989852309 661
7.55999989807606 695
7.57999989762902 661
7.59999989718199 650
7.61999989673495 652
7.63999989628792 624
7.65999989584088 618
7.67999989539385 608
7.69999989494681 651
7.71999989449978 617
7.73999989405274 632
7.75999989360571 633
7.77999989315867 646
7.79999989271164 625
7.8199998922646 659
7.83999989181757 625
7.85999989137053 625
7.8799998909235 628
7.89999989047646 599
7.91999989002943 641
7.9399998895824 622
7.95999988913536 648
7.97999988868833 612
7.99999988824129 638
8.01999988779426 617
8.03999988734722 631
8.05999988690019 617
8.07999988645315 619
8.09999988600612 622
8.11999988555908 638
8.13999988511205 636
8.15999988466501 649
8.17999988421798 602
8.19999988377094 622
8.21999988332391 612
8.23999988287687 661
8.25999988242984 610
8.2799998819828 619
8.29999988153577 594
8.31999988108873 607
8.3399998806417 627
8.35999988019466 613
8.37999987974763 615
8.39999987930059 599
8.41999987885356 611
8.43999987840652 650
8.45999987795949 660
8.47999987751245 614
8.49999987706542 607
8.51999987661839 587
8.53999987617135 598
8.55999987572432 640
8.57999987527728 621
8.59999987483025 593
8.61999987438321 625
8.63999987393618 608
8.65999987348914 620
8.67999987304211 624
8.69999987259507 624
8.71999987214804 615
8.739999871701 613
8.75999987125397 596
8.77999987080693 592
8.7999998703599 614
8.81999986991286 587
8.83999986946583 623
8.85999986901879 629
8.87999986857176 621
8.89999986812472 626
8.91999986767769 624
8.93999986723065 602
8.95999986678362 629
8.97999986633658 606
8.99999986588955 587
9.01999986544251 662
9.03999986499548 622
9.05999986454844 636
9.07999986410141 647
9.09999986365438 663
9.11999986320734 654
9.13999986276031 679
9.15999986231327 643
9.17999986186624 656
9.1999998614192 697
9.21999986097217 697
9.23999986052513 714
9.2599998600781 733
9.27999985963106 761
9.29999985918403 844
9.31999985873699 906
9.33999985828996 966
9.35999985784292 1021
9.37999985739589 1044
9.39999985694885 1098
9.41999985650182 1075
9.43999985605478 976
9.45999985560775 798
9.47999985516071 765
9.49999985471368 729
9.51999985426664 661
9.53999985381961 620
9.55999985337257 677
9.57999985292554 646
9.5999998524785 675
9.61999985203147 671
9.63999985158443 634
9.6599998511374 636
9.67999985069037 608
9.69999985024333 618
9.7199998497963 629
9.73999984934926 602
9.75999984890223 634
9.77999984845519 615
9.79999984800816 579
9.81999984756112 654
9.83999984711409 595
9.85999984666705 579
9.87999984622002 586
9.89999984577298 580
9.91999984532595 583
9.93999984487891 606
9.95999984443188 588
9.97999984398484 601
9.99999984353781 582
10.0199998430908 569
10.0399998426437 626
10.0599998421967 601
10.0799998417497 625
10.0999998413026 616
10.1199998408556 603
10.1399998404086 604
10.1599998399615 598
10.1799998395145 585
10.1999998390675 606
10.2199998386204 602
10.2399998381734 596
10.2599998377264 578
10.2799998372793 614
10.2999998368323 559
10.3199998363853 600
10.3399998359382 588
10.3599998354912 545
10.3799998350441 576
10.3999998345971 582
10.4199998341501 586
10.439999833703 590
10.459999833256 585
10.479999832809 588
10.4999998323619 549
10.5199998319149 608
10.5399998314679 607
10.5599998310208 645
10.5799998305738 612
10.5999998301268 624
10.6199998296797 647
10.6399998292327 609
10.6599998287857 609
10.6799998283386 627
10.6999998278916 624
10.7199998274446 690
10.7399998269975 693
10.7599998265505 687
10.7799998261034 789
10.7999998256564 827
10.8199998252094 789
10.8399998247623 804
10.8599998243153 839
10.8799998238683 829
10.8999998234212 736
10.9199998229742 704
10.9399998225272 690
10.9599998220801 725
10.9799998216331 686
10.9999998211861 703
11.019999820739 667
11.039999820292 648
11.059999819845 624
11.0799998193979 620
11.0999998189509 630
11.1199998185039 592
11.1399998180568 582
11.1599998176098 582
11.1799998171628 568
11.1999998167157 575
11.2199998162687 567
11.2399998158216 558
11.2599998153746 596
11.2799998149276 590
11.2999998144805 609
11.3199998140335 548
11.3399998135865 564
11.3599998131394 577
11.3799998126924 596
11.3999998122454 557
11.4199998117983 598
11.4399998113513 553
11.4599998109043 551
11.4799998104572 588
11.4999998100102 578
11.5199998095632 562
11.5399998091161 598
11.5599998086691 575
11.5799998082221 642
11.599999807775 574
11.619999807328 576
11.639999806881 616
11.6599998064339 556
11.6799998059869 569
11.6999998055398 588
11.7199998050928 587
11.7399998046458 574
11.7599998041987 535
11.7799998037517 533
11.7999998033047 575
11.8199998028576 553
11.8399998024106 605
11.8599998019636 568
11.8799998015165 567
11.8999998010695 537
11.9199998006225 577
11.9399998001754 583
11.9599997997284 608
11.9799997992814 567
11.9999997988343 574
12.0199997983873 625
12.0399997979403 594
12.0599997974932 585
12.0799997970462 583
12.0999997965992 597
12.1199997961521 584
12.1399997957051 576
12.159999795258 586
12.179999794811 608
12.199999794364 595
12.2199997939169 607
12.2399997934699 616
12.2599997930229 653
12.2799997925758 632
12.2999997921288 583
12.3199997916818 632
12.3399997912347 681
12.3599997907877 617
12.3799997903407 595
12.3999997898936 558
12.4199997894466 579
12.4399997889996 583
12.4599997885525 588
12.4799997881055 611
12.4999997876585 577
12.5199997872114 581
12.5399997867644 607
12.5599997863173 570
12.5799997858703 605
12.5999997854233 566
12.6199997849762 592
12.6399997845292 613
12.6599997840822 606
12.6799997836351 592
12.6999997831881 603
12.7199997827411 633
12.739999782294 622
12.759999781847 604
12.7799997814 576
12.7999997809529 584
12.8199997805059 595
12.8399997800589 599
12.8599997796118 597
12.8799997791648 549
12.8999997787178 566
12.9199997782707 641
12.9399997778237 597
12.9599997773767 562
12.9799997769296 655
12.9999997764826 596
13.0199997760355 636
13.0399997755885 596
13.0599997751415 617
13.0799997746944 563
13.0999997742474 617
13.1199997738004 640
13.1399997733533 613
13.1599997729063 605
13.1799997724593 603
13.1999997720122 586
13.2199997715652 638
13.2399997711182 615
13.2599997706711 636
13.2799997702241 604
13.2999997697771 636
13.31999976933 617
13.339999768883 622
13.359999768436 593
13.3799997679889 649
13.3999997675419 606
13.4199997670949 657
13.4399997666478 601
13.4599997662008 618
13.4799997657537 639
13.4999997653067 601
13.5199997648597 640
13.5399997644126 655
13.5599997639656 608
13.5799997635186 676
13.5999997630715 637
13.6199997626245 636
13.6399997621775 626
13.6599997617304 600
13.6799997612834 606
13.6999997608364 678
13.7199997603893 630
13.7399997599423 637
13.7599997594953 602
13.7799997590482 644
13.7999997586012 656
13.8199997581542 627
13.8399997577071 662
13.8599997572601 648
13.879999756813 600
13.899999756366 632
13.919999755919 663
13.9399997554719 640
13.9599997550249 618
13.9799997545779 668
13.9999997541308 649
14.0199997536838 608
14.0399997532368 660
14.0599997527897 660
14.0799997523427 690
14.0999997518957 685
14.1199997514486 644
14.1399997510016 672
14.1599997505546 669
14.1799997501075 649
14.1999997496605 652
14.2199997492135 649
14.2399997487664 669
14.2599997483194 710
14.2799997478724 633
14.2999997474253 659
14.3199997469783 693
14.3399997465312 699
14.3599997460842 680
14.3799997456372 669
14.3999997451901 657
14.4199997447431 693
14.4399997442961 632
14.459999743849 700
14.479999743402 704
14.499999742955 746
14.5199997425079 710
14.5399997420609 680
14.5599997416139 685
14.5799997411668 697
14.5999997407198 664
14.6199997402728 683
14.6399997398257 702
14.6599997393787 659
14.6799997389317 656
14.6999997384846 704
14.7199997380376 693
14.7399997375906 683
14.7599997371435 645
14.7799997366965 703
14.7999997362494 697
14.8199997358024 680
14.8399997353554 697
14.8599997349083 699
14.8799997344613 659
14.8999997340143 741
14.9199997335672 732
14.9399997331202 704
14.9599997326732 684
14.9799997322261 695
14.9999997317791 670
15.0199997313321 670
15.039999730885 725
15.059999730438 699
15.079999729991 760
15.0999997295439 737
15.1199997290969 704
15.1399997286499 706
15.1599997282028 677
15.1799997277558 671
15.1999997273088 724
15.2199997268617 734
15.2399997264147 700
15.2599997259676 734
15.2799997255206 729
15.2999997250736 717
15.3199997246265 681
15.3399997241795 747
15.3599997237325 721
15.3799997232854 711
15.3999997228384 705
15.4199997223914 740
15.4399997219443 717
15.4599997214973 746
15.4799997210503 747
15.4999997206032 705
15.5199997201562 707
15.5399997197092 728
15.5599997192621 761
15.5799997188151 729
15.5999997183681 750
15.619999717921 709
15.639999717474 752
15.659999717027 740
15.6799997165799 744
15.6999997161329 728
15.7199997156858 746
15.7399997152388 729
15.7599997147918 740
15.7799997143447 762
15.7999997138977 743
15.8199997134507 734
15.8399997130036 725
15.8599997125566 763
15.8799997121096 776
15.8999997116625 738
15.9199997112155 722
15.9399997107685 773
15.9599997103214 744
15.9799997098744 785
15.9999997094274 744
16.0199997089803 741
16.0399997085333 805
16.0599997080863 733
16.0799997076392 800
16.0999997071922 750
16.1199997067451 802
16.1399997062981 801
16.1599997058511 812
16.179999705404 758
16.199999704957 820
16.21999970451 840
16.2399997040629 759
16.2599997036159 811
16.2799997031689 774
16.2999997027218 751
16.3199997022748 811
16.3399997018278 798
16.3599997013807 792
16.3799997009337 827
16.3999997004867 872
16.4199997000396 815
16.4399996995926 866
16.4599996991456 781
16.4799996986985 827
16.4999996982515 841
16.5199996978045 858
16.5399996973574 798
16.5599996969104 784
16.5799996964633 840
16.5999996960163 825
16.6199996955693 872
16.6399996951222 829
16.6599996946752 861
16.6799996942282 809
16.6999996937811 877
16.7199996933341 866
16.7399996928871 842
16.75999969244 897
16.779999691993 859
16.799999691546 873
16.8199996910989 847
16.8399996906519 902
16.8599996902049 909
16.8799996897578 944
16.8999996893108 971
16.9199996888638 998
16.9399996884167 1040
16.9599996879697 1124
16.9799996875226 1149
16.9999996870756 1277
17.0199996866286 1352
17.0399996861815 1503
17.0599996857345 1490
17.0799996852875 1394
17.0999996848404 1356
17.1199996843934 1262
17.1399996839464 1105
17.1599996834993 1040
17.1799996830523 915
17.1999996826053 872
17.2199996821582 876
17.2399996817112 952
17.2599996812642 984
17.2799996808171 924
17.2999996803701 963
17.3199996799231 946
17.339999679476 948
17.359999679029 908
17.379999678582 944
17.3999996781349 950
17.4199996776879 967
17.4399996772408 1021
17.4599996767938 939
17.4799996763468 991
17.4999996758997 987
17.5199996754527 929
17.5399996750057 970
17.5599996745586 950
17.5799996741116 932
17.5999996736646 994
17.6199996732175 990
17.6399996727705 951
17.6599996723235 955
17.6799996718764 1024
17.6999996714294 1044
17.7199996709824 980
17.7399996705353 956
17.7599996700883 952
17.7799996696413 961
17.7999996691942 982
17.8199996687472 967
17.8399996683002 1001
17.8599996678531 938
17.8799996674061 966
17.899999666959 991
17.919999666512 959
17.939999666065 1002
17.9599996656179 980
17.9799996651709 994
17.9999996647239 1001
18.0199996642768 1058
18.0399996638298 1020
18.0599996633828 966
18.0799996629357 1006
18.0999996624887 1034
18.1199996620417 1054
18.1399996615946 1034
18.1599996611476 1007
18.1799996607006 1010
18.1999996602535 1074
18.2199996598065 1021
18.2399996593595 1040
18.2599996589124 1010
18.2799996584654 1054
18.2999996580184 1089
18.3199996575713 1001
18.3399996571243 1077
18.3599996566772 1090
18.3799996562302 1036
18.3999996557832 1043
18.4199996553361 1041
18.4399996548891 1064
18.4599996544421 1100
18.479999653995 1033
18.499999653548 1093
18.519999653101 1082
18.5399996526539 1084
18.5599996522069 1089
18.5799996517599 1112
18.5999996513128 1125
18.6199996508658 1104
18.6399996504188 1157
18.6599996499717 1142
18.6799996495247 1096
18.6999996490777 1139
18.7199996486306 1145
18.7399996481836 1237
18.7599996477366 1113
18.7799996472895 1158
18.7999996468425 1148
18.8199996463954 1144
18.8399996459484 1184
18.8599996455014 1130
18.8799996450543 1146
18.8999996446073 1127
18.9199996441603 1164
18.9399996437132 1153
18.9599996432662 1178
18.9799996428192 1115
18.9999996423721 1154
19.0199996419251 1137
19.0399996414781 1176
19.059999641031 1250
19.079999640584 1182
19.099999640137 1224
19.1199996396899 1167
19.1399996392429 1143
19.1599996387959 1222
19.1799996383488 1157
19.1999996379018 1148
19.2199996374547 1198
19.2399996370077 1214
19.2599996365607 1146
19.2799996361136 1181
19.2999996356666 1174
19.3199996352196 1168
19.3399996347725 1231
19.3599996343255 1289
19.3799996338785 1277
19.3999996334314 1299
19.4199996329844 1301
19.4399996325374 1306
19.4599996320903 1280
19.4799996316433 1317
19.4999996311963 1322
19.5199996307492 1351
19.5399996303022 1335
19.5599996298552 1300
19.5799996294081 1315
19.5999996289611 1297
19.6199996285141 1335
19.639999628067 1300
19.65999962762 1351
19.6799996271729 1268
19.6999996267259 1245
19.7199996262789 1306
19.7399996258318 1309
19.7599996253848 1300
19.7799996249378 1327
19.7999996244907 1270
19.8199996240437 1311
19.8399996235967 1286
19.8599996231496 1269
19.8799996227026 1269
19.8999996222556 1329
19.9199996218085 1281
19.9399996213615 1372
19.9599996209145 1359
19.9799996204674 1267
19.9999996200204 1370
