3 3095
3.01999999955297 2821
3.03999999910593 2685
3.0599999986589 2596
3.07999999821186 2404
3.09999999776483 2438
3.11999999731779 2288
3.13999999687076 2232
3.15999999642372 2238
3.17999999597669 2181
3.19999999552965 2089
3.21999999508262 2105
3.23999999463558 2121
3.25999999418855 2100
3.27999999374151 2131
3.29999999329448 2102
3.31999999284744 2086
3.33999999240041 1989
3.35999999195337 1966
3.37999999150634 1966
3.3999999910593 1925
3.41999999061227 1928
3.43999999016523 1874
3.4599999897182 1841
3.47999998927116 1788
3.49999998882413 1872
3.51999998837709 1772
3.53999998793006 1765
3.55999998748302 1696
3.57999998703599 1799
3.59999998658895 1692
3.61999998614192 1659
3.63999998569489 1650
3.65999998524785 1645
3.67999998480082 1569
3.69999998435378 1571
3.71999998390675 1600
3.73999998345971 1535
3.75999998301268 1515
3.77999998256564 1492
3.79999998211861 1484
3.81999998167157 1505
3.83999998122454 1419
3.8599999807775 1390
3.87999998033047 1495
3.89999997988343 1466
3.9199999794364 1419
3.93999997898936 1424
3.95999997854233 1341
3.97999997809529 1331
3.99999997764826 1398
4.01999997720122 1347
4.03999997675419 1335
4.05999997630715 1349
4.07999997586012 1366
4.09999997541308 1300
4.11999997496605 1274
4.13999997451901 1237
4.15999997407198 1250
4.17999997362494 1254
4.19999997317791 1263
4.21999997273087 1188
4.23999997228384 1223
4.25999997183681 1125
4.27999997138977 1145
4.29999997094274 1126
4.3199999704957 1128
4.33999997004867 1152
4.35999996960163 1103
4.3799999691546 1202
4.39999996870756 1112
4.41999996826053 1164
4.43999996781349 1093
4.45999996736646 1138
4.47999996691942 1113
4.49999996647239 1185
4.51999996602535 1045
4.53999996557832 1130
4.55999996513128 1068
4.57999996468425 1136
4.59999996423721 1097
4.61999996379018 1130
4.63999996334314 1155
4.65999996289611 1086
4.67999996244907 1109
4.69999996200204 1070
4.719999961555 1069
4.73999996110797 1090
4.75999996066093 1180
4.7799999602139 1128
4.79999995976686 1126
4.81999995931983 1078
4.83999995887279 1116
4.85999995842576 1103
4.87999995797873 1127
4.89999995753169 1084
4.91999995708466 1066
4.93999995663762 1088
4.95999995619059 1153
4.97999995574355 1204
4.99999995529652 1210
5.01999995484948 1227
5.03999995440245 1185
5.05999995395541 1210
5.07999995350838 1267
5.09999995306134 1347
5.11999995261431 1366
5.13999995216727 1407
5.15999995172024 1480
5.1799999512732 1476
5.19999995082617 1585
5.21999995037913 1611
5.2399999499321 1700
5.25999994948506 1905
5.27999994903803 1925
5.29999994859099 2061
5.31999994814396 2117
5.33999994769692 2360
5.35999994724989 2591
5.37999994680285 2907
5.39999994635582 3357
5.41999994590878 3778
5.43999994546175 4001
5.45999994501471 3971
5.47999994456768 3461
5.49999994412065 2976
5.51999994367361 2620
5.53999994322658 2351
5.55999994277954 2305
5.57999994233251 2070
5.59999994188547 1957
5.61999994143844 1884
5.6399999409914 1779
5.65999994054437 1761
5.67999994009733 1641
5.6999999396503 1621
5.71999993920326 1594
5.73999993875623 1573
5.75999993830919 1464
5.77999993786216 1438
5.79999993741512 1422
5.81999993696809 1345
5.83999993652105 1221
5.85999993607402 1276
5.87999993562698 1173
5.89999993517995 1098
5.91999993473291 1073
5.93999993428588 1073
5.95999993383884 1056
5.97999993339181 1025
5.99999993294477 927
6.01999993249774 938
6.0399999320507 932
6.05999993160367 905
6.07999993115663 836
6.0999999307096 914
6.11999993026257 839
6.13999992981553 841
6.1599999293685 864
6.17999992892146 863
6.19999992847443 824
6.21999992802739 797
6.23999992758036 774
6.25999992713332 816
6.27999992668629 805
6.29999992623925 815
6.31999992579222 774
6.33999992534518 812
6.35999992489815 807
6.37999992445111 756
6.39999992400408 790
6.41999992355704 781
6.43999992311001 813
6.45999992266297 792
6.47999992221594 802
6.4999999217689 813
6.51999992132187 774
6.53999992087483 797
6.5599999204278 813
6.57999991998076 755
6.59999991953373 792
6.61999991908669 739
6.63999991863966 767
6.65999991819262 787
6.67999991774559 772
6.69999991729855 789
6.71999991685152 780
6.73999991640449 763
6.75999991595745 756
6.77999991551042 716
6.79999991506338 724
6.81999991461635 788
6.83999991416931 771
6.85999991372228 771
6.87999991327524 707
6.89999991282821 771
6.91999991238117 693
6.93999991193414 776
6.9599999114871 730
6.97999991104007 719
6.99999991059303 723
7.019999910146 706
7.03999990969896 714
7.05999990925193 689
7.07999990880489 747
7.09999990835786 717
7.11999990791082 663
7.13999990746379 703
7.15999990701675 739
7.17999990656972 732
7.19999990612268 669
7.21999990567565 710
7.23999990522861 693
7.25999990478158 687
7.27999990433454 711
7.29999990388751 717
7.31999990344047 699
7.33999990299344 674
7.35999990254641 687
7.37999990209937 731
7.39999990165234 692
7.4199999012053 676
7.43999990075827 666
7.45999990031123 692
7.4799998998642 701
7.49999989941716 696
7.51999989897013 670
7.53999989852309 718
7.55999989807606 675
7.57999989762902 714
7.59999989718199 672
7.61999989673495 667
7.63999989628792 682
7.65999989584088 672
7.67999989539385 671
7.69999989494681 675
7.71999989449978 688
7.73999989405274 698
7.75999989360571 699
7.77999989315867 686
7.79999989271164 694
7.8199998922646 697
7.83999989181757 665
7.85999989137053 656
7.8799998909235 645
7.89999989047646 698
7.91999989002943 686
7.9399998895824 697
7.95999988913536 657
7.97999988868833 709
7.99999988824129 685
8.01999988779426 697
8.03999988734722 673
8.05999988690019 674
8.07999988645315 677
8.09999988600612 690
8.11999988555908 672
8.13999988511205 668
8.15999988466501 707
8.17999988421798 695
8.19999988377094 672
8.21999988332391 669
8.23999988287687 667
8.25999988242984 657
8.2799998819828 695
8.29999988153577 725
8.31999988108873 702
8.3399998806417 695
8.35999988019466 673
8.37999987974763 670
8.39999987930059 685
8.41999987885356 673
8.43999987840652 667
8.45999987795949 656
8.47999987751245 664
8.49999987706542 682
8.51999987661839 639
8.53999987617135 687
8.55999987572432 688
8.57999987527728 624
8.59999987483025 651
8.61999987438321 675
8.63999987393618 688
8.65999987348914 685
8.67999987304211 701
8.69999987259507 659
8.71999987214804 649
8.739999871701 642
8.75999987125397 717
8.77999987080693 655
8.7999998703599 703
8.81999986991286 665
8.83999986946583 700
8.85999986901879 667
8.87999986857176 634
8.89999986812472 689
8.91999986767769 677
8.93999986723065 710
8.95999986678362 697
8.97999986633658 706
8.99999986588955 703
9.01999986544251 741
9.03999986499548 747
9.05999986454844 765
9.07999986410141 768
9.09999986365438 774
9.11999986320734 787
9.13999986276031 836
9.15999986231327 846
9.17999986186624 855
9.1999998614192 928
9.21999986097217 949
9.23999986052513 1001
9.2599998600781 999
9.27999985963106 1147
9.29999985918403 1241
9.31999985873699 1434
9.33999985828996 1697
9.35999985784292 1602
9.37999985739589 1629
9.39999985694885 1371
9.41999985650182 1097
9.43999985605478 1011
9.45999985560775 892
9.47999985516071 887
9.49999985471368 798
9.51999985426664 722
9.53999985381961 725
9.55999985337257 752
9.57999985292554 712
9.5999998524785 731
9.61999985203147 681
9.63999985158443 695
9.6599998511374 687
9.67999985069037 707
9.69999985024333 717
9.7199998497963 702
9.73999984934926 693
9.75999984890223 698
9.77999984845519 665
9.79999984800816 697
9.81999984756112 691
9.83999984711409 682
9.85999984666705 699
9.87999984622002 698
9.89999984577298 736
9.91999984532595 680
9.93999984487891 692
9.95999984443188 681
9.97999984398484 728
9.99999984353781 690
10.0199998430908 710
10.0399998426437 682
10.0599998421967 672
10.0799998417497 678
10.0999998413026 728
10.1199998408556 698
10.1399998404086 693
10.1599998399615 744
10.1799998395145 711
10.1999998390675 691
10.2199998386204 698
10.2399998381734 687
10.2599998377264 691
10.2799998372793 690
10.2999998368323 679
10.3199998363853 733
10.3399998359382 696
10.3599998354912 688
10.3799998350441 716
10.3999998345971 670
10.4199998341501 686
10.439999833703 694
10.459999833256 650
10.479999832809 711
10.4999998323619 676
10.5199998319149 733
10.5399998314679 725
10.5599998310208 779
10.5799998305738 719
10.5999998301268 722
10.6199998296797 777
10.6399998292327 767
10.6599998287857 878
10.6799998283386 823
10.6999998278916 895
10.7199998274446 888
10.7399998269975 979
10.7599998265505 1057
10.7799998261034 1172
10.7999998256564 1155
10.8199998252094 1185
10.8399998247623 1096
10.8599998243153 1042
10.8799998238683 1014
10.8999998234212 1005
10.9199998229742 996
10.9399998225272 951
10.9599998220801 904
10.9799998216331 854
10.9999998211861 855
11.019999820739 787
11.039999820292 836
11.059999819845 782
11.0799998193979 747
11.0999998189509 762
11.1199998185039 705
11.1399998180568 731
11.1599998176098 688
11.1799998171628 673
11.1999998167157 765
11.2199998162687 709
11.2399998158216 674
11.2599998153746 657
11.2799998149276 687
11.2999998144805 668
11.3199998140335 673
11.3399998135865 645
11.3599998131394 688
11.3799998126924 701
11.3999998122454 723
11.4199998117983 674
11.4399998113513 686
11.4599998109043 720
11.4799998104572 693
11.4999998100102 692
11.5199998095632 714
11.5399998091161 681
11.5599998086691 716
11.5799998082221 666
11.599999807775 700
11.619999807328 692
11.639999806881 681
11.6599998064339 699
11.6799998059869 670
11.6999998055398 646
11.7199998050928 718
11.7399998046458 679
11.7599998041987 704
11.7799998037517 666
11.7999998033047 704
11.8199998028576 683
11.8399998024106 673
11.8599998019636 687
11.8799998015165 756
11.8999998010695 695
11.9199998006225 683
11.9399998001754 702
11.9599997997284 702
11.9799997992814 706
11.9999997988343 736
12.0199997983873 679
12.0399997979403 726
12.0599997974932 692
12.0799997970462 726
12.0999997965992 733
12.1199997961521 698
12.1399997957051 710
12.159999795258 733
12.179999794811 708
12.199999794364 756
12.2199997939169 727
12.2399997934699 780
12.2599997930229 733
12.2799997925758 731
12.2999997921288 781
12.3199997916818 720
12.3399997912347 708
12.3599997907877 734
12.3799997903407 780
12.3999997898936 734
12.4199997894466 721
12.4399997889996 778
12.4599997885525 736
12.4799997881055 718
12.4999997876585 732
12.5199997872114 705
12.5399997867644 694
12.5599997863173 698
12.5799997858703 723
12.5999997854233 722
12.6199997849762 760
12.6399997845292 757
12.6599997840822 748
12.6799997836351 749
12.6999997831881 756
12.7199997827411 708
12.739999782294 763
12.759999781847 709
12.7799997814 754
12.7999997809529 711
12.8199997805059 750
12.8399997800589 740
12.8599997796118 750
12.8799997791648 770
12.8999997787178 755
12.9199997782707 697
12.9399997778237 723
12.9599997773767 721
12.9799997769296 739
12.9999997764826 761
13.0199997760355 739
13.0399997755885 708
13.0599997751415 728
13.0799997746944 687
13.0999997742474 784
13.1199997738004 741
13.1399997733533 707
13.1599997729063 730
13.1799997724593 747
13.1999997720122 739
13.2199997715652 740
13.2399997711182 734
13.2599997706711 784
13.2799997702241 751
13.2999997697771 708
13.31999976933 767
13.339999768883 759
13.359999768436 753
13.3799997679889 742
13.3999997675419 785
13.4199997670949 745
13.4399997666478 758
13.4599997662008 759
13.4799997657537 780
13.4999997653067 771
13.5199997648597 773
13.5399997644126 814
13.5599997639656 708
13.5799997635186 738
13.5999997630715 779
13.6199997626245 806
13.6399997621775 745
13.6599997617304 710
13.6799997612834 702
13.6999997608364 769
13.7199997603893 740
13.7399997599423 786
13.7599997594953 703
13.7799997590482 771
13.7999997586012 743
13.8199997581542 818
13.8399997577071 723
13.8599997572601 804
13.879999756813 752
13.899999756366 783
13.919999755919 812
13.9399997554719 792
13.9599997550249 793
13.9799997545779 791
13.9999997541308 740
14.0199997536838 806
14.0399997532368 782
14.0599997527897 749
14.0799997523427 801
14.0999997518957 811
14.1199997514486 787
14.1399997510016 826
14.1599997505546 809
14.1799997501075 820
14.1999997496605 813
14.2199997492135 831
14.2399997487664 842
14.2599997483194 918
14.2799997478724 903
14.2999997474253 819
14.3199997469783 867
14.3399997465312 824
14.3599997460842 868
14.3799997456372 914
14.3999997451901 880
14.4199997447431 842
14.4399997442961 888
14.459999743849 790
14.479999743402 810
14.499999742955 851
14.5199997425079 828
14.5399997420609 843
14.5599997416139 781
14.5799997411668 831
14.5999997407198 914
14.6199997402728 803
14.6399997398257 823
14.6599997393787 831
14.6799997389317 793
14.6999997384846 842
14.7199997380376 859
14.7399997375906 853
14.7599997371435 855
14.7799997366965 841
14.7999997362494 851
14.8199997358024 875
14.8399997353554 906
14.8599997349083 904
14.8799997344613 864
14.8999997340143 866
14.9199997335672 853
14.9399997331202 847
14.9599997326732 891
14.9799997322261 901
14.9999997317791 895
15.0199997313321 857
15.039999730885 878
15.059999730438 858
15.079999729991 855
15.0999997295439 893
15.1199997290969 855
15.1399997286499 911
15.1599997282028 887
15.1799997277558 868
15.1999997273088 889
15.2199997268617 872
15.2399997264147 875
15.2599997259676 854
15.2799997255206 850
15.2999997250736 862
15.3199997246265 866
15.3399997241795 897
15.3599997237325 931
15.3799997232854 854
15.3999997228384 909
15.4199997223914 856
15.4399997219443 953
15.4599997214973 962
15.4799997210503 949
15.4999997206032 894
15.5199997201562 929
15.5399997197092 914
15.5599997192621 906
15.5799997188151 895
15.5999997183681 926
15.619999717921 971
15.639999717474 959
15.659999717027 914
15.6799997165799 984
15.6999997161329 959
15.7199997156858 973
15.7399997152388 918
15.7599997147918 933
15.7799997143447 918
15.7999997138977 940
15.8199997134507 947
15.8399997130036 965
15.8599997125566 927
15.8799997121096 992
15.8999997116625 942
15.9199997112155 937
15.9399997107685 1000
15.9599997103214 955
15.9799997098744 938
15.9999997094274 957
16.0199997089803 1006
16.0399997085333 947
16.0599997080863 965
16.0799997076392 1055
16.0999997071922 1051
16.1199997067451 996
16.1399997062981 1039
16.1599997058511 1000
16.179999705404 999
16.199999704957 1007
16.21999970451 1023
16.2399997040629 1008
16.2599997036159 984
16.2799997031689 1007
16.2999997027218 1063
16.3199997022748 1029
16.3399997018278 1074
16.3599997013807 1021
16.3799997009337 1107
16.3999997004867 1014
16.4199997000396 1040
16.4399996995926 1029
16.4599996991456 1093
16.4799996986985 1067
16.4999996982515 1015
16.5199996978045 1073
16.5399996973574 1090
16.5599996969104 1063
16.5799996964633 1078
16.5999996960163 1123
16.6199996955693 1126
16.6399996951222 1113
16.6599996946752 1092
16.6799996942282 1089
16.6999996937811 1091
16.7199996933341 1113
16.7399996928871 1111
16.75999969244 1100
16.779999691993 1157
16.799999691546 1156
16.8199996910989 1181
16.8399996906519 1126
16.8599996902049 1165
16.8799996897578 1221
16.8999996893108 1179
16.9199996888638 1230
16.9399996884167 1294
16.9599996879697 1325
16.9799996875226 1389
16.9999996870756 1448
17.0199996866286 1475
17.0399996861815 1451
17.0599996857345 1399
17.0799996852875 1305
17.0999996848404 1208
17.1199996843934 1212
17.1399996839464 1201
17.1599996834993 1178
17.1799996830523 1173
17.1999996826053 1177
17.2199996821582 1190
17.2399996817112 1137
17.2599996812642 1236
17.2799996808171 1184
17.2999996803701 1204
17.3199996799231 1211
17.339999679476 1291
17.359999679029 1267
17.379999678582 1230
17.3999996781349 1238
17.4199996776879 1215
17.4399996772408 1265
17.4599996767938 1234
17.4799996763468 1206
17.4999996758997 1186
17.5199996754527 1163
17.5399996750057 1259
17.5599996745586 1193
17.5799996741116 1280
17.5999996736646 1304
17.6199996732175 1244
17.6399996727705 1231
17.6599996723235 1215
17.6799996718764 1256
17.6999996714294 1243
17.7199996709824 1210
17.7399996705353 1321
17.7599996700883 1282
17.7799996696413 1268
17.7999996691942 1246
17.8199996687472 1269
17.8399996683002 1287
17.8599996678531 1310
17.8799996674061 1243
17.899999666959 1296
17.919999666512 1263
17.939999666065 1317
17.9599996656179 1315
17.9799996651709 1274
17.9999996647239 1233
18.0199996642768 1309
18.0399996638298 1340
18.0599996633828 1283
18.0799996629357 1254
18.0999996624887 1348
18.1199996620417 1289
18.1399996615946 1399
18.1599996611476 1395
18.1799996607006 1357
18.1999996602535 1320
18.2199996598065 1365
18.2399996593595 1395
18.2599996589124 1327
18.2799996584654 1410
18.2999996580184 1414
18.3199996575713 1347
18.3399996571243 1340
18.3599996566772 1415
18.3799996562302 1387
18.3999996557832 1354
18.4199996553361 1358
18.4399996548891 1385
18.4599996544421 1359
18.479999653995 1401
18.499999653548 1384
18.519999653101 1405
18.5399996526539 1424
18.5599996522069 1437
18.5799996517599 1474
18.5999996513128 1408
18.6199996508658 1500
18.6399996504188 1440
18.6599996499717 1489
18.6799996495247 1556
18.6999996490777 1515
18.7199996486306 1496
18.7399996481836 1513
18.7599996477366 1528
18.7799996472895 1499
18.7999996468425 1460
18.8199996463954 1563
18.8399996459484 1509
18.8599996455014 1433
18.8799996450543 1496
18.8999996446073 1513
18.9199996441603 1518
18.9399996437132 1519
18.9599996432662 1434
18.9799996428192 1502
18.9999996423721 1518
19.0199996419251 1533
19.0399996414781 1492
19.059999641031 1512
19.079999640584 1555
19.099999640137 1550
19.1199996396899 1568
19.1399996392429 1608
19.1599996387959 1545
19.1799996383488 1573
19.1999996379018 1569
19.2199996374547 1512
19.2399996370077 1567
19.2599996365607 1640
19.2799996361136 1536
19.2999996356666 1553
19.3199996352196 1567
19.3399996347725 1647
19.3599996343255 1691
19.3799996338785 1666
19.3999996334314 1582
19.4199996329844 1749
19.4399996325374 1690
19.4599996320903 1779
19.4799996316433 1789
19.4999996311963 1787
19.5199996307492 1802
19.5399996303022 1797
19.5599996298552 1767
19.5799996294081 1830
19.5999996289611 1757
19.6199996285141 1793
19.639999628067 1705
19.65999962762 1653
19.6799996271729 1680
19.6999996267259 1634
19.7199996262789 1604
19.7399996258318 1666
19.7599996253848 1740
19.7799996249378 1709
19.7999996244907 1717
19.8199996240437 1661
19.8399996235967 1746
19.8599996231496 1647
19.8799996227026 1660
19.8999996222556 1717
19.9199996218085 1658
19.9399996213615 1661
19.9599996209145 1733
19.9799996204674 1759
19.9999996200204 1732
