3 3040
3.01999999955297 2943
3.03999999910593 2697
3.0599999986589 2685
3.07999999821186 2596
3.09999999776483 2462
3.11999999731779 2388
3.13999999687076 2289
3.15999999642372 2378
3.17999999597669 2252
3.19999999552965 2199
3.21999999508262 2214
3.23999999463558 2081
3.25999999418855 2184
3.27999999374151 2038
3.29999999329448 2080
3.31999999284744 2070
3.33999999240041 2028
3.35999999195337 1985
3.37999999150634 1990
3.3999999910593 1957
3.41999999061227 1867
3.43999999016523 1868
3.4599999897182 1822
3.47999998927116 1847
3.49999998882413 1879
3.51999998837709 1790
3.53999998793006 1830
3.55999998748302 1741
3.57999998703599 1797
3.59999998658895 1714
3.61999998614192 1719
3.63999998569489 1758
3.65999998524785 1659
3.67999998480082 1651
3.69999998435378 1594
3.71999998390675 1617
3.73999998345971 1631
3.75999998301268 1568
3.77999998256564 1630
3.79999998211861 1540
3.81999998167157 1448
3.83999998122454 1476
3.8599999807775 1448
3.87999998033047 1480
3.89999997988343 1506
3.9199999794364 1423
3.93999997898936 1434
3.95999997854233 1433
3.97999997809529 1360
3.99999997764826 1289
4.01999997720122 1370
4.03999997675419 1387
4.05999997630715 1297
4.07999997586012 1239
4.09999997541308 1319
4.11999997496605 1278
4.13999997451901 1257
4.15999997407198 1327
4.17999997362494 1210
4.19999997317791 1239
4.21999997273087 1222
4.23999997228384 1250
4.25999997183681 1169
4.27999997138977 1206
4.29999997094274 1153
4.3199999704957 1188
4.33999997004867 1226
4.35999996960163 1137
4.3799999691546 1148
4.39999996870756 1148
4.41999996826053 1151
4.43999996781349 1131
4.45999996736646 1109
4.47999996691942 1138
4.49999996647239 1048
4.51999996602535 1087
4.53999996557832 1049
4.55999996513128 1053
4.57999996468425 1054
4.59999996423721 1102
4.61999996379018 1039
4.63999996334314 1077
4.65999996289611 1060
4.67999996244907 1075
4.69999996200204 1047
4.719999961555 1086
4.73999996110797 1088
4.75999996066093 1042
4.7799999602139 1046
4.79999995976686 970
4.81999995931983 1022
4.83999995887279 1065
4.85999995842576 1056
4.87999995797873 1068
4.89999995753169 1033
4.91999995708466 1011
4.93999995663762 1068
4.95999995619059 1052
4.97999995574355 1092
4.99999995529652 1024
5.01999995484948 1023
5.03999995440245 1011
5.05999995395541 1093
5.07999995350838 1109
5.09999995306134 1118
5.11999995261431 1135
5.13999995216727 1144
5.15999995172024 1140
5.1799999512732 1206
5.19999995082617 1218
5.21999995037913 1279
5.2399999499321 1323
5.25999994948506 1303
5.27999994903803 1407
5.29999994859099 1450
5.31999994814396 1477
5.33999994769692 1567
5.35999994724989 1714
5.37999994680285 1900
5.39999994635582 2125
5.41999994590878 2335
5.43999994546175 2369
5.45999994501471 2386
5.47999994456768 2288
5.49999994412065 2057
5.51999994367361 1752
5.53999994322658 1536
5.55999994277954 1362
5.57999994233251 1276
5.59999994188547 1136
5.61999994143844 1224
5.6399999409914 1090
5.65999994054437 1016
5.67999994009733 998
5.6999999396503 975
5.71999993920326 967
5.73999993875623 899
5.75999993830919 881
5.77999993786216 898
5.79999993741512 921
5.81999993696809 850
5.83999993652105 905
5.85999993607402 852
5.87999993562698 821
5.89999993517995 838
5.91999993473291 793
5.93999993428588 806
5.95999993383884 850
5.97999993339181 746
5.99999993294477 765
6.01999993249774 772
6.0399999320507 756
6.05999993160367 797
6.07999993115663 794
6.0999999307096 766
6.11999993026257 740
6.13999992981553 719
6.1599999293685 746
6.17999992892146 770
6.19999992847443 761
6.21999992802739 772
6.23999992758036 710
6.25999992713332 736
6.27999992668629 741
6.29999992623925 709
6.31999992579222 710
6.33999992534518 702
6.35999992489815 674
6.37999992445111 685
6.39999992400408 751
6.41999992355704 695
6.43999992311001 700
6.45999992266297 696
6.47999992221594 755
6.4999999217689 701
6.51999992132187 730
6.53999992087483 692
6.5599999204278 694
6.57999991998076 677
6.59999991953373 710
6.61999991908669 686
6.63999991863966 704
6.65999991819262 669
6.67999991774559 707
6.69999991729855 663
6.71999991685152 676
6.73999991640449 664
6.75999991595745 696
6.77999991551042 687
6.79999991506338 667
6.81999991461635 657
6.83999991416931 683
6.85999991372228 646
6.87999991327524 675
6.89999991282821 677
6.91999991238117 658
6.93999991193414 691
6.9599999114871 702
6.97999991104007 671
6.99999991059303 689
7.019999910146 656
7.03999990969896 652
7.05999990925193 714
7.07999990880489 661
7.09999990835786 619
7.11999990791082 664
7.13999990746379 636
7.15999990701675 608
7.17999990656972 680
7.19999990612268 681
7.21999990567565 646
7.23999990522861 632
7.25999990478158 625
7.27999990433454 679
7.29999990388751 653
7.31999990344047 631
7.33999990299344 645
7.35999990254641 643
7.37999990209937 637
7.39999990165234 605
7.4199999012053 656
7.43999990075827 628
7.45999990031123 628
7.4799998998642 647
7.49999989941716 650
7.51999989897013 623
7.53999989852309 594
7.55999989807606 625
7.57999989762902 645
7.59999989718199 634
7.61999989673495 627
7.63999989628792 637
7.65999989584088 643
7.67999989539385 667
7.69999989494681 636
7.71999989449978 655
7.73999989405274 654
7.75999989360571 651
7.77999989315867 632
7.79999989271164 603
7.8199998922646 658
7.83999989181757 628
7.85999989137053 626
7.8799998909235 639
7.89999989047646 672
7.91999989002943 590
7.9399998895824 604
7.95999988913536 627
7.97999988868833 620
7.99999988824129 626
8.01999988779426 605
8.03999988734722 582
8.05999988690019 648
8.07999988645315 619
8.09999988600612 620
8.11999988555908 621
8.13999988511205 615
8.15999988466501 632
8.17999988421798 611
8.19999988377094 615
8.21999988332391 604
8.23999988287687 576
8.25999988242984 610
8.2799998819828 608
8.29999988153577 588
8.31999988108873 604
8.3399998806417 658
8.35999988019466 626
8.37999987974763 603
8.39999987930059 644
8.41999987885356 608
8.43999987840652 563
8.45999987795949 572
8.47999987751245 637
8.49999987706542 635
8.51999987661839 611
8.53999987617135 592
8.55999987572432 633
8.57999987527728 611
8.59999987483025 580
8.61999987438321 593
8.63999987393618 596
8.65999987348914 576
8.67999987304211 615
8.69999987259507 630
8.71999987214804 604
8.739999871701 605
8.75999987125397 567
8.77999987080693 598
8.7999998703599 598
8.81999986991286 601
8.83999986946583 660
8.85999986901879 621
8.87999986857176 633
8.89999986812472 637
8.91999986767769 628
8.93999986723065 593
8.95999986678362 636
8.97999986633658 643
8.99999986588955 591
9.01999986544251 622
9.03999986499548 607
9.05999986454844 653
9.07999986410141 615
9.09999986365438 648
9.11999986320734 659
9.13999986276031 667
9.15999986231327 686
9.17999986186624 664
9.1999998614192 723
9.21999986097217 751
9.23999986052513 773
9.2599998600781 817
9.27999985963106 847
9.29999985918403 933
9.31999985873699 1046
9.33999985828996 1074
9.35999985784292 1103
9.37999985739589 1091
9.39999985694885 1064
9.41999985650182 925
9.43999985605478 815
9.45999985560775 777
9.47999985516071 747
9.49999985471368 687
9.51999985426664 619
9.53999985381961 637
9.55999985337257 616
9.57999985292554 603
9.5999998524785 652
9.61999985203147 604
9.63999985158443 607
9.6599998511374 621
9.67999985069037 559
9.69999985024333 631
9.7199998497963 599
9.73999984934926 625
9.75999984890223 620
9.77999984845519 612
9.79999984800816 623
9.81999984756112 536
9.83999984711409 610
9.85999984666705 599
9.87999984622002 659
9.89999984577298 592
9.91999984532595 595
9.93999984487891 598
9.95999984443188 563
9.97999984398484 593
9.99999984353781 577
10.0199998430908 566
10.0399998426437 606
10.0599998421967 569
10.0799998417497 589
10.0999998413026 612
10.1199998408556 634
10.1399998404086 547
10.1599998399615 578
10.1799998395145 597
10.1999998390675 639
10.2199998386204 591
10.2399998381734 599
10.2599998377264 561
10.2799998372793 615
10.2999998368323 613
10.3199998363853 585
10.3399998359382 617
10.3599998354912 612
10.3799998350441 572
10.3999998345971 621
10.4199998341501 615
10.439999833703 569
10.459999833256 648
10.479999832809 587
10.4999998323619 625
10.5199998319149 615
10.5399998314679 560
10.5599998310208 653
10.5799998305738 628
10.5999998301268 620
10.6199998296797 632
10.6399998292327 618
10.6599998287857 619
10.6799998283386 665
10.6999998278916 708
10.7199998274446 690
10.7399998269975 722
10.7599998265505 833
10.7799998261034 831
10.7999998256564 827
10.8199998252094 825
10.8399998247623 829
10.8599998243153 760
10.8799998238683 715
10.8999998234212 748
10.9199998229742 698
10.9399998225272 658
10.9599998220801 676
10.9799998216331 655
10.9999998211861 592
11.019999820739 626
11.039999820292 601
11.059999819845 647
11.0799998193979 624
11.0999998189509 615
11.1199998185039 609
11.1399998180568 572
11.1599998176098 654
11.1799998171628 598
11.1999998167157 558
11.2199998162687 609
11.2399998158216 584
11.2599998153746 550
11.2799998149276 564
11.2999998144805 574
11.3199998140335 588
11.3399998135865 575
11.3599998131394 616
11.3799998126924 577
11.3999998122454 571
11.4199998117983 587
11.4399998113513 541
11.4599998109043 577
11.4799998104572 572
11.4999998100102 588
11.5199998095632 555
11.5399998091161 586
11.5599998086691 582
11.5799998082221 592
11.599999807775 567
11.619999807328 611
11.639999806881 549
11.6599998064339 593
11.6799998059869 597
11.6999998055398 613
11.7199998050928 569
11.7399998046458 584
11.7599998041987 582
11.7799998037517 640
11.7999998033047 583
11.8199998028576 572
11.8399998024106 570
11.8599998019636 585
11.8799998015165 562
11.8999998010695 571
11.9199998006225 612
11.9399998001754 589
11.9599997997284 588
11.9799997992814 543
11.9999997988343 569
12.0199997983873 617
12.0399997979403 594
12.0599997974932 596
12.0799997970462 593
12.0999997965992 582
12.1199997961521 598
12.1399997957051 642
12.159999795258 569
12.179999794811 598
12.199999794364 639
12.2199997939169 592
12.2399997934699 655
12.2599997930229 637
12.2799997925758 599
12.2999997921288 656
12.3199997916818 598
12.3399997912347 562
12.3599997907877 589
12.3799997903407 592
12.3999997898936 613
12.4199997894466 593
12.4399997889996 660
12.4599997885525 609
12.4799997881055 597
12.4999997876585 590
12.5199997872114 581
12.5399997867644 641
12.5599997863173 580
12.5799997858703 561
12.5999997854233 577
12.6199997849762 590
12.6399997845292 584
12.6599997840822 553
12.6799997836351 616
12.6999997831881 601
12.7199997827411 595
12.739999782294 593
12.759999781847 596
12.7799997814 587
12.7999997809529 603
12.8199997805059 585
12.8399997800589 596
12.8599997796118 596
12.8799997791648 627
12.8999997787178 632
12.9199997782707 642
12.9399997778237 615
12.9599997773767 608
12.9799997769296 629
12.9999997764826 616
13.0199997760355 598
13.0399997755885 618
13.0599997751415 663
13.0799997746944 599
13.0999997742474 627
13.1199997738004 616
13.1399997733533 621
13.1599997729063 642
13.1799997724593 650
13.1999997720122 607
13.2199997715652 577
13.2399997711182 632
13.2599997706711 651
13.2799997702241 639
13.2999997697771 669
13.31999976933 637
13.339999768883 612
13.359999768436 606
13.3799997679889 654
13.3999997675419 625
13.4199997670949 653
13.4399997666478 618
13.4599997662008 617
13.4799997657537 636
13.4999997653067 665
13.5199997648597 655
13.5399997644126 629
13.5599997639656 634
13.5799997635186 611
13.5999997630715 635
13.6199997626245 612
13.6399997621775 627
13.6599997617304 642
13.6799997612834 646
13.6999997608364 664
13.7199997603893 669
13.7399997599423 633
13.7599997594953 662
13.7799997590482 638
13.7999997586012 672
13.8199997581542 592
13.8399997577071 674
13.8599997572601 672
13.879999756813 662
13.899999756366 618
13.919999755919 623
13.9399997554719 648
13.9599997550249 628
13.9799997545779 626
13.9999997541308 685
14.0199997536838 607
14.0399997532368 676
14.0599997527897 646
14.0799997523427 665
14.0999997518957 657
14.1199997514486 699
14.1399997510016 702
14.1599997505546 688
14.1799997501075 649
14.1999997496605 675
14.2199997492135 639
14.2399997487664 679
14.2599997483194 673
14.2799997478724 693
14.2999997474253 699
14.3199997469783 712
14.3399997465312 685
14.3599997460842 691
14.3799997456372 678
14.3999997451901 706
14.4199997447431 694
14.4399997442961 699
14.459999743849 677
14.479999743402 683
14.499999742955 683
14.5199997425079 677
14.5399997420609 691
14.5599997416139 660
14.5799997411668 717
14.5999997407198 661
14.6199997402728 692
14.6399997398257 692
14.6599997393787 702
14.6799997389317 647
14.6999997384846 687
14.7199997380376 692
14.7399997375906 692
14.7599997371435 655
14.7799997366965 683
14.7999997362494 630
14.8199997358024 709
14.8399997353554 684
14.8599997349083 693
14.8799997344613 728
14.8999997340143 703
14.9199997335672 679
14.9399997331202 682
14.9599997326732 677
14.9799997322261 719
14.9999997317791 675
15.0199997313321 686
15.039999730885 703
15.059999730438 700
15.079999729991 692
15.0999997295439 662
15.1199997290969 700
15.1399997286499 686
15.1599997282028 718
15.1799997277558 752
15.1999997273088 666
15.2199997268617 716
15.2399997264147 659
15.2599997259676 743
15.2799997255206 711
15.2999997250736 745
15.3199997246265 682
15.3399997241795 721
15.3599997237325 735
15.3799997232854 770
15.3999997228384 691
15.4199997223914 771
15.4399997219443 782
15.4599997214973 703
15.4799997210503 710
15.4999997206032 780
15.5199997201562 747
15.5399997197092 734
15.5599997192621 758
15.5799997188151 713
15.5999997183681 764
15.619999717921 736
15.639999717474 779
15.659999717027 795
15.6799997165799 761
15.6999997161329 732
15.7199997156858 792
15.7399997152388 797
15.7599997147918 763
15.7799997143447 763
15.7999997138977 729
15.8199997134507 795
15.8399997130036 787
15.8599997125566 785
15.8799997121096 780
15.8999997116625 784
15.9199997112155 794
15.9399997107685 770
15.9599997103214 769
15.9799997098744 799
15.9999997094274 771
16.0199997089803 781
16.0399997085333 814
16.0599997080863 774
16.0799997076392 808
16.0999997071922 789
16.1199997067451 818
16.1399997062981 795
16.1599997058511 807
16.179999705404 838
16.199999704957 865
16.21999970451 825
16.2399997040629 846
16.2599997036159 787
16.2799997031689 814
16.2999997027218 774
16.3199997022748 789
16.3399997018278 824
16.3599997013807 829
16.3799997009337 810
16.3999997004867 837
16.4199997000396 827
16.4399996995926 816
16.4599996991456 866
16.4799996986985 861
16.4999996982515 842
16.5199996978045 873
16.5399996973574 869
16.5599996969104 835
16.5799996964633 864
16.5999996960163 843
16.6199996955693 881
16.6399996951222 861
16.6599996946752 833
16.6799996942282 851
16.6999996937811 887
16.7199996933341 839
16.7399996928871 868
16.75999969244 868
16.779999691993 904
16.799999691546 890
16.8199996910989 912
16.8399996906519 931
16.8599996902049 942
16.8799996897578 1011
16.8999996893108 1013
16.9199996888638 1044
16.9399996884167 1155
16.9599996879697 1174
16.9799996875226 1256
16.9999996870756 1343
17.0199996866286 1360
17.0399996861815 1392
17.0599996857345 1337
17.0799996852875 1291
17.0999996848404 1139
17.1199996843934 1119
17.1399996839464 1020
17.1599996834993 990
17.1799996830523 981
17.1999996826053 985
17.2199996821582 975
17.2399996817112 957
17.2599996812642 929
17.2799996808171 963
17.2999996803701 896
17.3199996799231 952
17.339999679476 897
17.359999679029 961
17.379999678582 1027
17.3999996781349 950
17.4199996776879 938
17.4399996772408 978
17.4599996767938 961
17.4799996763468 968
17.4999996758997 1004
17.5199996754527 967
17.5399996750057 957
17.5599996745586 981
17.5799996741116 986
17.5999996736646 999
17.6199996732175 969
17.6399996727705 1016
17.6599996723235 943
17.6799996718764 1010
17.6999996714294 1018
17.7199996709824 986
17.7399996705353 1072
17.7599996700883 981
17.7799996696413 989
17.7999996691942 1015
17.8199996687472 984
17.8399996683002 1014
17.8599996678531 970
17.8799996674061 1003
17.899999666959 1019
17.919999666512 998
17.939999666065 938
17.9599996656179 1012
17.9799996651709 1011
17.9999996647239 1011
18.0199996642768 1012
18.0399996638298 1052
18.0599996633828 1034
18.0799996629357 1016
18.0999996624887 1060
18.1199996620417 1009
18.1399996615946 1045
18.1599996611476 990
18.1799996607006 1016
18.1999996602535 976
18.2199996598065 1007
18.2399996593595 1044
18.2599996589124 1016
18.2799996584654 991
18.2999996580184 1027
18.3199996575713 1035
18.3399996571243 1054
18.3599996566772 1021
18.3799996562302 1060
18.3999996557832 1066
18.4199996553361 1040
18.4399996548891 1113
18.4599996544421 1137
18.479999653995 1096
18.499999653548 1122
18.519999653101 1061
18.5399996526539 1142
18.5599996522069 1107
18.5799996517599 1106
18.5999996513128 1085
18.6199996508658 1126
18.6399996504188 1137
18.6599996499717 1097
18.6799996495247 1150
18.6999996490777 1166
18.7199996486306 1095
18.7399996481836 1153
18.7599996477366 1147
18.7799996472895 1121
18.7999996468425 1172
18.8199996463954 1172
18.8399996459484 1110
18.8599996455014 1143
18.8799996450543 1125
18.8999996446073 1161
18.9199996441603 1169
18.9399996437132 1137
18.9599996432662 1154
18.9799996428192 1189
18.9999996423721 1168
19.0199996419251 1116
19.0399996414781 1177
19.059999641031 1100
19.079999640584 1122
19.099999640137 1174
19.1199996396899 1230
19.1399996392429 1156
19.1599996387959 1235
19.1799996383488 1225
19.1999996379018 1199
19.2199996374547 1192
19.2399996370077 1209
19.2599996365607 1264
19.2799996361136 1206
19.2999996356666 1174
19.3199996352196 1211
19.3399996347725 1199
19.3599996343255 1263
19.3799996338785 1321
19.3999996334314 1281
19.4199996329844 1314
19.4399996325374 1299
19.4599996320903 1372
19.4799996316433 1386
19.4999996311963 1339
19.5199996307492 1365
19.5399996303022 1324
19.5599996298552 1324
19.5799996294081 1322
19.5999996289611 1265
19.6199996285141 1290
19.639999628067 1216
19.65999962762 1299
19.6799996271729 1276
19.6999996267259 1247
19.7199996262789 1227
19.7399996258318 1337
19.7599996253848 1318
19.7799996249378 1235
19.7999996244907 1248
19.8199996240437 1286
19.8399996235967 1303
19.8599996231496 1304
19.8799996227026 1256
19.8999996222556 1355
19.9199996218085 1325
19.9399996213615 1237
19.9599996209145 1321
19.9799996204674 1278
19.9999996200204 1315
