3 2895
3.01999999955297 2638
3.03999999910593 2613
3.0599999986589 2538
3.07999999821186 2422
3.09999999776483 2374
3.11999999731779 2342
3.13999999687076 2341
3.15999999642372 2247
3.17999999597669 2157
3.19999999552965 2298
3.21999999508262 2224
3.23999999463558 2259
3.25999999418855 2129
3.27999999374151 2153
3.29999999329448 2086
3.31999999284744 2166
3.33999999240041 2047
3.35999999195337 2078
3.37999999150634 2106
3.3999999910593 2003
3.41999999061227 2050
3.43999999016523 2007
3.4599999897182 1961
3.47999998927116 1939
3.49999998882413 1963
3.51999998837709 1955
3.53999998793006 1881
3.55999998748302 1884
3.57999998703599 1850
3.59999998658895 1909
3.61999998614192 1836
3.63999998569489 1868
3.65999998524785 1837
3.67999998480082 1833
3.69999998435378 1736
3.71999998390675 1742
3.73999998345971 1714
3.75999998301268 1720
3.77999998256564 1683
3.79999998211861 1638
3.81999998167157 1601
3.83999998122454 1656
3.8599999807775 1732
3.87999998033047 1641
3.89999997988343 1606
3.9199999794364 1594
3.93999997898936 1503
3.95999997854233 1566
3.97999997809529 1621
3.99999997764826 1597
4.01999997720122 1499
4.03999997675419 1499
4.05999997630715 1524
4.07999997586012 1504
4.09999997541308 1494
4.11999997496605 1396
4.13999997451901 1444
4.15999997407198 1438
4.17999997362494 1373
4.19999997317791 1388
4.21999997273087 1322
4.23999997228384 1379
4.25999997183681 1361
4.27999997138977 1379
4.29999997094274 1305
4.3199999704957 1280
4.33999997004867 1321
4.35999996960163 1339
4.3799999691546 1308
4.39999996870756 1238
4.41999996826053 1197
4.43999996781349 1159
4.45999996736646 1200
4.47999996691942 1240
4.49999996647239 1206
4.51999996602535 1146
4.53999996557832 1158
4.55999996513128 1097
4.57999996468425 1142
4.59999996423721 1141
4.61999996379018 1151
4.63999996334314 1157
4.65999996289611 1102
4.67999996244907 1077
4.69999996200204 1096
4.719999961555 1123
4.73999996110797 1030
4.75999996066093 1078
4.7799999602139 1050
4.79999995976686 1022
4.81999995931983 1049
4.83999995887279 1014
4.85999995842576 1025
4.87999995797873 1028
4.89999995753169 978
4.91999995708466 976
4.93999995663762 991
4.95999995619059 1009
4.97999995574355 989
4.99999995529652 951
5.01999995484948 940
5.03999995440245 932
5.05999995395541 892
5.07999995350838 937
5.09999995306134 864
5.11999995261431 973
5.13999995216727 945
5.15999995172024 886
5.1799999512732 862
5.19999995082617 904
5.21999995037913 928
5.2399999499321 888
5.25999994948506 913
5.27999994903803 835
5.29999994859099 932
5.31999994814396 900
5.33999994769692 916
5.35999994724989 875
5.37999994680285 914
5.39999994635582 913
5.41999994590878 921
5.43999994546175 846
5.45999994501471 901
5.47999994456768 912
5.49999994412065 872
5.51999994367361 837
5.53999994322658 856
5.55999994277954 816
5.57999994233251 807
5.59999994188547 831
5.61999994143844 797
5.6399999409914 801
5.65999994054437 774
5.67999994009733 819
5.6999999396503 776
5.71999993920326 759
5.73999993875623 753
5.75999993830919 734
5.77999993786216 788
5.79999993741512 780
5.81999993696809 763
5.83999993652105 718
5.85999993607402 739
5.87999993562698 749
5.89999993517995 736
5.91999993473291 690
5.93999993428588 778
5.95999993383884 728
5.97999993339181 729
5.99999993294477 752
6.01999993249774 697
6.0399999320507 670
6.05999993160367 705
6.07999993115663 648
6.0999999307096 706
6.11999993026257 673
6.13999992981553 655
6.1599999293685 664
6.17999992892146 698
6.19999992847443 724
6.21999992802739 683
6.23999992758036 673
6.25999992713332 721
6.27999992668629 718
6.29999992623925 685
6.31999992579222 649
6.33999992534518 653
6.35999992489815 659
6.37999992445111 684
6.39999992400408 655
6.41999992355704 662
6.43999992311001 704
6.45999992266297 645
6.47999992221594 647
6.4999999217689 663
6.51999992132187 653
6.53999992087483 659
6.5599999204278 621
6.57999991998076 619
6.59999991953373 657
6.61999991908669 607
6.63999991863966 678
6.65999991819262 628
6.67999991774559 684
6.69999991729855 611
6.71999991685152 617
6.73999991640449 640
6.75999991595745 654
6.77999991551042 626
6.79999991506338 620
6.81999991461635 640
6.83999991416931 631
6.85999991372228 651
6.87999991327524 648
6.89999991282821 627
6.91999991238117 623
6.93999991193414 626
6.9599999114871 628
6.97999991104007 603
6.99999991059303 615
7.019999910146 574
7.03999990969896 595
7.05999990925193 608
7.07999990880489 630
7.09999990835786 642
7.11999990791082 636
7.13999990746379 656
7.15999990701675 581
7.17999990656972 578
7.19999990612268 625
7.21999990567565 617
7.23999990522861 600
7.25999990478158 593
7.27999990433454 543
7.29999990388751 624
7.31999990344047 614
7.33999990299344 616
7.35999990254641 592
7.37999990209937 583
7.39999990165234 617
7.4199999012053 614
7.43999990075827 596
7.45999990031123 580
7.4799998998642 570
7.49999989941716 570
7.51999989897013 582
7.53999989852309 566
7.55999989807606 602
7.57999989762902 597
7.59999989718199 585
7.61999989673495 600
7.63999989628792 613
7.65999989584088 594
7.67999989539385 586
7.69999989494681 576
7.71999989449978 557
7.73999989405274 595
7.75999989360571 556
7.77999989315867 591
7.79999989271164 564
7.8199998922646 608
7.83999989181757 564
7.85999989137053 591
7.8799998909235 532
7.89999989047646 567
7.91999989002943 542
7.9399998895824 556
7.95999988913536 531
7.97999988868833 583
7.99999988824129 592
8.01999988779426 553
8.03999988734722 591
8.05999988690019 520
8.07999988645315 556
8.09999988600612 540
8.11999988555908 565
8.13999988511205 533
8.15999988466501 547
8.17999988421798 538
8.19999988377094 556
8.21999988332391 544
8.23999988287687 536
8.25999988242984 525
8.2799998819828 557
8.29999988153577 590
8.31999988108873 535
8.3399998806417 540
8.35999988019466 540
8.37999987974763 564
8.39999987930059 522
8.41999987885356 557
8.43999987840652 541
8.45999987795949 553
8.47999987751245 522
8.49999987706542 561
8.51999987661839 555
8.53999987617135 570
8.55999987572432 583
8.57999987527728 532
8.59999987483025 540
8.61999987438321 582
8.63999987393618 574
8.65999987348914 588
8.67999987304211 554
8.69999987259507 553
8.71999987214804 564
8.739999871701 524
8.75999987125397 559
8.77999987080693 551
8.7999998703599 549
8.81999986991286 548
8.83999986946583 553
8.85999986901879 547
8.87999986857176 569
8.89999986812472 536
8.91999986767769 570
8.93999986723065 552
8.95999986678362 553
8.97999986633658 535
8.99999986588955 556
9.01999986544251 561
9.03999986499548 582
9.05999986454844 550
9.07999986410141 543
9.09999986365438 573
9.11999986320734 512
9.13999986276031 528
9.15999986231327 542
9.17999986186624 518
9.1999998614192 532
9.21999986097217 503
9.23999986052513 532
9.2599998600781 520
9.27999985963106 536
9.29999985918403 541
9.31999985873699 542
9.33999985828996 548
9.35999985784292 578
9.37999985739589 580
9.39999985694885 547
9.41999985650182 520
9.43999985605478 505
9.45999985560775 535
9.47999985516071 526
9.49999985471368 507
9.51999985426664 492
9.53999985381961 502
9.55999985337257 460
9.57999985292554 520
9.5999998524785 511
9.61999985203147 492
9.63999985158443 469
9.6599998511374 497
9.67999985069037 531
9.69999985024333 497
9.7199998497963 468
9.73999984934926 486
9.75999984890223 500
9.77999984845519 497
9.79999984800816 512
9.81999984756112 507
9.83999984711409 488
9.85999984666705 490
9.87999984622002 507
9.89999984577298 492
9.91999984532595 493
9.93999984487891 515
9.95999984443188 503
9.97999984398484 496
9.99999984353781 474
10.0199998430908 467
10.0399998426437 487
10.0599998421967 465
10.0799998417497 470
10.0999998413026 485
10.1199998408556 466
10.1399998404086 527
10.1599998399615 500
10.1799998395145 450
10.1999998390675 463
10.2199998386204 478
10.2399998381734 513
10.2599998377264 459
10.2799998372793 482
10.2999998368323 474
10.3199998363853 463
10.3399998359382 468
10.3599998354912 470
10.3799998350441 450
10.3999998345971 494
10.4199998341501 445
10.439999833703 498
10.459999833256 490
10.479999832809 440
10.4999998323619 492
10.5199998319149 504
10.5399998314679 492
10.5599998310208 495
10.5799998305738 488
10.5999998301268 447
10.6199998296797 462
10.6399998292327 462
10.6599998287857 448
10.6799998283386 523
10.6999998278916 479
10.7199998274446 461
10.7399998269975 501
10.7599998265505 477
10.7799998261034 463
10.7999998256564 467
10.8199998252094 465
10.8399998247623 487
10.8599998243153 450
10.8799998238683 440
10.8999998234212 483
10.9199998229742 457
10.9399998225272 495
10.9599998220801 470
10.9799998216331 460
10.9999998211861 466
11.019999820739 452
11.039999820292 490
11.059999819845 477
11.0799998193979 466
11.0999998189509 441
11.1199998185039 462
11.1399998180568 464
11.1599998176098 452
11.1799998171628 440
11.1999998167157 494
11.2199998162687 485
11.2399998158216 440
11.2599998153746 433
11.2799998149276 471
11.2999998144805 463
11.3199998140335 449
11.3399998135865 423
11.3599998131394 457
11.3799998126924 446
11.3999998122454 450
11.4199998117983 416
11.4399998113513 474
11.4599998109043 455
11.4799998104572 447
11.4999998100102 430
11.5199998095632 424
11.5399998091161 473
11.5599998086691 459
11.5799998082221 440
11.599999807775 446
11.619999807328 483
11.639999806881 446
11.6599998064339 489
11.6799998059869 449
11.6999998055398 492
11.7199998050928 470
11.7399998046458 432
11.7599998041987 469
11.7799998037517 467
11.7999998033047 454
11.8199998028576 461
11.8399998024106 501
11.8599998019636 447
11.8799998015165 454
11.8999998010695 470
11.9199998006225 457
11.9399998001754 452
11.9599997997284 478
11.9799997992814 463
11.9999997988343 480
12.0199997983873 445
12.0399997979403 496
12.0599997974932 472
12.0799997970462 482
12.0999997965992 470
12.1199997961521 468
12.1399997957051 471
12.159999795258 463
12.179999794811 477
12.199999794364 421
12.2199997939169 445
12.2399997934699 427
12.2599997930229 441
12.2799997925758 447
12.2999997921288 499
12.3199997916818 463
12.3399997912347 452
12.3599997907877 485
12.3799997903407 475
12.3999997898936 461
12.4199997894466 476
12.4399997889996 428
12.4599997885525 483
12.4799997881055 430
12.4999997876585 488
12.5199997872114 448
12.5399997867644 445
12.5599997863173 431
12.5799997858703 478
12.5999997854233 491
12.6199997849762 485
12.6399997845292 442
12.6599997840822 462
12.6799997836351 464
12.6999997831881 494
12.7199997827411 440
12.739999782294 443
12.759999781847 477
12.7799997814 476
12.7999997809529 468
12.8199997805059 463
12.8399997800589 449
12.8599997796118 475
12.8799997791648 498
12.8999997787178 457
12.9199997782707 468
12.9399997778237 429
12.9599997773767 448
12.9799997769296 491
12.9999997764826 449
13.0199997760355 485
13.0399997755885 493
13.0599997751415 475
13.0799997746944 464
13.0999997742474 499
13.1199997738004 485
13.1399997733533 470
13.1599997729063 491
13.1799997724593 481
13.1999997720122 504
13.2199997715652 497
13.2399997711182 471
13.2599997706711 490
13.2799997702241 470
13.2999997697771 444
13.31999976933 469
13.339999768883 473
13.359999768436 431
13.3799997679889 453
13.3999997675419 482
13.4199997670949 478
13.4399997666478 465
13.4599997662008 524
13.4799997657537 472
13.4999997653067 452
13.5199997648597 457
13.5399997644126 420
13.5599997639656 483
13.5799997635186 475
13.5999997630715 487
13.6199997626245 486
13.6399997621775 482
13.6599997617304 469
13.6799997612834 481
13.6999997608364 472
13.7199997603893 483
13.7399997599423 454
13.7599997594953 487
13.7799997590482 493
13.7999997586012 471
13.8199997581542 469
13.8399997577071 448
13.8599997572601 503
13.879999756813 485
13.899999756366 417
13.919999755919 499
13.9399997554719 482
13.9599997550249 462
13.9799997545779 468
13.9999997541308 494
14.0199997536838 468
14.0399997532368 485
14.0599997527897 448
14.0799997523427 481
14.0999997518957 483
14.1199997514486 487
14.1399997510016 471
14.1599997505546 483
14.1799997501075 477
14.1999997496605 479
14.2199997492135 467
14.2399997487664 461
14.2599997483194 518
14.2799997478724 512
14.2999997474253 443
14.3199997469783 506
14.3399997465312 499
14.3599997460842 477
14.3799997456372 515
14.3999997451901 501
14.4199997447431 455
14.4399997442961 497
14.459999743849 487
14.479999743402 474
14.499999742955 493
14.5199997425079 490
14.5399997420609 528
14.5599997416139 454
14.5799997411668 492
14.5999997407198 506
14.6199997402728 545
14.6399997398257 509
14.6599997393787 491
14.6799997389317 512
14.6999997384846 532
14.7199997380376 516
14.7399997375906 532
14.7599997371435 515
14.7799997366965 522
14.7999997362494 520
14.8199997358024 532
14.8399997353554 536
14.8599997349083 504
14.8799997344613 484
14.8999997340143 485
14.9199997335672 502
14.9399997331202 507
14.9599997326732 538
14.9799997322261 514
14.9999997317791 510
15.0199997313321 494
15.039999730885 504
15.059999730438 520
15.079999729991 545
15.0999997295439 537
15.1199997290969 503
15.1399997286499 527
15.1599997282028 502
15.1799997277558 491
15.1999997273088 488
15.2199997268617 556
15.2399997264147 544
15.2599997259676 540
15.2799997255206 543
15.2999997250736 519
15.3199997246265 518
15.3399997241795 547
15.3599997237325 540
15.3799997232854 507
15.3999997228384 518
15.4199997223914 531
15.4399997219443 529
15.4599997214973 567
15.4799997210503 555
15.4999997206032 557
15.5199997201562 532
15.5399997197092 520
15.5599997192621 580
15.5799997188151 553
15.5999997183681 550
15.619999717921 520
15.639999717474 538
15.659999717027 504
15.6799997165799 564
15.6999997161329 574
15.7199997156858 520
15.7399997152388 546
15.7599997147918 577
15.7799997143447 539
15.7999997138977 549
15.8199997134507 536
15.8399997130036 540
15.8599997125566 586
15.8799997121096 583
15.8999997116625 525
15.9199997112155 544
15.9399997107685 561
15.9599997103214 543
15.9799997098744 565
15.9999997094274 571
16.0199997089803 586
16.0399997085333 558
16.0599997080863 549
16.0799997076392 556
16.0999997071922 578
16.1199997067451 560
16.1399997062981 517
16.1599997058511 571
16.179999705404 563
16.199999704957 582
16.21999970451 588
16.2399997040629 570
16.2599997036159 557
16.2799997031689 579
16.2999997027218 599
16.3199997022748 615
16.3399997018278 568
16.3599997013807 601
16.3799997009337 557
16.3999997004867 608
16.4199997000396 587
16.4399996995926 637
16.4599996991456 607
16.4799996986985 580
16.4999996982515 618
16.5199996978045 638
16.5399996973574 631
16.5599996969104 612
16.5799996964633 603
16.5999996960163 636
16.6199996955693 662
16.6399996951222 653
16.6599996946752 703
16.6799996942282 669
16.6999996937811 714
16.7199996933341 675
16.7399996928871 758
16.75999969244 752
16.779999691993 752
16.799999691546 887
16.8199996910989 893
16.8399996906519 946
16.8599996902049 1065
16.8799996897578 1181
16.8999996893108 1435
16.9199996888638 1699
16.9399996884167 1818
16.9599996879697 1837
16.9799996875226 1700
16.9999996870756 1552
17.0199996866286 1310
17.0399996861815 1159
17.0599996857345 1011
17.0799996852875 938
17.0999996848404 880
17.1199996843934 756
17.1399996839464 714
17.1599996834993 716
17.1799996830523 664
17.1999996826053 686
17.2199996821582 646
17.2399996817112 678
17.2599996812642 721
17.2799996808171 667
17.2999996803701 637
17.3199996799231 667
17.339999679476 673
17.359999679029 640
17.379999678582 636
17.3999996781349 681
17.4199996776879 675
17.4399996772408 654
17.4599996767938 632
17.4799996763468 659
17.4999996758997 701
17.5199996754527 673
17.5399996750057 636
17.5599996745586 661
17.5799996741116 673
17.5999996736646 689
17.6199996732175 719
17.6399996727705 677
17.6599996723235 688
17.6799996718764 700
17.6999996714294 669
17.7199996709824 744
17.7399996705353 675
17.7599996700883 660
17.7799996696413 705
17.7999996691942 681
17.8199996687472 735
17.8399996683002 707
17.8599996678531 664
17.8799996674061 722
17.899999666959 679
17.919999666512 643
17.939999666065 719
17.9599996656179 719
17.9799996651709 740
17.9999996647239 731
18.0199996642768 694
18.0399996638298 662
18.0599996633828 698
18.0799996629357 732
18.0999996624887 695
18.1199996620417 726
18.1399996615946 693
18.1599996611476 681
18.1799996607006 722
18.1999996602535 735
18.2199996598065 741
18.2399996593595 717
18.2599996589124 703
18.2799996584654 731
18.2999996580184 714
18.3199996575713 750
18.3399996571243 747
18.3599996566772 747
18.3799996562302 708
18.3999996557832 713
18.4199996553361 776
18.4399996548891 783
18.4599996544421 792
18.479999653995 779
18.499999653548 749
18.519999653101 786
18.5399996526539 727
18.5599996522069 711
18.5799996517599 719
18.5999996513128 721
18.6199996508658 820
18.6399996504188 769
18.6599996499717 785
18.6799996495247 823
18.6999996490777 761
18.7199996486306 763
18.7399996481836 737
18.7599996477366 724
18.7799996472895 763
18.7999996468425 775
18.8199996463954 781
18.8399996459484 756
18.8599996455014 778
18.8799996450543 820
18.8999996446073 708
18.9199996441603 743
18.9399996437132 816
18.9599996432662 763
18.9799996428192 780
18.9999996423721 777
19.0199996419251 827
19.0399996414781 770
19.059999641031 781
19.079999640584 772
19.099999640137 818
19.1199996396899 793
19.1399996392429 791
19.1599996387959 804
19.1799996383488 826
19.1999996379018 781
19.2199996374547 784
19.2399996370077 798
19.2599996365607 748
19.2799996361136 810
19.2999996356666 751
19.3199996352196 829
19.3399996347725 857
19.3599996343255 833
19.3799996338785 801
19.3999996334314 822
19.4199996329844 809
19.4399996325374 850
19.4599996320903 748
19.4799996316433 862
19.4999996311963 817
19.5199996307492 861
19.5399996303022 804
19.5599996298552 872
19.5799996294081 870
19.5999996289611 826
19.6199996285141 874
19.639999628067 841
19.65999962762 867
19.6799996271729 789
19.6999996267259 879
19.7199996262789 791
19.7399996258318 841
19.7599996253848 880
19.7799996249378 830
19.7999996244907 834
19.8199996240437 871
19.8399996235967 901
19.8599996231496 872
19.8799996227026 872
19.8999996222556 823
19.9199996218085 870
19.9399996213615 908
19.9599996209145 861
19.9799996204674 846
19.9999996200204 927
