3 1835
3.01999999955297 1780
3.03999999910593 1763
3.0599999986589 1674
3.07999999821186 1692
3.09999999776483 1632
3.11999999731779 1569
3.13999999687076 1570
3.15999999642372 1552
3.17999999597669 1529
3.19999999552965 1499
3.21999999508262 1557
3.23999999463558 1549
3.25999999418855 1548
3.27999999374151 1512
3.29999999329448 1500
3.31999999284744 1572
3.33999999240041 1407
3.35999999195337 1327
3.37999999150634 1447
3.3999999910593 1421
3.41999999061227 1468
3.43999999016523 1453
3.4599999897182 1367
3.47999998927116 1393
3.49999998882413 1357
3.51999998837709 1316
3.53999998793006 1342
3.55999998748302 1335
3.57999998703599 1314
3.59999998658895 1335
3.61999998614192 1329
3.63999998569489 1230
3.65999998524785 1268
3.67999998480082 1301
3.69999998435378 1328
3.71999998390675 1270
3.73999998345971 1351
3.75999998301268 1220
3.77999998256564 1193
3.79999998211861 1129
3.81999998167157 1193
3.83999998122454 1249
3.8599999807775 1187
3.87999998033047 1174
3.89999997988343 1153
3.9199999794364 1162
3.93999997898936 1124
3.95999997854233 1169
3.97999997809529 1162
3.99999997764826 1141
4.01999997720122 1206
4.03999997675419 1213
4.05999997630715 1100
4.07999997586012 1095
4.09999997541308 1143
4.11999997496605 1125
4.13999997451901 1084
4.15999997407198 1011
4.17999997362494 1060
4.19999997317791 1062
4.21999997273087 1102
4.23999997228384 1044
4.25999997183681 1089
4.27999997138977 1043
4.29999997094274 1045
4.3199999704957 989
4.33999997004867 1022
4.35999996960163 1057
4.3799999691546 1033
4.39999996870756 960
4.41999996826053 957
4.43999996781349 969
4.45999996736646 994
4.47999996691942 971
4.49999996647239 911
4.51999996602535 967
4.53999996557832 973
4.55999996513128 959
4.57999996468425 961
4.59999996423721 921
4.61999996379018 938
4.63999996334314 906
4.65999996289611 923
4.67999996244907 911
4.69999996200204 891
4.719999961555 932
4.73999996110797 900
4.75999996066093 845
4.7799999602139 875
4.79999995976686 915
4.81999995931983 875
4.83999995887279 837
4.85999995842576 873
4.87999995797873 856
4.89999995753169 827
4.91999995708466 870
4.93999995663762 824
4.95999995619059 858
4.97999995574355 822
4.99999995529652 872
5.01999995484948 821
5.03999995440245 795
5.05999995395541 800
5.07999995350838 819
5.09999995306134 804
5.11999995261431 812
5.13999995216727 804
5.15999995172024 806
5.1799999512732 788
5.19999995082617 823
5.21999995037913 816
5.2399999499321 754
5.25999994948506 736
5.27999994903803 815
5.29999994859099 749
5.31999994814396 741
5.33999994769692 760
5.35999994724989 762
5.37999994680285 774
5.39999994635582 735
5.41999994590878 757
5.43999994546175 690
5.45999994501471 731
5.47999994456768 738
5.49999994412065 712
5.51999994367361 731
5.53999994322658 773
5.55999994277954 735
5.57999994233251 737
5.59999994188547 743
5.61999994143844 712
5.6399999409914 688
5.65999994054437 708
5.67999994009733 725
5.6999999396503 686
5.71999993920326 764
5.73999993875623 770
5.75999993830919 713
5.77999993786216 735
5.79999993741512 735
5.81999993696809 734
5.83999993652105 718
5.85999993607402 663
5.87999993562698 697
5.89999993517995 675
5.91999993473291 662
5.93999993428588 683
5.95999993383884 636
5.97999993339181 659
5.99999993294477 631
6.01999993249774 653
6.0399999320507 653
6.05999993160367 662
6.07999993115663 614
6.0999999307096 672
6.11999993026257 671
6.13999992981553 636
6.1599999293685 666
6.17999992892146 642
6.19999992847443 646
6.21999992802739 643
6.23999992758036 649
6.25999992713332 631
6.27999992668629 653
6.29999992623925 629
6.31999992579222 595
6.33999992534518 652
6.35999992489815 649
6.37999992445111 625
6.39999992400408 666
6.41999992355704 627
6.43999992311001 651
6.45999992266297 638
6.47999992221594 637
6.4999999217689 613
6.51999992132187 626
6.53999992087483 661
6.5599999204278 628
6.57999991998076 656
6.59999991953373 585
6.61999991908669 644
6.63999991863966 610
6.65999991819262 677
6.67999991774559 653
6.69999991729855 619
6.71999991685152 626
6.73999991640449 645
6.75999991595745 618
6.77999991551042 606
6.79999991506338 651
6.81999991461635 648
6.83999991416931 627
6.85999991372228 626
6.87999991327524 642
6.89999991282821 630
6.91999991238117 612
6.93999991193414 626
6.9599999114871 649
6.97999991104007 641
6.99999991059303 590
7.019999910146 611
7.03999990969896 598
7.05999990925193 608
7.07999990880489 603
7.09999990835786 623
7.11999990791082 618
7.13999990746379 567
7.15999990701675 573
7.17999990656972 619
7.19999990612268 575
7.21999990567565 608
7.23999990522861 616
7.25999990478158 630
7.27999990433454 623
7.29999990388751 597
7.31999990344047 626
7.33999990299344 584
7.35999990254641 590
7.37999990209937 576
7.39999990165234 614
7.4199999012053 580
7.43999990075827 639
7.45999990031123 620
7.4799998998642 616
7.49999989941716 578
7.51999989897013 647
7.53999989852309 598
7.55999989807606 657
7.57999989762902 574
7.59999989718199 595
7.61999989673495 585
7.63999989628792 580
7.65999989584088 616
7.67999989539385 605
7.69999989494681 559
7.71999989449978 555
7.73999989405274 597
7.75999989360571 589
7.77999989315867 580
7.79999989271164 640
7.8199998922646 587
7.83999989181757 617
7.85999989137053 583
7.8799998909235 572
7.89999989047646 616
7.91999989002943 593
7.9399998895824 572
7.95999988913536 610
7.97999988868833 574
7.99999988824129 587
8.01999988779426 571
8.03999988734722 581
8.05999988690019 590
8.07999988645315 596
8.09999988600612 563
8.11999988555908 579
8.13999988511205 599
8.15999988466501 518
8.17999988421798 564
8.19999988377094 607
8.21999988332391 630
8.23999988287687 617
8.25999988242984 561
8.2799998819828 556
8.29999988153577 552
8.31999988108873 585
8.3399998806417 560
8.35999988019466 540
8.37999987974763 565
8.39999987930059 547
8.41999987885356 603
8.43999987840652 583
8.45999987795949 547
8.47999987751245 565
8.49999987706542 542
8.51999987661839 540
8.53999987617135 496
8.55999987572432 551
8.57999987527728 571
8.59999987483025 574
8.61999987438321 542
8.63999987393618 564
8.65999987348914 540
8.67999987304211 577
8.69999987259507 535
8.71999987214804 583
8.739999871701 531
8.75999987125397 565
8.77999987080693 543
8.7999998703599 532
8.81999986991286 523
8.83999986946583 523
8.85999986901879 560
8.87999986857176 543
8.89999986812472 555
8.91999986767769 516
8.93999986723065 525
8.95999986678362 531
8.97999986633658 524
8.99999986588955 538
9.01999986544251 561
9.03999986499548 552
9.05999986454844 591
9.07999986410141 563
9.09999986365438 562
9.11999986320734 532
9.13999986276031 574
9.15999986231327 546
9.17999986186624 528
9.1999998614192 579
9.21999986097217 565
9.23999986052513 545
9.2599998600781 535
9.27999985963106 508
9.29999985918403 559
9.31999985873699 531
9.33999985828996 536
9.35999985784292 501
9.37999985739589 553
9.39999985694885 524
9.41999985650182 495
9.43999985605478 548
9.45999985560775 531
9.47999985516071 565
9.49999985471368 551
9.51999985426664 555
9.53999985381961 502
9.55999985337257 553
9.57999985292554 570
9.5999998524785 549
9.61999985203147 544
9.63999985158443 517
9.6599998511374 569
9.67999985069037 497
9.69999985024333 529
9.7199998497963 508
9.73999984934926 550
9.75999984890223 535
9.77999984845519 564
9.79999984800816 515
9.81999984756112 524
9.83999984711409 517
9.85999984666705 539
9.87999984622002 553
9.89999984577298 501
9.91999984532595 559
9.93999984487891 554
9.95999984443188 529
9.97999984398484 520
9.99999984353781 530
10.0199998430908 528
10.0399998426437 549
10.0599998421967 517
10.0799998417497 544
10.0999998413026 510
10.1199998408556 575
10.1399998404086 557
10.1599998399615 527
10.1799998395145 520
10.1999998390675 524
10.2199998386204 536
10.2399998381734 542
10.2599998377264 488
10.2799998372793 474
10.2999998368323 522
10.3199998363853 499
10.3399998359382 540
10.3599998354912 549
10.3799998350441 539
10.3999998345971 569
10.4199998341501 538
10.439999833703 508
10.459999833256 516
10.479999832809 542
10.4999998323619 524
10.5199998319149 554
10.5399998314679 536
10.5599998310208 521
10.5799998305738 497
10.5999998301268 518
10.6199998296797 520
10.6399998292327 539
10.6599998287857 557
10.6799998283386 545
10.6999998278916 543
10.7199998274446 505
10.7399998269975 553
10.7599998265505 536
10.7799998261034 513
10.7999998256564 542
10.8199998252094 509
10.8399998247623 518
10.8599998243153 510
10.8799998238683 539
10.8999998234212 493
10.9199998229742 535
10.9399998225272 529
10.9599998220801 499
10.9799998216331 495
10.9999998211861 530
11.019999820739 558
11.039999820292 498
11.059999819845 537
11.0799998193979 524
11.0999998189509 500
11.1199998185039 556
11.1399998180568 516
11.1599998176098 499
11.1799998171628 513
11.1999998167157 523
11.2199998162687 482
11.2399998158216 508
11.2599998153746 534
11.2799998149276 576
11.2999998144805 496
11.3199998140335 571
11.3399998135865 531
11.3599998131394 559
11.3799998126924 546
11.3999998122454 544
11.4199998117983 516
11.4399998113513 504
11.4599998109043 552
11.4799998104572 514
11.4999998100102 545
11.5199998095632 538
11.5399998091161 518
11.5599998086691 526
11.5799998082221 547
11.599999807775 589
11.619999807328 544
11.639999806881 557
11.6599998064339 507
11.6799998059869 479
11.6999998055398 533
11.7199998050928 520
11.7399998046458 566
11.7599998041987 515
11.7799998037517 497
11.7999998033047 543
11.8199998028576 490
11.8399998024106 517
11.8599998019636 523
11.8799998015165 509
11.8999998010695 539
11.9199998006225 524
11.9399998001754 571
11.9599997997284 526
11.9799997992814 540
11.9999997988343 548
12.0199997983873 569
12.0399997979403 512
12.0599997974932 539
12.0799997970462 553
12.0999997965992 533
12.1199997961521 532
12.1399997957051 571
12.159999795258 544
12.179999794811 511
12.199999794364 517
12.2199997939169 542
12.2399997934699 501
12.2599997930229 510
12.2799997925758 562
12.2999997921288 539
12.3199997916818 547
12.3399997912347 532
12.3599997907877 562
12.3799997903407 570
12.3999997898936 575
12.4199997894466 543
12.4399997889996 528
12.4599997885525 537
12.4799997881055 540
12.4999997876585 546
12.5199997872114 568
12.5399997867644 541
12.5599997863173 542
12.5799997858703 533
12.5999997854233 522
12.6199997849762 497
12.6399997845292 545
12.6599997840822 567
12.6799997836351 522
12.6999997831881 541
12.7199997827411 551
12.739999782294 542
12.759999781847 584
12.7799997814 523
12.7999997809529 568
12.8199997805059 539
12.8399997800589 505
12.8599997796118 544
12.8799997791648 575
12.8999997787178 553
12.9199997782707 562
12.9399997778237 570
12.9599997773767 521
12.9799997769296 561
12.9999997764826 560
13.0199997760355 560
13.0399997755885 619
13.0599997751415 568
13.0799997746944 527
13.0999997742474 560
13.1199997738004 590
13.1399997733533 559
13.1599997729063 579
13.1799997724593 569
13.1999997720122 568
13.2199997715652 575
13.2399997711182 594
13.2599997706711 585
13.2799997702241 608
13.2999997697771 614
13.31999976933 636
13.339999768883 608
13.359999768436 545
13.3799997679889 609
13.3999997675419 576
13.4199997670949 598
13.4399997666478 639
13.4599997662008 602
13.4799997657537 583
13.4999997653067 563
13.5199997648597 582
13.5399997644126 611
13.5599997639656 566
13.5799997635186 568
13.5999997630715 612
13.6199997626245 577
13.6399997621775 646
13.6599997617304 591
13.6799997612834 607
13.6999997608364 533
13.7199997603893 573
13.7399997599423 579
13.7599997594953 624
13.7799997590482 583
13.7999997586012 582
13.8199997581542 604
13.8399997577071 579
13.8599997572601 609
13.879999756813 610
13.899999756366 641
13.919999755919 614
13.9399997554719 607
13.9599997550249 603
13.9799997545779 605
13.9999997541308 632
14.0199997536838 592
14.0399997532368 580
14.0599997527897 584
14.0799997523427 598
14.0999997518957 613
14.1199997514486 607
14.1399997510016 614
14.1599997505546 618
14.1799997501075 589
14.1999997496605 585
14.2199997492135 580
14.2399997487664 623
14.2599997483194 617
14.2799997478724 615
14.2999997474253 634
14.3199997469783 599
14.3399997465312 595
14.3599997460842 596
14.3799997456372 598
14.3999997451901 609
14.4199997447431 639
14.4399997442961 603
14.459999743849 627
14.479999743402 593
14.499999742955 611
14.5199997425079 601
14.5399997420609 634
14.5599997416139 680
14.5799997411668 626
14.5999997407198 611
14.6199997402728 635
14.6399997398257 617
14.6599997393787 678
14.6799997389317 649
14.6999997384846 651
14.7199997380376 665
14.7399997375906 638
14.7599997371435 654
14.7799997366965 630
14.7999997362494 663
14.8199997358024 645
14.8399997353554 670
14.8599997349083 651
14.8799997344613 660
14.8999997340143 666
14.9199997335672 642
14.9399997331202 628
14.9599997326732 593
14.9799997322261 629
14.9999997317791 662
15.0199997313321 651
15.039999730885 631
15.059999730438 674
15.079999729991 678
15.0999997295439 681
15.1199997290969 663
15.1399997286499 669
15.1599997282028 675
15.1799997277558 675
15.1999997273088 690
15.2199997268617 672
15.2399997264147 679
15.2599997259676 653
15.2799997255206 675
15.2999997250736 686
15.3199997246265 688
15.3399997241795 723
15.3599997237325 657
15.3799997232854 714
15.3999997228384 683
15.4199997223914 702
15.4399997219443 629
15.4599997214973 665
15.4799997210503 699
15.4999997206032 649
15.5199997201562 667
15.5399997197092 699
15.5599997192621 665
15.5799997188151 697
15.5999997183681 715
15.619999717921 660
15.639999717474 704
15.659999717027 721
15.6799997165799 725
15.6999997161329 716
15.7199997156858 722
15.7399997152388 709
15.7599997147918 717
15.7799997143447 705
15.7999997138977 725
15.8199997134507 773
15.8399997130036 738
15.8599997125566 741
15.8799997121096 700
15.8999997116625 726
15.9199997112155 718
15.9399997107685 727
15.9599997103214 716
15.9799997098744 758
15.9999997094274 744
16.0199997089803 739
16.0399997085333 761
16.0599997080863 706
16.0799997076392 713
16.0999997071922 735
16.1199997067451 751
16.1399997062981 736
16.1599997058511 753
16.179999705404 760
16.199999704957 795
16.21999970451 742
16.2399997040629 742
16.2599997036159 771
16.2799997031689 809
16.2999997027218 766
16.3199997022748 778
16.3399997018278 815
16.3599997013807 758
16.3799997009337 795
16.3999997004867 807
16.4199997000396 805
16.4399996995926 795
16.4599996991456 795
16.4799996986985 808
16.4999996982515 815
16.5199996978045 878
16.5399996973574 814
16.5599996969104 785
16.5799996964633 830
16.5999996960163 828
16.6199996955693 901
16.6399996951222 863
16.6599996946752 963
16.6799996942282 930
16.6999996937811 1015
16.7199996933341 923
16.7399996928871 988
16.75999969244 1009
16.779999691993 1156
16.799999691546 1197
16.8199996910989 1270
16.8399996906519 1347
16.8599996902049 1544
16.8799996897578 1662
16.8999996893108 1921
16.9199996888638 2196
16.9399996884167 2514
16.9599996879697 2831
16.9799996875226 3195
16.9999996870756 3099
17.0199996866286 2978
17.0399996861815 2747
17.0599996857345 2617
17.0799996852875 2161
17.0999996848404 1784
17.1199996843934 1573
17.1399996839464 1409
17.1599996834993 1273
17.1799996830523 1150
17.1999996826053 1070
17.2199996821582 1083
17.2399996817112 1023
17.2599996812642 942
17.2799996808171 934
17.2999996803701 886
17.3199996799231 895
17.339999679476 905
17.359999679029 908
17.379999678582 938
17.3999996781349 909
17.4199996776879 874
17.4399996772408 918
17.4599996767938 946
17.4799996763468 916
17.4999996758997 885
17.5199996754527 948
17.5399996750057 909
17.5599996745586 921
17.5799996741116 936
17.5999996736646 925
17.6199996732175 953
17.6399996727705 924
17.6599996723235 937
17.6799996718764 909
17.6999996714294 898
17.7199996709824 934
17.7399996705353 907
17.7599996700883 977
17.7799996696413 961
17.7999996691942 956
17.8199996687472 974
17.8399996683002 960
17.8599996678531 962
17.8799996674061 958
17.899999666959 921
17.919999666512 952
17.939999666065 972
17.9599996656179 923
17.9799996651709 959
17.9999996647239 985
18.0199996642768 993
18.0399996638298 952
18.0599996633828 949
18.0799996629357 930
18.0999996624887 982
18.1199996620417 989
18.1399996615946 987
18.1599996611476 965
18.1799996607006 972
18.1999996602535 985
18.2199996598065 1005
18.2399996593595 980
18.2599996589124 1010
18.2799996584654 1016
18.2999996580184 990
18.3199996575713 1023
18.3399996571243 1049
18.3599996566772 1074
18.3799996562302 1002
18.3999996557832 971
18.4199996553361 1042
18.4399996548891 1033
18.4599996544421 1013
18.479999653995 1025
18.499999653548 1015
18.519999653101 1057
18.5399996526539 1041
18.5599996522069 1081
18.5799996517599 1061
18.5999996513128 1036
18.6199996508658 1100
18.6399996504188 1077
18.6599996499717 1025
18.6799996495247 1063
18.6999996490777 1056
18.7199996486306 1054
18.7399996481836 1040
18.7599996477366 1062
18.7799996472895 1046
18.7999996468425 1044
18.8199996463954 1116
18.8399996459484 1106
18.8599996455014 1170
18.8799996450543 1102
18.8999996446073 1124
18.9199996441603 1129
18.9399996437132 1106
18.9599996432662 1122
18.9799996428192 1058
18.9999996423721 1108
19.0199996419251 1168
19.0399996414781 1092
19.059999641031 1144
19.079999640584 1162
19.099999640137 1139
19.1199996396899 1108
19.1399996392429 1197
19.1599996387959 1117
19.1799996383488 1099
19.1999996379018 1154
19.2199996374547 1198
19.2399996370077 1171
19.2599996365607 1095
19.2799996361136 1164
19.2999996356666 1147
19.3199996352196 1161
19.3399996347725 1154
19.3599996343255 1157
19.3799996338785 1130
19.3999996334314 1148
19.4199996329844 1143
19.4399996325374 1161
19.4599996320903 1167
19.4799996316433 1148
19.4999996311963 1159
19.5199996307492 1208
19.5399996303022 1194
19.5599996298552 1193
19.5799996294081 1205
19.5999996289611 1200
19.6199996285141 1167
19.639999628067 1203
19.65999962762 1247
19.6799996271729 1210
19.6999996267259 1257
19.7199996262789 1232
19.7399996258318 1256
19.7599996253848 1217
19.7799996249378 1291
19.7999996244907 1230
19.8199996240437 1222
19.8399996235967 1264
19.8599996231496 1242
19.8799996227026 1294
19.8999996222556 1335
19.9199996218085 1252
19.9399996213615 1241
19.9599996209145 1246
19.9799996204674 1273
19.9999996200204 1296
