3 3140
3.01999999955297 3082
3.03999999910593 3093
3.0599999986589 2792
3.07999999821186 2749
3.09999999776483 2583
3.11999999731779 2485
3.13999999687076 2526
3.15999999642372 2462
3.17999999597669 2447
3.19999999552965 2451
3.21999999508262 2427
3.23999999463558 2339
3.25999999418855 2321
3.27999999374151 2213
3.29999999329448 2231
3.31999999284744 2129
3.33999999240041 2111
3.35999999195337 2177
3.37999999150634 2064
3.3999999910593 2105
3.41999999061227 2044
3.43999999016523 2109
3.4599999897182 2070
3.47999998927116 2047
3.49999998882413 1925
3.51999998837709 2024
3.53999998793006 1917
3.55999998748302 1866
3.57999998703599 1921
3.59999998658895 1909
3.61999998614192 1823
3.63999998569489 1859
3.65999998524785 1768
3.67999998480082 1781
3.69999998435378 1732
3.71999998390675 1777
3.73999998345971 1762
3.75999998301268 1732
3.77999998256564 1697
3.79999998211861 1677
3.81999998167157 1706
3.83999998122454 1662
3.8599999807775 1659
3.87999998033047 1631
3.89999997988343 1600
3.9199999794364 1617
3.93999997898936 1603
3.95999997854233 1591
3.97999997809529 1656
3.99999997764826 1604
4.01999997720122 1540
4.03999997675419 1557
4.05999997630715 1496
4.07999997586012 1559
4.09999997541308 1473
4.11999997496605 1481
4.13999997451901 1489
4.15999997407198 1430
4.17999997362494 1450
4.19999997317791 1460
4.21999997273087 1340
4.23999997228384 1343
4.25999997183681 1358
4.27999997138977 1378
4.29999997094274 1262
4.3199999704957 1295
4.33999997004867 1269
4.35999996960163 1269
4.3799999691546 1232
4.39999996870756 1246
4.41999996826053 1190
4.43999996781349 1236
4.45999996736646 1196
4.47999996691942 1188
4.49999996647239 1123
4.51999996602535 1176
4.53999996557832 1194
4.55999996513128 1103
4.57999996468425 1162
4.59999996423721 1131
4.61999996379018 1148
4.63999996334314 1120
4.65999996289611 1076
4.67999996244907 1148
4.69999996200204 1113
4.719999961555 1063
4.73999996110797 1117
4.75999996066093 1082
4.7799999602139 1086
4.79999995976686 1111
4.81999995931983 1111
4.83999995887279 1072
4.85999995842576 1039
4.87999995797873 1052
4.89999995753169 1067
4.91999995708466 997
4.93999995663762 1110
4.95999995619059 1001
4.97999995574355 1105
4.99999995529652 959
5.01999995484948 1017
5.03999995440245 1060
5.05999995395541 1085
5.07999995350838 1061
5.09999995306134 1052
5.11999995261431 1067
5.13999995216727 1101
5.15999995172024 1122
5.1799999512732 1105
5.19999995082617 1172
5.21999995037913 1169
5.2399999499321 1178
5.25999994948506 1204
5.27999994903803 1233
5.29999994859099 1238
5.31999994814396 1339
5.33999994769692 1377
5.35999994724989 1443
5.37999994680285 1497
5.39999994635582 1454
5.41999994590878 1518
5.43999994546175 1438
5.45999994501471 1374
5.47999994456768 1403
5.49999994412065 1253
5.51999994367361 1323
5.53999994322658 1368
5.55999994277954 1358
5.57999994233251 1382
5.59999994188547 1353
5.61999994143844 1363
5.6399999409914 1453
5.65999994054437 1525
5.67999994009733 1560
5.6999999396503 1580
5.71999993920326 1640
5.73999993875623 1676
5.75999993830919 1633
5.77999993786216 1526
5.79999993741512 1417
5.81999993696809 1354
5.83999993652105 1178
5.85999993607402 1093
5.87999993562698 946
5.89999993517995 908
5.91999993473291 866
5.93999993428588 865
5.95999993383884 863
5.97999993339181 814
5.99999993294477 832
6.01999993249774 854
6.0399999320507 701
6.05999993160367 780
6.07999993115663 740
6.0999999307096 711
6.11999993026257 794
6.13999992981553 764
6.1599999293685 718
6.17999992892146 705
6.19999992847443 735
6.21999992802739 714
6.23999992758036 717
6.25999992713332 723
6.27999992668629 722
6.29999992623925 745
6.31999992579222 646
6.33999992534518 699
6.35999992489815 704
6.37999992445111 722
6.39999992400408 660
6.41999992355704 704
6.43999992311001 707
6.45999992266297 677
6.47999992221594 689
6.4999999217689 687
6.51999992132187 675
6.53999992087483 709
6.5599999204278 697
6.57999991998076 730
6.59999991953373 696
6.61999991908669 686
6.63999991863966 685
6.65999991819262 701
6.67999991774559 711
6.69999991729855 678
6.71999991685152 733
6.73999991640449 734
6.75999991595745 709
6.77999991551042 726
6.79999991506338 690
6.81999991461635 631
6.83999991416931 646
6.85999991372228 644
6.87999991327524 647
6.89999991282821 660
6.91999991238117 602
6.93999991193414 636
6.9599999114871 615
6.97999991104007 611
6.99999991059303 626
7.019999910146 619
7.03999990969896 616
7.05999990925193 654
7.07999990880489 597
7.09999990835786 590
7.11999990791082 576
7.13999990746379 631
7.15999990701675 610
7.17999990656972 612
7.19999990612268 625
7.21999990567565 618
7.23999990522861 635
7.25999990478158 604
7.27999990433454 611
7.29999990388751 587
7.31999990344047 590
7.33999990299344 593
7.35999990254641 594
7.37999990209937 558
7.39999990165234 578
7.4199999012053 580
7.43999990075827 570
7.45999990031123 574
7.4799998998642 556
7.49999989941716 620
7.51999989897013 568
7.53999989852309 547
7.55999989807606 530
7.57999989762902 540
7.59999989718199 559
7.61999989673495 573
7.63999989628792 564
7.65999989584088 596
7.67999989539385 582
7.69999989494681 605
7.71999989449978 545
7.73999989405274 553
7.75999989360571 565
7.77999989315867 564
7.79999989271164 553
7.8199998922646 585
7.83999989181757 591
7.85999989137053 609
7.8799998909235 540
7.89999989047646 532
7.91999989002943 601
7.9399998895824 552
7.95999988913536 527
7.97999988868833 539
7.99999988824129 549
8.01999988779426 559
8.03999988734722 579
8.05999988690019 552
8.07999988645315 557
8.09999988600612 559
8.11999988555908 564
8.13999988511205 522
8.15999988466501 550
8.17999988421798 527
8.19999988377094 562
8.21999988332391 564
8.23999988287687 519
8.25999988242984 527
8.2799998819828 549
8.29999988153577 533
8.31999988108873 557
8.3399998806417 523
8.35999988019466 582
8.37999987974763 520
8.39999987930059 539
8.41999987885356 529
8.43999987840652 549
8.45999987795949 535
8.47999987751245 563
8.49999987706542 520
8.51999987661839 509
8.53999987617135 500
8.55999987572432 538
8.57999987527728 514
8.59999987483025 526
8.61999987438321 509
8.63999987393618 505
8.65999987348914 529
8.67999987304211 527
8.69999987259507 498
8.71999987214804 534
8.739999871701 498
8.75999987125397 529
8.77999987080693 523
8.7999998703599 543
8.81999986991286 520
8.83999986946583 525
8.85999986901879 539
8.87999986857176 536
8.89999986812472 515
8.91999986767769 520
8.93999986723065 533
8.95999986678362 550
8.97999986633658 538
8.99999986588955 558
9.01999986544251 548
9.03999986499548 550
9.05999986454844 621
9.07999986410141 604
9.09999986365438 563
9.11999986320734 610
9.13999986276031 547
9.15999986231327 588
9.17999986186624 565
9.1999998614192 622
9.21999986097217 669
9.23999986052513 692
9.2599998600781 734
9.27999985963106 853
9.29999985918403 845
9.31999985873699 809
9.33999985828996 768
9.35999985784292 672
9.37999985739589 657
9.39999985694885 645
9.41999985650182 581
9.43999985605478 563
9.45999985560775 516
9.47999985516071 528
9.49999985471368 559
9.51999985426664 546
9.53999985381961 468
9.55999985337257 540
9.57999985292554 502
9.5999998524785 507
9.61999985203147 479
9.63999985158443 474
9.6599998511374 493
9.67999985069037 462
9.69999985024333 515
9.7199998497963 503
9.73999984934926 534
9.75999984890223 495
9.77999984845519 463
9.79999984800816 485
9.81999984756112 475
9.83999984711409 482
9.85999984666705 539
9.87999984622002 521
9.89999984577298 460
9.91999984532595 480
9.93999984487891 520
9.95999984443188 486
9.97999984398484 514
9.99999984353781 534
10.0199998430908 489
10.0399998426437 523
10.0599998421967 523
10.0799998417497 539
10.0999998413026 534
10.1199998408556 560
10.1399998404086 550
10.1599998399615 575
10.1799998395145 510
10.1999998390675 541
10.2199998386204 494
10.2399998381734 536
10.2599998377264 516
10.2799998372793 489
10.2999998368323 500
10.3199998363853 483
10.3399998359382 513
10.3599998354912 475
10.3799998350441 481
10.3999998345971 504
10.4199998341501 499
10.439999833703 493
10.459999833256 488
10.479999832809 497
10.4999998323619 478
10.5199998319149 511
10.5399998314679 536
10.5599998310208 445
10.5799998305738 453
10.5999998301268 507
10.6199998296797 535
10.6399998292327 518
10.6599998287857 519
10.6799998283386 553
10.6999998278916 551
10.7199998274446 551
10.7399998269975 592
10.7599998265505 581
10.7799998261034 602
10.7999998256564 527
10.8199998252094 574
10.8399998247623 548
10.8599998243153 574
10.8799998238683 580
10.8999998234212 620
10.9199998229742 624
10.9399998225272 609
10.9599998220801 572
10.9799998216331 556
10.9999998211861 541
11.019999820739 514
11.039999820292 454
11.059999819845 480
11.0799998193979 475
11.0999998189509 497
11.1199998185039 477
11.1399998180568 497
11.1599998176098 481
11.1799998171628 470
11.1999998167157 460
11.2199998162687 450
11.2399998158216 455
11.2599998153746 446
11.2799998149276 475
11.2999998144805 452
11.3199998140335 489
11.3399998135865 504
11.3599998131394 475
11.3799998126924 495
11.3999998122454 499
11.4199998117983 480
11.4399998113513 464
11.4599998109043 482
11.4799998104572 530
11.4999998100102 482
11.5199998095632 492
11.5399998091161 481
11.5599998086691 505
11.5799998082221 493
11.599999807775 493
11.619999807328 434
11.639999806881 479
11.6599998064339 485
11.6799998059869 487
11.6999998055398 444
11.7199998050928 465
11.7399998046458 457
11.7599998041987 463
11.7799998037517 447
11.7999998033047 468
11.8199998028576 441
11.8399998024106 460
11.8599998019636 474
11.8799998015165 496
11.8999998010695 458
11.9199998006225 432
11.9399998001754 449
11.9599997997284 464
11.9799997992814 432
11.9999997988343 459
12.0199997983873 504
12.0399997979403 488
12.0599997974932 474
12.0799997970462 474
12.0999997965992 453
12.1199997961521 491
12.1399997957051 524
12.159999795258 496
12.179999794811 476
12.199999794364 448
12.2199997939169 479
12.2399997934699 497
12.2599997930229 484
12.2799997925758 491
12.2999997921288 470
12.3199997916818 448
12.3399997912347 476
12.3599997907877 449
12.3799997903407 462
12.3999997898936 489
12.4199997894466 449
12.4399997889996 452
12.4599997885525 421
12.4799997881055 470
12.4999997876585 433
12.5199997872114 454
12.5399997867644 463
12.5599997863173 434
12.5799997858703 452
12.5999997854233 419
12.6199997849762 454
12.6399997845292 441
12.6599997840822 429
12.6799997836351 433
12.6999997831881 489
12.7199997827411 433
12.739999782294 479
12.759999781847 410
12.7799997814 456
12.7999997809529 452
12.8199997805059 469
12.8399997800589 409
12.8599997796118 447
12.8799997791648 433
12.8999997787178 466
12.9199997782707 453
12.9399997778237 477
12.9599997773767 449
12.9799997769296 479
12.9999997764826 456
13.0199997760355 419
13.0399997755885 452
13.0599997751415 419
13.0799997746944 429
13.0999997742474 475
13.1199997738004 483
13.1399997733533 481
13.1599997729063 458
13.1799997724593 505
13.1999997720122 493
13.2199997715652 486
13.2399997711182 522
13.2599997706711 496
13.2799997702241 476
13.2999997697771 488
13.31999976933 481
13.339999768883 487
13.359999768436 462
13.3799997679889 468
13.3999997675419 454
13.4199997670949 477
13.4399997666478 473
13.4599997662008 493
13.4799997657537 505
13.4999997653067 479
13.5199997648597 465
13.5399997644126 492
13.5599997639656 481
13.5799997635186 428
13.5999997630715 428
13.6199997626245 503
13.6399997621775 469
13.6599997617304 453
13.6799997612834 434
13.6999997608364 477
13.7199997603893 441
13.7399997599423 462
13.7599997594953 465
13.7799997590482 464
13.7999997586012 486
13.8199997581542 490
13.8399997577071 471
13.8599997572601 457
13.879999756813 502
13.899999756366 479
13.919999755919 467
13.9399997554719 445
13.9599997550249 502
13.9799997545779 496
13.9999997541308 516
14.0199997536838 469
14.0399997532368 472
14.0599997527897 442
14.0799997523427 489
14.0999997518957 483
14.1199997514486 500
14.1399997510016 462
14.1599997505546 470
14.1799997501075 477
14.1999997496605 483
14.2199997492135 474
14.2399997487664 485
14.2599997483194 460
14.2799997478724 474
14.2999997474253 449
14.3199997469783 484
14.3399997465312 506
14.3599997460842 434
14.3799997456372 533
14.3999997451901 487
14.4199997447431 498
14.4399997442961 467
14.459999743849 449
14.479999743402 459
14.499999742955 441
14.5199997425079 455
14.5399997420609 492
14.5599997416139 486
14.5799997411668 483
14.5999997407198 522
14.6199997402728 527
14.6399997398257 484
14.6599997393787 498
14.6799997389317 487
14.6999997384846 436
14.7199997380376 517
14.7399997375906 518
14.7599997371435 521
14.7799997366965 489
14.7999997362494 486
14.8199997358024 481
14.8399997353554 524
14.8599997349083 519
14.8799997344613 549
14.8999997340143 551
14.9199997335672 485
14.9399997331202 493
14.9599997326732 544
14.9799997322261 520
14.9999997317791 457
15.0199997313321 486
15.039999730885 482
15.059999730438 524
15.079999729991 518
15.0999997295439 469
15.1199997290969 509
15.1399997286499 513
15.1599997282028 486
15.1799997277558 493
15.1999997273088 475
15.2199997268617 536
15.2399997264147 505
15.2599997259676 505
15.2799997255206 508
15.2999997250736 536
15.3199997246265 509
15.3399997241795 490
15.3599997237325 526
15.3799997232854 521
15.3999997228384 499
15.4199997223914 525
15.4399997219443 515
15.4599997214973 519
15.4799997210503 504
15.4999997206032 496
15.5199997201562 566
15.5399997197092 527
15.5599997192621 530
15.5799997188151 521
15.5999997183681 563
15.619999717921 537
15.639999717474 547
15.659999717027 536
15.6799997165799 552
15.6999997161329 530
15.7199997156858 557
15.7399997152388 557
15.7599997147918 524
15.7799997143447 543
15.7999997138977 515
15.8199997134507 510
15.8399997130036 568
15.8599997125566 552
15.8799997121096 578
15.8999997116625 557
15.9199997112155 524
15.9399997107685 573
15.9599997103214 574
15.9799997098744 559
15.9999997094274 558
16.0199997089803 517
16.0399997085333 532
16.0599997080863 529
16.0799997076392 558
16.0999997071922 523
16.1199997067451 570
16.1399997062981 560
16.1599997058511 573
16.179999705404 599
16.199999704957 569
16.21999970451 540
16.2399997040629 558
16.2599997036159 580
16.2799997031689 566
16.2999997027218 580
16.3199997022748 574
16.3399997018278 564
16.3599997013807 571
16.3799997009337 564
16.3999997004867 567
16.4199997000396 544
16.4399996995926 575
16.4599996991456 588
16.4799996986985 568
16.4999996982515 601
16.5199996978045 567
16.5399996973574 640
16.5599996969104 550
16.5799996964633 583
16.5999996960163 569
16.6199996955693 589
16.6399996951222 594
16.6599996946752 625
16.6799996942282 641
16.6999996937811 622
16.7199996933341 617
16.7399996928871 657
16.75999969244 665
16.779999691993 638
16.799999691546 727
16.8199996910989 702
16.8399996906519 757
16.8599996902049 791
16.8799996897578 903
16.8999996893108 969
16.9199996888638 1068
16.9399996884167 1267
16.9599996879697 1435
16.9799996875226 1344
16.9999996870756 1149
17.0199996866286 1098
17.0399996861815 846
17.0599996857345 784
17.0799996852875 701
17.0999996848404 723
17.1199996843934 666
17.1399996839464 671
17.1599996834993 630
17.1799996830523 632
17.1999996826053 607
17.2199996821582 695
17.2399996817112 597
17.2599996812642 627
17.2799996808171 604
17.2999996803701 614
17.3199996799231 583
17.339999679476 612
17.359999679029 650
17.379999678582 640
17.3999996781349 623
17.4199996776879 675
17.4399996772408 610
17.4599996767938 626
17.4799996763468 650
17.4999996758997 624
17.5199996754527 649
17.5399996750057 597
17.5599996745586 667
17.5799996741116 654
17.5999996736646 684
17.6199996732175 634
17.6399996727705 641
17.6599996723235 647
17.6799996718764 653
17.6999996714294 682
17.7199996709824 680
17.7399996705353 652
17.7599996700883 598
17.7799996696413 632
17.7999996691942 655
17.8199996687472 661
17.8399996683002 637
17.8599996678531 701
17.8799996674061 640
17.899999666959 672
17.919999666512 701
17.939999666065 649
17.9599996656179 672
17.9799996651709 677
17.9999996647239 667
18.0199996642768 694
18.0399996638298 679
18.0599996633828 671
18.0799996629357 699
18.0999996624887 682
18.1199996620417 697
18.1399996615946 670
18.1599996611476 698
18.1799996607006 694
18.1999996602535 689
18.2199996598065 685
18.2399996593595 677
18.2599996589124 681
18.2799996584654 690
18.2999996580184 685
18.3199996575713 677
18.3399996571243 704
18.3599996566772 738
18.3799996562302 682
18.3999996557832 670
18.4199996553361 710
18.4399996548891 731
18.4599996544421 737
18.479999653995 713
18.499999653548 732
18.519999653101 723
18.5399996526539 651
18.5599996522069 739
18.5799996517599 769
18.5999996513128 762
18.6199996508658 725
18.6399996504188 750
18.6599996499717 753
18.6799996495247 753
18.6999996490777 759
18.7199996486306 744
18.7399996481836 716
18.7599996477366 751
18.7799996472895 763
18.7999996468425 783
18.8199996463954 815
18.8399996459484 749
18.8599996455014 724
18.8799996450543 808
18.8999996446073 766
18.9199996441603 768
18.9399996437132 815
18.9599996432662 787
18.9799996428192 812
18.9999996423721 824
19.0199996419251 809
19.0399996414781 833
19.059999641031 828
19.079999640584 853
19.099999640137 850
19.1199996396899 764
19.1399996392429 813
19.1599996387959 769
19.1799996383488 811
19.1999996379018 815
19.2199996374547 821
19.2399996370077 776
19.2599996365607 811
19.2799996361136 818
19.2999996356666 833
19.3199996352196 859
19.3399996347725 806
19.3599996343255 859
19.3799996338785 849
19.3999996334314 898
19.4199996329844 834
19.4399996325374 876
19.4599996320903 908
19.4799996316433 892
19.4999996311963 931
19.5199996307492 899
19.5399996303022 865
19.5599996298552 900
19.5799996294081 839
19.5999996289611 796
19.6199996285141 817
19.639999628067 809
19.65999962762 814
19.6799996271729 840
19.6999996267259 782
19.7199996262789 844
19.7399996258318 826
19.7599996253848 861
19.7799996249378 863
19.7999996244907 885
19.8199996240437 887
19.8399996235967 863
19.8599996231496 845
19.8799996227026 832
19.8999996222556 848
19.9199996218085 877
19.9399996213615 831
19.9599996209145 840
19.9799996204674 851
19.9999996200204 826
