3 2828
3.01999999955297 2631
3.03999999910593 2566
3.0599999986589 2389
3.07999999821186 2255
3.09999999776483 2348
3.11999999731779 2169
3.13999999687076 2219
3.15999999642372 2174
3.17999999597669 2094
3.19999999552965 2102
3.21999999508262 1949
3.23999999463558 2040
3.25999999418855 2057
3.27999999374151 1989
3.29999999329448 1917
3.31999999284744 1940
3.33999999240041 1808
3.35999999195337 1793
3.37999999150634 1884
3.3999999910593 1794
3.41999999061227 1862
3.43999999016523 1775
3.4599999897182 1796
3.47999998927116 1731
3.49999998882413 1720
3.51999998837709 1717
3.53999998793006 1659
3.55999998748302 1601
3.57999998703599 1659
3.59999998658895 1563
3.61999998614192 1619
3.63999998569489 1599
3.65999998524785 1570
3.67999998480082 1544
3.69999998435378 1546
3.71999998390675 1500
3.73999998345971 1439
3.75999998301268 1477
3.77999998256564 1443
3.79999998211861 1373
3.81999998167157 1354
3.83999998122454 1436
3.8599999807775 1431
3.87999998033047 1385
3.89999997988343 1347
3.9199999794364 1336
3.93999997898936 1249
3.95999997854233 1376
3.97999997809529 1300
3.99999997764826 1281
4.01999997720122 1267
4.03999997675419 1249
4.05999997630715 1346
4.07999997586012 1299
4.09999997541308 1269
4.11999997496605 1192
4.13999997451901 1201
4.15999997407198 1183
4.17999997362494 1204
4.19999997317791 1141
4.21999997273087 1187
4.23999997228384 1198
4.25999997183681 1145
4.27999997138977 1127
4.29999997094274 1125
4.3199999704957 1149
4.33999997004867 1099
4.35999996960163 1058
4.3799999691546 1127
4.39999996870756 1091
4.41999996826053 1107
4.43999996781349 1060
4.45999996736646 1057
4.47999996691942 1046
4.49999996647239 1026
4.51999996602535 1004
4.53999996557832 1054
4.55999996513128 972
4.57999996468425 1015
4.59999996423721 982
4.61999996379018 973
4.63999996334314 993
4.65999996289611 977
4.67999996244907 963
4.69999996200204 963
4.719999961555 914
4.73999996110797 966
4.75999996066093 923
4.7799999602139 895
4.79999995976686 960
4.81999995931983 907
4.83999995887279 950
4.85999995842576 949
4.87999995797873 928
4.89999995753169 964
4.91999995708466 869
4.93999995663762 923
4.95999995619059 844
4.97999995574355 892
4.99999995529652 871
5.01999995484948 857
5.03999995440245 845
5.05999995395541 863
5.07999995350838 845
5.09999995306134 851
5.11999995261431 866
5.13999995216727 867
5.15999995172024 811
5.1799999512732 814
5.19999995082617 834
5.21999995037913 823
5.2399999499321 778
5.25999994948506 823
5.27999994903803 750
5.29999994859099 808
5.31999994814396 809
5.33999994769692 821
5.35999994724989 775
5.37999994680285 807
5.39999994635582 789
5.41999994590878 790
5.43999994546175 781
5.45999994501471 805
5.47999994456768 791
5.49999994412065 839
5.51999994367361 808
5.53999994322658 793
5.55999994277954 753
5.57999994233251 790
5.59999994188547 791
5.61999994143844 715
5.6399999409914 811
5.65999994054437 734
5.67999994009733 776
5.6999999396503 761
5.71999993920326 762
5.73999993875623 773
5.75999993830919 757
5.77999993786216 779
5.79999993741512 717
5.81999993696809 709
5.83999993652105 694
5.85999993607402 699
5.87999993562698 771
5.89999993517995 749
5.91999993473291 713
5.93999993428588 778
5.95999993383884 774
5.97999993339181 696
5.99999993294477 721
6.01999993249774 722
6.0399999320507 767
6.05999993160367 748
6.07999993115663 736
6.0999999307096 708
6.11999993026257 698
6.13999992981553 738
6.1599999293685 703
6.17999992892146 692
6.19999992847443 704
6.21999992802739 707
6.23999992758036 742
6.25999992713332 703
6.27999992668629 698
6.29999992623925 706
6.31999992579222 646
6.33999992534518 656
6.35999992489815 703
6.37999992445111 692
6.39999992400408 688
6.41999992355704 673
6.43999992311001 704
6.45999992266297 661
6.47999992221594 665
6.4999999217689 694
6.51999992132187 686
6.53999992087483 670
6.5599999204278 671
6.57999991998076 730
6.59999991953373 648
6.61999991908669 652
6.63999991863966 666
6.65999991819262 665
6.67999991774559 676
6.69999991729855 663
6.71999991685152 621
6.73999991640449 676
6.75999991595745 670
6.77999991551042 636
6.79999991506338 687
6.81999991461635 665
6.83999991416931 666
6.85999991372228 695
6.87999991327524 682
6.89999991282821 665
6.91999991238117 621
6.93999991193414 615
6.9599999114871 632
6.97999991104007 700
6.99999991059303 673
7.019999910146 698
7.03999990969896 621
7.05999990925193 642
7.07999990880489 664
7.09999990835786 667
7.11999990791082 668
7.13999990746379 627
7.15999990701675 644
7.17999990656972 654
7.19999990612268 654
7.21999990567565 657
7.23999990522861 634
7.25999990478158 669
7.27999990433454 621
7.29999990388751 629
7.31999990344047 633
7.33999990299344 653
7.35999990254641 633
7.37999990209937 601
7.39999990165234 637
7.4199999012053 669
7.43999990075827 642
7.45999990031123 665
7.4799998998642 634
7.49999989941716 651
7.51999989897013 654
7.53999989852309 618
7.55999989807606 666
7.57999989762902 655
7.59999989718199 619
7.61999989673495 616
7.63999989628792 580
7.65999989584088 676
7.67999989539385 667
7.69999989494681 626
7.71999989449978 638
7.73999989405274 627
7.75999989360571 579
7.77999989315867 614
7.79999989271164 586
7.8199998922646 631
7.83999989181757 625
7.85999989137053 638
7.8799998909235 619
7.89999989047646 615
7.91999989002943 613
7.9399998895824 649
7.95999988913536 614
7.97999988868833 597
7.99999988824129 614
8.01999988779426 600
8.03999988734722 613
8.05999988690019 592
8.07999988645315 620
8.09999988600612 616
8.11999988555908 566
8.13999988511205 598
8.15999988466501 592
8.17999988421798 612
8.19999988377094 617
8.21999988332391 624
8.23999988287687 593
8.25999988242984 633
8.2799998819828 584
8.29999988153577 575
8.31999988108873 576
8.3399998806417 637
8.35999988019466 624
8.37999987974763 610
8.39999987930059 624
8.41999987885356 601
8.43999987840652 544
8.45999987795949 614
8.47999987751245 655
8.49999987706542 584
8.51999987661839 601
8.53999987617135 599
8.55999987572432 631
8.57999987527728 572
8.59999987483025 565
8.61999987438321 578
8.63999987393618 632
8.65999987348914 588
8.67999987304211 591
8.69999987259507 600
8.71999987214804 595
8.739999871701 620
8.75999987125397 581
8.77999987080693 567
8.7999998703599 543
8.81999986991286 536
8.83999986946583 585
8.85999986901879 597
8.87999986857176 602
8.89999986812472 602
8.91999986767769 584
8.93999986723065 565
8.95999986678362 598
8.97999986633658 616
8.99999986588955 599
9.01999986544251 605
9.03999986499548 562
9.05999986454844 606
9.07999986410141 543
9.09999986365438 575
9.11999986320734 590
9.13999986276031 610
9.15999986231327 552
9.17999986186624 551
9.1999998614192 569
9.21999986097217 576
9.23999986052513 585
9.2599998600781 587
9.27999985963106 580
9.29999985918403 566
9.31999985873699 601
9.33999985828996 587
9.35999985784292 577
9.37999985739589 574
9.39999985694885 596
9.41999985650182 569
9.43999985605478 590
9.45999985560775 597
9.47999985516071 563
9.49999985471368 547
9.51999985426664 607
9.53999985381961 605
9.55999985337257 583
9.57999985292554 581
9.5999998524785 511
9.61999985203147 558
9.63999985158443 560
9.6599998511374 585
9.67999985069037 574
9.69999985024333 570
9.7199998497963 575
9.73999984934926 574
9.75999984890223 542
9.77999984845519 532
9.79999984800816 531
9.81999984756112 545
9.83999984711409 571
9.85999984666705 597
9.87999984622002 558
9.89999984577298 512
9.91999984532595 540
9.93999984487891 595
9.95999984443188 549
9.97999984398484 573
9.99999984353781 533
10.0199998430908 591
10.0399998426437 548
10.0599998421967 557
10.0799998417497 600
10.0999998413026 541
10.1199998408556 592
10.1399998404086 548
10.1599998399615 559
10.1799998395145 591
10.1999998390675 575
10.2199998386204 532
10.2399998381734 577
10.2599998377264 571
10.2799998372793 533
10.2999998368323 565
10.3199998363853 590
10.3399998359382 549
10.3599998354912 557
10.3799998350441 529
10.3999998345971 562
10.4199998341501 534
10.439999833703 547
10.459999833256 550
10.479999832809 567
10.4999998323619 562
10.5199998319149 588
10.5399998314679 560
10.5599998310208 564
10.5799998305738 553
10.5999998301268 558
10.6199998296797 511
10.6399998292327 523
10.6599998287857 532
10.6799998283386 557
10.6999998278916 548
10.7199998274446 576
10.7399998269975 539
10.7599998265505 558
10.7799998261034 511
10.7999998256564 530
10.8199998252094 544
10.8399998247623 565
10.8599998243153 524
10.8799998238683 539
10.8999998234212 557
10.9199998229742 552
10.9399998225272 573
10.9599998220801 556
10.9799998216331 547
10.9999998211861 527
11.019999820739 589
11.039999820292 535
11.059999819845 575
11.0799998193979 533
11.0999998189509 581
11.1199998185039 563
11.1399998180568 530
11.1599998176098 548
11.1799998171628 538
11.1999998167157 578
11.2199998162687 538
11.2399998158216 549
11.2599998153746 570
11.2799998149276 573
11.2999998144805 574
11.3199998140335 557
11.3399998135865 539
11.3599998131394 556
11.3799998126924 544
11.3999998122454 558
11.4199998117983 574
11.4399998113513 549
11.4599998109043 572
11.4799998104572 545
11.4999998100102 580
11.5199998095632 535
11.5399998091161 538
11.5599998086691 538
11.5799998082221 574
11.599999807775 550
11.619999807328 543
11.639999806881 587
11.6599998064339 561
11.6799998059869 577
11.6999998055398 555
11.7199998050928 600
11.7399998046458 565
11.7599998041987 613
11.7799998037517 543
11.7999998033047 552
11.8199998028576 579
11.8399998024106 553
11.8599998019636 580
11.8799998015165 609
11.8999998010695 540
11.9199998006225 543
11.9399998001754 532
11.9599997997284 540
11.9799997992814 559
11.9999997988343 597
12.0199997983873 544
12.0399997979403 591
12.0599997974932 607
12.0799997970462 547
12.0999997965992 572
12.1199997961521 590
12.1399997957051 570
12.159999795258 564
12.179999794811 616
12.199999794364 569
12.2199997939169 582
12.2399997934699 587
12.2599997930229 586
12.2799997925758 617
12.2999997921288 514
12.3199997916818 565
12.3399997912347 588
12.3599997907877 582
12.3799997903407 570
12.3999997898936 582
12.4199997894466 555
12.4399997889996 579
12.4599997885525 584
12.4799997881055 519
12.4999997876585 583
12.5199997872114 593
12.5399997867644 582
12.5599997863173 564
12.5799997858703 579
12.5999997854233 551
12.6199997849762 586
12.6399997845292 615
12.6599997840822 581
12.6799997836351 572
12.6999997831881 578
12.7199997827411 586
12.739999782294 602
12.759999781847 616
12.7799997814 579
12.7999997809529 545
12.8199997805059 584
12.8399997800589 616
12.8599997796118 571
12.8799997791648 607
12.8999997787178 574
12.9199997782707 594
12.9399997778237 614
12.9599997773767 609
12.9799997769296 599
12.9999997764826 603
13.0199997760355 619
13.0399997755885 627
13.0599997751415 627
13.0799997746944 593
13.0999997742474 595
13.1199997738004 613
13.1399997733533 590
13.1599997729063 635
13.1799997724593 631
13.1999997720122 635
13.2199997715652 633
13.2399997711182 599
13.2599997706711 606
13.2799997702241 644
13.2999997697771 636
13.31999976933 612
13.339999768883 617
13.359999768436 572
13.3799997679889 626
13.3999997675419 649
13.4199997670949 628
13.4399997666478 628
13.4599997662008 590
13.4799997657537 637
13.4999997653067 658
13.5199997648597 589
13.5399997644126 610
13.5599997639656 598
13.5799997635186 604
13.5999997630715 596
13.6199997626245 605
13.6399997621775 616
13.6599997617304 652
13.6799997612834 609
13.6999997608364 646
13.7199997603893 585
13.7399997599423 638
13.7599997594953 641
13.7799997590482 635
13.7999997586012 602
13.8199997581542 619
13.8399997577071 662
13.8599997572601 642
13.879999756813 594
13.899999756366 623
13.919999755919 651
13.9399997554719 606
13.9599997550249 627
13.9799997545779 628
13.9999997541308 653
14.0199997536838 658
14.0399997532368 654
14.0599997527897 674
14.0799997523427 623
14.0999997518957 642
14.1199997514486 623
14.1399997510016 617
14.1599997505546 660
14.1799997501075 659
14.1999997496605 634
14.2199997492135 639
14.2399997487664 629
14.2599997483194 671
14.2799997478724 686
14.2999997474253 660
14.3199997469783 634
14.3399997465312 690
14.3599997460842 679
14.3799997456372 709
14.3999997451901 621
14.4199997447431 660
14.4399997442961 642
14.459999743849 664
14.479999743402 657
14.499999742955 693
14.5199997425079 652
14.5399997420609 649
14.5599997416139 641
14.5799997411668 691
14.5999997407198 685
14.6199997402728 648
14.6399997398257 677
14.6599997393787 729
14.6799997389317 716
14.6999997384846 704
14.7199997380376 693
14.7399997375906 748
14.7599997371435 712
14.7799997366965 742
14.7999997362494 692
14.8199997358024 675
14.8399997353554 715
14.8599997349083 698
14.8799997344613 699
14.8999997340143 663
14.9199997335672 675
14.9399997331202 740
14.9599997326732 745
14.9799997322261 743
14.9999997317791 716
15.0199997313321 677
15.039999730885 717
15.059999730438 691
15.079999729991 704
15.0999997295439 688
15.1199997290969 718
15.1399997286499 713
15.1599997282028 696
15.1799997277558 740
15.1999997273088 699
15.2199997268617 757
15.2399997264147 752
15.2599997259676 763
15.2799997255206 749
15.2999997250736 740
15.3199997246265 757
15.3399997241795 754
15.3599997237325 729
15.3799997232854 716
15.3999997228384 745
15.4199997223914 740
15.4399997219443 791
15.4599997214973 743
15.4799997210503 771
15.4999997206032 702
15.5199997201562 756
15.5399997197092 789
15.5599997192621 710
15.5799997188151 791
15.5999997183681 716
15.619999717921 727
15.639999717474 763
15.659999717027 752
15.6799997165799 784
15.6999997161329 754
15.7199997156858 742
15.7399997152388 786
15.7599997147918 808
15.7799997143447 759
15.7999997138977 754
15.8199997134507 782
15.8399997130036 758
15.8599997125566 781
15.8799997121096 767
15.8999997116625 810
15.9199997112155 816
15.9399997107685 819
15.9599997103214 821
15.9799997098744 757
15.9999997094274 798
16.0199997089803 801
16.0399997085333 833
16.0599997080863 841
16.0799997076392 774
16.0999997071922 813
16.1199997067451 819
16.1399997062981 804
16.1599997058511 814
16.179999705404 840
16.199999704957 858
16.21999970451 810
16.2399997040629 872
16.2599997036159 831
16.2799997031689 818
16.2999997027218 848
16.3199997022748 807
16.3399997018278 822
16.3599997013807 859
16.3799997009337 837
16.3999997004867 900
16.4199997000396 825
16.4399996995926 881
16.4599996991456 883
16.4799996986985 880
16.4999996982515 850
16.5199996978045 852
16.5399996973574 843
16.5599996969104 902
16.5799996964633 892
16.5999996960163 920
16.6199996955693 888
16.6399996951222 888
16.6599996946752 880
16.6799996942282 924
16.6999996937811 949
16.7199996933341 899
16.7399996928871 849
16.75999969244 879
16.779999691993 961
16.799999691546 910
16.8199996910989 983
16.8399996906519 993
16.8599996902049 1030
16.8799996897578 1059
16.8999996893108 1072
16.9199996888638 1169
16.9399996884167 1202
16.9599996879697 1324
16.9799996875226 1411
16.9999996870756 1491
17.0199996866286 1520
17.0399996861815 1477
17.0599996857345 1363
17.0799996852875 1261
17.0999996848404 1121
17.1199996843934 1128
17.1399996839464 1045
17.1599996834993 1054
17.1799996830523 1001
17.1999996826053 984
17.2199996821582 923
17.2399996817112 913
17.2599996812642 974
17.2799996808171 946
17.2999996803701 993
17.3199996799231 930
17.339999679476 929
17.359999679029 958
17.379999678582 958
17.3999996781349 967
17.4199996776879 975
17.4399996772408 969
17.4599996767938 1021
17.4799996763468 1000
17.4999996758997 941
17.5199996754527 990
17.5399996750057 971
17.5599996745586 1025
17.5799996741116 1025
17.5999996736646 1024
17.6199996732175 1020
17.6399996727705 958
17.6599996723235 1002
17.6799996718764 1010
17.6999996714294 1036
17.7199996709824 1030
17.7399996705353 1030
17.7599996700883 1001
17.7799996696413 1039
17.7999996691942 1070
17.8199996687472 996
17.8399996683002 997
17.8599996678531 1091
17.8799996674061 1064
17.899999666959 1054
17.919999666512 1076
17.939999666065 1025
17.9599996656179 1045
17.9799996651709 1048
17.9999996647239 1048
18.0199996642768 1068
18.0399996638298 1013
18.0599996633828 1076
18.0799996629357 1088
18.0999996624887 1113
18.1199996620417 1049
18.1399996615946 1087
18.1599996611476 1147
18.1799996607006 1091
18.1999996602535 1084
18.2199996598065 1075
18.2399996593595 1105
18.2599996589124 1127
18.2799996584654 1064
18.2999996580184 1092
18.3199996575713 1099
18.3399996571243 1139
18.3599996566772 1054
18.3799996562302 1091
18.3999996557832 1147
18.4199996553361 1132
18.4399996548891 1109
18.4599996544421 1157
18.479999653995 1086
18.499999653548 1145
18.519999653101 1146
18.5399996526539 1196
18.5599996522069 1164
18.5799996517599 1151
18.5999996513128 1147
18.6199996508658 1093
18.6399996504188 1157
18.6599996499717 1175
18.6799996495247 1195
18.6999996490777 1253
18.7199996486306 1142
18.7399996481836 1175
18.7599996477366 1213
18.7799996472895 1186
18.7999996468425 1231
18.8199996463954 1166
18.8399996459484 1221
18.8599996455014 1248
18.8799996450543 1230
18.8999996446073 1277
18.9199996441603 1230
18.9399996437132 1235
18.9599996432662 1190
18.9799996428192 1244
18.9999996423721 1232
19.0199996419251 1226
19.0399996414781 1215
19.059999641031 1204
19.079999640584 1249
19.099999640137 1255
19.1199996396899 1279
19.1399996392429 1301
19.1599996387959 1257
19.1799996383488 1231
19.1999996379018 1224
19.2199996374547 1272
19.2399996370077 1244
19.2599996365607 1319
19.2799996361136 1268
19.2999996356666 1346
19.3199996352196 1270
19.3399996347725 1333
19.3599996343255 1310
19.3799996338785 1281
19.3999996334314 1320
19.4199996329844 1340
19.4399996325374 1311
19.4599996320903 1328
19.4799996316433 1324
19.4999996311963 1261
19.5199996307492 1375
19.5399996303022 1305
19.5599996298552 1326
19.5799996294081 1346
19.5999996289611 1294
19.6199996285141 1344
19.639999628067 1295
19.65999962762 1326
19.6799996271729 1348
19.6999996267259 1380
19.7199996262789 1425
19.7399996258318 1408
19.7599996253848 1348
19.7799996249378 1368
19.7999996244907 1341
19.8199996240437 1353
19.8399996235967 1407
19.8599996231496 1352
19.8799996227026 1415
19.8999996222556 1392
19.9199996218085 1422
19.9399996213615 1389
19.9599996209145 1409
19.9799996204674 1364
19.9999996200204 1394
