3 1448
3.01999999955297 1425
3.03999999910593 1426
3.0599999986589 1347
3.07999999821186 1333
3.09999999776483 1308
3.11999999731779 1347
3.13999999687076 1367
3.15999999642372 1288
3.17999999597669 1270
3.19999999552965 1299
3.21999999508262 1239
3.23999999463558 1309
3.25999999418855 1219
3.27999999374151 1203
3.29999999329448 1212
3.31999999284744 1168
3.33999999240041 1168
3.35999999195337 1208
3.37999999150634 1176
3.3999999910593 1181
3.41999999061227 1143
3.43999999016523 1143
3.4599999897182 1102
3.47999998927116 1130
3.49999998882413 1139
3.51999998837709 1163
3.53999998793006 1101
3.55999998748302 1184
3.57999998703599 1107
3.59999998658895 1118
3.61999998614192 1127
3.63999998569489 1185
3.65999998524785 1136
3.67999998480082 1096
3.69999998435378 1053
3.71999998390675 1151
3.73999998345971 1101
3.75999998301268 1057
3.77999998256564 1087
3.79999998211861 1040
3.81999998167157 1056
3.83999998122454 1001
3.8599999807775 1102
3.87999998033047 1085
3.89999997988343 1106
3.9199999794364 1047
3.93999997898936 1062
3.95999997854233 1060
3.97999997809529 1011
3.99999997764826 1042
4.01999997720122 1022
4.03999997675419 1047
4.05999997630715 1046
4.07999997586012 981
4.09999997541308 1055
4.11999997496605 1025
4.13999997451901 961
4.15999997407198 1025
4.17999997362494 981
4.19999997317791 1017
4.21999997273087 1027
4.23999997228384 1033
4.25999997183681 1005
4.27999997138977 1005
4.29999997094274 986
4.3199999704957 909
4.33999997004867 958
4.35999996960163 943
4.3799999691546 1019
4.39999996870756 1011
4.41999996826053 1054
4.43999996781349 1006
4.45999996736646 988
4.47999996691942 958
4.49999996647239 1028
4.51999996602535 967
4.53999996557832 987
4.55999996513128 1023
4.57999996468425 989
4.59999996423721 998
4.61999996379018 1008
4.63999996334314 983
4.65999996289611 983
4.67999996244907 982
4.69999996200204 1015
4.719999961555 1014
4.73999996110797 915
4.75999996066093 989
4.7799999602139 982
4.79999995976686 937
4.81999995931983 912
4.83999995887279 978
4.85999995842576 945
4.87999995797873 937
4.89999995753169 894
4.91999995708466 965
4.93999995663762 937
4.95999995619059 984
4.97999995574355 1018
4.99999995529652 950
5.01999995484948 954
5.03999995440245 960
5.05999995395541 944
5.07999995350838 977
5.09999995306134 977
5.11999995261431 990
5.13999995216727 922
5.15999995172024 977
5.1799999512732 1016
5.19999995082617 965
5.21999995037913 956
5.2399999499321 958
5.25999994948506 1010
5.27999994903803 1037
5.29999994859099 994
5.31999994814396 1008
5.33999994769692 1035
5.35999994724989 1019
5.37999994680285 1101
5.39999994635582 1127
5.41999994590878 1196
5.43999994546175 1203
5.45999994501471 1295
5.47999994456768 1373
5.49999994412065 1417
5.51999994367361 1424
5.53999994322658 1325
5.55999994277954 1220
5.57999994233251 1204
5.59999994188547 1070
5.61999994143844 1001
5.6399999409914 884
5.65999994054437 877
5.67999994009733 937
5.6999999396503 890
5.71999993920326 843
5.73999993875623 830
5.75999993830919 851
5.77999993786216 800
5.79999993741512 799
5.81999993696809 755
5.83999993652105 794
5.85999993607402 764
5.87999993562698 761
5.89999993517995 773
5.91999993473291 720
5.93999993428588 718
5.95999993383884 723
5.97999993339181 675
5.99999993294477 708
6.01999993249774 696
6.0399999320507 723
6.05999993160367 695
6.07999993115663 693
6.0999999307096 634
6.11999993026257 694
6.13999992981553 648
6.1599999293685 676
6.17999992892146 619
6.19999992847443 682
6.21999992802739 662
6.23999992758036 634
6.25999992713332 604
6.27999992668629 636
6.29999992623925 613
6.31999992579222 605
6.33999992534518 595
6.35999992489815 583
6.37999992445111 633
6.39999992400408 600
6.41999992355704 616
6.43999992311001 599
6.45999992266297 612
6.47999992221594 563
6.4999999217689 579
6.51999992132187 584
6.53999992087483 570
6.5599999204278 614
6.57999991998076 570
6.59999991953373 582
6.61999991908669 601
6.63999991863966 597
6.65999991819262 591
6.67999991774559 585
6.69999991729855 592
6.71999991685152 588
6.73999991640449 574
6.75999991595745 566
6.77999991551042 576
6.79999991506338 556
6.81999991461635 535
6.83999991416931 545
6.85999991372228 519
6.87999991327524 508
6.89999991282821 529
6.91999991238117 543
6.93999991193414 576
6.9599999114871 516
6.97999991104007 599
6.99999991059303 549
7.019999910146 529
7.03999990969896 535
7.05999990925193 549
7.07999990880489 503
7.09999990835786 545
7.11999990791082 525
7.13999990746379 533
7.15999990701675 506
7.17999990656972 547
7.19999990612268 545
7.21999990567565 539
7.23999990522861 506
7.25999990478158 523
7.27999990433454 516
7.29999990388751 511
7.31999990344047 509
7.33999990299344 488
7.35999990254641 519
7.37999990209937 464
7.39999990165234 470
7.4199999012053 505
7.43999990075827 517
7.45999990031123 499
7.4799998998642 500
7.49999989941716 507
7.51999989897013 466
7.53999989852309 494
7.55999989807606 509
7.57999989762902 475
7.59999989718199 475
7.61999989673495 513
7.63999989628792 475
7.65999989584088 475
7.67999989539385 494
7.69999989494681 482
7.71999989449978 456
7.73999989405274 505
7.75999989360571 485
7.77999989315867 495
7.79999989271164 452
7.8199998922646 490
7.83999989181757 489
7.85999989137053 487
7.8799998909235 498
7.89999989047646 508
7.91999989002943 522
7.9399998895824 488
7.95999988913536 510
7.97999988868833 494
7.99999988824129 505
8.01999988779426 513
8.03999988734722 475
8.05999988690019 467
8.07999988645315 502
8.09999988600612 490
8.11999988555908 470
8.13999988511205 486
8.15999988466501 483
8.17999988421798 455
8.19999988377094 469
8.21999988332391 464
8.23999988287687 491
8.25999988242984 442
8.2799998819828 491
8.29999988153577 457
8.31999988108873 484
8.3399998806417 464
8.35999988019466 503
8.37999987974763 500
8.39999987930059 468
8.41999987885356 479
8.43999987840652 483
8.45999987795949 436
8.47999987751245 453
8.49999987706542 525
8.51999987661839 480
8.53999987617135 491
8.55999987572432 493
8.57999987527728 456
8.59999987483025 474
8.61999987438321 491
8.63999987393618 420
8.65999987348914 490
8.67999987304211 486
8.69999987259507 446
8.71999987214804 464
8.739999871701 438
8.75999987125397 472
8.77999987080693 475
8.7999998703599 481
8.81999986991286 456
8.83999986946583 470
8.85999986901879 467
8.87999986857176 463
8.89999986812472 472
8.91999986767769 487
8.93999986723065 481
8.95999986678362 460
8.97999986633658 484
8.99999986588955 441
9.01999986544251 464
9.03999986499548 425
9.05999986454844 479
9.07999986410141 420
9.09999986365438 455
9.11999986320734 468
9.13999986276031 489
9.15999986231327 491
9.17999986186624 503
9.1999998614192 486
9.21999986097217 498
9.23999986052513 444
9.2599998600781 501
9.27999985963106 534
9.29999985918403 513
9.31999985873699 524
9.33999985828996 561
9.35999985784292 561
9.37999985739589 581
9.39999985694885 602
9.41999985650182 627
9.43999985605478 607
9.45999985560775 554
9.47999985516071 568
9.49999985471368 534
9.51999985426664 518
9.53999985381961 520
9.55999985337257 472
9.57999985292554 446
9.5999998524785 470
9.61999985203147 480
9.63999985158443 471
9.6599998511374 452
9.67999985069037 432
9.69999985024333 459
9.7199998497963 413
9.73999984934926 455
9.75999984890223 436
9.77999984845519 446
9.79999984800816 432
9.81999984756112 446
9.83999984711409 440
9.85999984666705 451
9.87999984622002 445
9.89999984577298 406
9.91999984532595 455
9.93999984487891 422
9.95999984443188 429
9.97999984398484 433
9.99999984353781 438
10.0199998430908 419
10.0399998426437 434
10.0599998421967 422
10.0799998417497 419
10.0999998413026 463
10.1199998408556 438
10.1399998404086 436
10.1599998399615 427
10.1799998395145 465
10.1999998390675 478
10.2199998386204 466
10.2399998381734 431
10.2599998377264 452
10.2799998372793 422
10.2999998368323 449
10.3199998363853 436
10.3399998359382 432
10.3599998354912 427
10.3799998350441 470
10.3999998345971 432
10.4199998341501 435
10.439999833703 437
10.459999833256 397
10.479999832809 423
10.4999998323619 457
10.5199998319149 474
10.5399998314679 423
10.5599998310208 464
10.5799998305738 435
10.5999998301268 438
10.6199998296797 462
10.6399998292327 477
10.6599998287857 417
10.6799998283386 456
10.6999998278916 479
10.7199998274446 473
10.7399998269975 502
10.7599998265505 455
10.7799998261034 493
10.7999998256564 500
10.8199998252094 503
10.8399998247623 532
10.8599998243153 523
10.8799998238683 508
10.8999998234212 497
10.9199998229742 467
10.9399998225272 502
10.9599998220801 441
10.9799998216331 437
10.9999998211861 466
11.019999820739 474
11.039999820292 432
11.059999819845 467
11.0799998193979 448
11.0999998189509 436
11.1199998185039 412
11.1399998180568 489
11.1599998176098 437
11.1799998171628 397
11.1999998167157 416
11.2199998162687 453
11.2399998158216 423
11.2599998153746 447
11.2799998149276 404
11.2999998144805 418
11.3199998140335 419
11.3399998135865 437
11.3599998131394 441
11.3799998126924 433
11.3999998122454 449
11.4199998117983 383
11.4399998113513 420
11.4599998109043 405
11.4799998104572 436
11.4999998100102 430
11.5199998095632 410
11.5399998091161 452
11.5599998086691 422
11.5799998082221 400
11.599999807775 457
11.619999807328 426
11.639999806881 440
11.6599998064339 377
11.6799998059869 422
11.6999998055398 443
11.7199998050928 423
11.7399998046458 437
11.7599998041987 450
11.7799998037517 409
11.7999998033047 445
11.8199998028576 438
11.8399998024106 459
11.8599998019636 423
11.8799998015165 408
11.8999998010695 466
11.9199998006225 416
11.9399998001754 417
11.9599997997284 398
11.9799997992814 390
11.9999997988343 444
12.0199997983873 447
12.0399997979403 412
12.0599997974932 450
12.0799997970462 433
12.0999997965992 517
12.1199997961521 442
12.1399997957051 463
12.159999795258 461
12.179999794811 438
12.199999794364 445
12.2199997939169 460
12.2399997934699 440
12.2599997930229 449
12.2799997925758 466
12.2999997921288 453
12.3199997916818 463
12.3399997912347 459
12.3599997907877 444
12.3799997903407 432
12.3999997898936 425
12.4199997894466 456
12.4399997889996 430
12.4599997885525 433
12.4799997881055 444
12.4999997876585 431
12.5199997872114 453
12.5399997867644 423
12.5599997863173 427
12.5799997858703 448
12.5999997854233 427
12.6199997849762 469
12.6399997845292 446
12.6599997840822 443
12.6799997836351 445
12.6999997831881 434
12.7199997827411 462
12.739999782294 450
12.759999781847 420
12.7799997814 444
12.7999997809529 415
12.8199997805059 482
12.8399997800589 483
12.8599997796118 449
12.8799997791648 413
12.8999997787178 420
12.9199997782707 443
12.9399997778237 405
12.9599997773767 412
12.9799997769296 439
12.9999997764826 468
13.0199997760355 451
13.0399997755885 449
13.0599997751415 428
13.0799997746944 460
13.0999997742474 439
13.1199997738004 436
13.1399997733533 427
13.1599997729063 449
13.1799997724593 437
13.1999997720122 463
13.2199997715652 460
13.2399997711182 485
13.2599997706711 466
13.2799997702241 500
13.2999997697771 480
13.31999976933 494
13.339999768883 465
13.359999768436 466
13.3799997679889 456
13.3999997675419 496
13.4199997670949 469
13.4399997666478 463
13.4599997662008 481
13.4799997657537 438
13.4999997653067 467
13.5199997648597 489
13.5399997644126 441
13.5599997639656 473
13.5799997635186 447
13.5999997630715 427
13.6199997626245 502
13.6399997621775 473
13.6599997617304 450
13.6799997612834 462
13.6999997608364 473
13.7199997603893 487
13.7399997599423 485
13.7599997594953 442
13.7799997590482 515
13.7999997586012 471
13.8199997581542 469
13.8399997577071 478
13.8599997572601 489
13.879999756813 444
13.899999756366 518
13.919999755919 445
13.9399997554719 459
13.9599997550249 465
13.9799997545779 430
13.9999997541308 465
14.0199997536838 468
14.0399997532368 479
14.0599997527897 488
14.0799997523427 497
14.0999997518957 500
14.1199997514486 486
14.1399997510016 475
14.1599997505546 487
14.1799997501075 449
14.1999997496605 462
14.2199997492135 490
14.2399997487664 470
14.2599997483194 491
14.2799997478724 499
14.2999997474253 509
14.3199997469783 512
14.3399997465312 496
14.3599997460842 472
14.3799997456372 521
14.3999997451901 498
14.4199997447431 460
14.4399997442961 487
14.459999743849 476
14.479999743402 467
14.499999742955 485
14.5199997425079 470
14.5399997420609 511
14.5599997416139 468
14.5799997411668 533
14.5999997407198 519
14.6199997402728 490
14.6399997398257 507
14.6599997393787 506
14.6799997389317 489
14.6999997384846 496
14.7199997380376 505
14.7399997375906 458
14.7599997371435 501
14.7799997366965 449
14.7999997362494 484
14.8199997358024 482
14.8399997353554 508
14.8599997349083 506
14.8799997344613 508
14.8999997340143 476
14.9199997335672 462
14.9399997331202 460
14.9599997326732 489
14.9799997322261 492
14.9999997317791 483
15.0199997313321 489
15.039999730885 469
15.059999730438 485
15.079999729991 520
15.0999997295439 507
15.1199997290969 517
15.1399997286499 464
15.1599997282028 497
15.1799997277558 494
15.1999997273088 519
15.2199997268617 516
15.2399997264147 499
15.2599997259676 476
15.2799997255206 521
15.2999997250736 508
15.3199997246265 537
15.3399997241795 525
15.3599997237325 554
15.3799997232854 531
15.3999997228384 536
15.4199997223914 522
15.4399997219443 543
15.4599997214973 541
15.4799997210503 539
15.4999997206032 523
15.5199997201562 527
15.5399997197092 503
15.5599997192621 547
15.5799997188151 542
15.5999997183681 506
15.619999717921 503
15.639999717474 543
15.659999717027 512
15.6799997165799 536
15.6999997161329 567
15.7199997156858 569
15.7399997152388 543
15.7599997147918 534
15.7799997143447 529
15.7999997138977 528
15.8199997134507 570
15.8399997130036 534
15.8599997125566 545
15.8799997121096 508
15.8999997116625 503
15.9199997112155 491
15.9399997107685 554
15.9599997103214 531
15.9799997098744 521
15.9999997094274 536
16.0199997089803 513
16.0399997085333 562
16.0599997080863 542
16.0799997076392 529
16.0999997071922 573
16.1199997067451 535
16.1399997062981 558
16.1599997058511 571
16.179999705404 546
16.199999704957 589
16.21999970451 547
16.2399997040629 575
16.2599997036159 565
16.2799997031689 549
16.2999997027218 528
16.3199997022748 559
16.3399997018278 581
16.3599997013807 556
16.3799997009337 580
16.3999997004867 536
16.4199997000396 543
16.4399996995926 587
16.4599996991456 523
16.4799996986985 546
16.4999996982515 605
16.5199996978045 604
16.5399996973574 591
16.5599996969104 625
16.5799996964633 581
16.5999996960163 585
16.6199996955693 606
16.6399996951222 601
16.6599996946752 615
16.6799996942282 589
16.6999996937811 601
16.7199996933341 591
16.7399996928871 585
16.75999969244 620
16.779999691993 584
16.799999691546 604
16.8199996910989 641
16.8399996906519 625
16.8599996902049 691
16.8799996897578 730
16.8999996893108 734
16.9199996888638 758
16.9399996884167 780
16.9599996879697 914
16.9799996875226 1062
16.9999996870756 1421
17.0199996866286 1802
17.0399996861815 1987
17.0599996857345 2342
17.0799996852875 2568
17.0999996848404 2355
17.1199996843934 1822
17.1399996839464 1595
17.1599996834993 1181
17.1799996830523 980
17.1999996826053 890
17.2199996821582 795
17.2399996817112 716
17.2599996812642 675
17.2799996808171 657
17.2999996803701 653
17.3199996799231 649
17.339999679476 652
17.359999679029 618
17.379999678582 640
17.3999996781349 617
17.4199996776879 692
17.4399996772408 663
17.4599996767938 687
17.4799996763468 649
17.4999996758997 714
17.5199996754527 666
17.5399996750057 642
17.5599996745586 695
17.5799996741116 682
17.5999996736646 646
17.6199996732175 656
17.6399996727705 658
17.6599996723235 685
17.6799996718764 658
17.6999996714294 709
17.7199996709824 737
17.7399996705353 648
17.7599996700883 672
17.7799996696413 705
17.7999996691942 684
17.8199996687472 639
17.8399996683002 663
17.8599996678531 697
17.8799996674061 730
17.899999666959 687
17.919999666512 658
17.939999666065 651
17.9599996656179 666
17.9799996651709 697
17.9999996647239 777
18.0199996642768 671
18.0399996638298 722
18.0599996633828 684
18.0799996629357 725
18.0999996624887 695
18.1199996620417 722
18.1399996615946 688
18.1599996611476 715
18.1799996607006 667
18.1999996602535 697
18.2199996598065 688
18.2399996593595 714
18.2599996589124 737
18.2799996584654 688
18.2999996580184 693
18.3199996575713 692
18.3399996571243 698
18.3599996566772 733
18.3799996562302 705
18.3999996557832 743
18.4199996553361 740
18.4399996548891 714
18.4599996544421 771
18.479999653995 751
18.499999653548 738
18.519999653101 768
18.5399996526539 719
18.5599996522069 746
18.5799996517599 732
18.5999996513128 734
18.6199996508658 683
18.6399996504188 751
18.6599996499717 738
18.6799996495247 718
18.6999996490777 708
18.7199996486306 780
18.7399996481836 809
18.7599996477366 790
18.7799996472895 781
18.7999996468425 825
18.8199996463954 794
18.8399996459484 774
18.8599996455014 768
18.8799996450543 781
18.8999996446073 812
18.9199996441603 804
18.9399996437132 780
18.9599996432662 798
18.9799996428192 773
18.9999996423721 754
19.0199996419251 784
19.0399996414781 792
19.059999641031 818
19.079999640584 816
19.099999640137 777
19.1199996396899 797
19.1399996392429 759
19.1599996387959 746
19.1799996383488 792
19.1999996379018 784
19.2199996374547 823
19.2399996370077 817
19.2599996365607 823
19.2799996361136 797
19.2999996356666 820
19.3199996352196 846
19.3399996347725 832
19.3599996343255 784
19.3799996338785 805
19.3999996334314 819
19.4199996329844 863
19.4399996325374 876
19.4599996320903 846
19.4799996316433 879
19.4999996311963 857
19.5199996307492 839
19.5399996303022 885
19.5599996298552 886
19.5799996294081 877
19.5999996289611 849
19.6199996285141 886
19.639999628067 871
19.65999962762 870
19.6799996271729 788
19.6999996267259 844
19.7199996262789 879
19.7399996258318 849
19.7599996253848 851
19.7799996249378 840
19.7999996244907 878
19.8199996240437 879
19.8399996235967 871
19.8599996231496 846
19.8799996227026 863
19.8999996222556 847
19.9199996218085 879
19.9399996213615 871
19.9599996209145 855
19.9799996204674 887
19.9999996200204 902
