3 1817
3.01999999955297 1854
3.03999999910593 1749
3.0599999986589 1698
3.07999999821186 1739
3.09999999776483 1637
3.11999999731779 1680
3.13999999687076 1677
3.15999999642372 1666
3.17999999597669 1666
3.19999999552965 1582
3.21999999508262 1544
3.23999999463558 1519
3.25999999418855 1648
3.27999999374151 1603
3.29999999329448 1596
3.31999999284744 1541
3.33999999240041 1666
3.35999999195337 1493
3.37999999150634 1499
3.3999999910593 1507
3.41999999061227 1466
3.43999999016523 1536
3.4599999897182 1500
3.47999998927116 1490
3.49999998882413 1490
3.51999998837709 1370
3.53999998793006 1436
3.55999998748302 1396
3.57999998703599 1471
3.59999998658895 1389
3.61999998614192 1428
3.63999998569489 1431
3.65999998524785 1363
3.67999998480082 1367
3.69999998435378 1321
3.71999998390675 1397
3.73999998345971 1374
3.75999998301268 1410
3.77999998256564 1374
3.79999998211861 1338
3.81999998167157 1421
3.83999998122454 1405
3.8599999807775 1304
3.87999998033047 1362
3.89999997988343 1425
3.9199999794364 1424
3.93999997898936 1331
3.95999997854233 1427
3.97999997809529 1357
3.99999997764826 1333
4.01999997720122 1412
4.03999997675419 1319
4.05999997630715 1322
4.07999997586012 1361
4.09999997541308 1365
4.11999997496605 1331
4.13999997451901 1348
4.15999997407198 1387
4.17999997362494 1363
4.19999997317791 1303
4.21999997273087 1360
4.23999997228384 1318
4.25999997183681 1318
4.27999997138977 1355
4.29999997094274 1281
4.3199999704957 1318
4.33999997004867 1295
4.35999996960163 1356
4.3799999691546 1304
4.39999996870756 1337
4.41999996826053 1342
4.43999996781349 1379
4.45999996736646 1337
4.47999996691942 1291
4.49999996647239 1300
4.51999996602535 1325
4.53999996557832 1319
4.55999996513128 1351
4.57999996468425 1355
4.59999996423721 1266
4.61999996379018 1326
4.63999996334314 1333
4.65999996289611 1362
4.67999996244907 1344
4.69999996200204 1322
4.719999961555 1332
4.73999996110797 1244
4.75999996066093 1358
4.7799999602139 1385
4.79999995976686 1298
4.81999995931983 1307
4.83999995887279 1337
4.85999995842576 1365
4.87999995797873 1275
4.89999995753169 1311
4.91999995708466 1321
4.93999995663762 1362
4.95999995619059 1369
4.97999995574355 1354
4.99999995529652 1386
5.01999995484948 1330
5.03999995440245 1342
5.05999995395541 1370
5.07999995350838 1354
5.09999995306134 1382
5.11999995261431 1408
5.13999995216727 1351
5.15999995172024 1387
5.1799999512732 1296
5.19999995082617 1410
5.21999995037913 1399
5.2399999499321 1428
5.25999994948506 1453
5.27999994903803 1503
5.29999994859099 1526
5.31999994814396 1508
5.33999994769692 1605
5.35999994724989 1608
5.37999994680285 1679
5.39999994635582 1873
5.41999994590878 1989
5.43999994546175 1930
5.45999994501471 1875
5.47999994456768 1832
5.49999994412065 1575
5.51999994367361 1404
5.53999994322658 1285
5.55999994277954 1276
5.57999994233251 1254
5.59999994188547 1202
5.61999994143844 1261
5.6399999409914 1217
5.65999994054437 1164
5.67999994009733 1210
5.6999999396503 1235
5.71999993920326 1184
5.73999993875623 1245
5.75999993830919 1219
5.77999993786216 1143
5.79999993741512 1170
5.81999993696809 1112
5.83999993652105 1104
5.85999993607402 1057
5.87999993562698 964
5.89999993517995 998
5.91999993473291 948
5.93999993428588 926
5.95999993383884 978
5.97999993339181 944
5.99999993294477 900
6.01999993249774 870
6.0399999320507 935
6.05999993160367 798
6.07999993115663 883
6.0999999307096 838
6.11999993026257 831
6.13999992981553 907
6.1599999293685 806
6.17999992892146 841
6.19999992847443 813
6.21999992802739 824
6.23999992758036 789
6.25999992713332 801
6.27999992668629 799
6.29999992623925 805
6.31999992579222 820
6.33999992534518 752
6.35999992489815 778
6.37999992445111 761
6.39999992400408 782
6.41999992355704 750
6.43999992311001 766
6.45999992266297 766
6.47999992221594 756
6.4999999217689 704
6.51999992132187 692
6.53999992087483 737
6.5599999204278 727
6.57999991998076 693
6.59999991953373 743
6.61999991908669 709
6.63999991863966 751
6.65999991819262 717
6.67999991774559 725
6.69999991729855 720
6.71999991685152 738
6.73999991640449 692
6.75999991595745 685
6.77999991551042 704
6.79999991506338 676
6.81999991461635 685
6.83999991416931 636
6.85999991372228 743
6.87999991327524 624
6.89999991282821 644
6.91999991238117 665
6.93999991193414 664
6.9599999114871 671
6.97999991104007 667
6.99999991059303 696
7.019999910146 693
7.03999990969896 657
7.05999990925193 612
7.07999990880489 658
7.09999990835786 651
7.11999990791082 648
7.13999990746379 638
7.15999990701675 629
7.17999990656972 590
7.19999990612268 624
7.21999990567565 560
7.23999990522861 597
7.25999990478158 603
7.27999990433454 630
7.29999990388751 601
7.31999990344047 639
7.33999990299344 610
7.35999990254641 605
7.37999990209937 620
7.39999990165234 609
7.4199999012053 597
7.43999990075827 597
7.45999990031123 598
7.4799998998642 590
7.49999989941716 604
7.51999989897013 582
7.53999989852309 597
7.55999989807606 610
7.57999989762902 590
7.59999989718199 629
7.61999989673495 603
7.63999989628792 562
7.65999989584088 632
7.67999989539385 595
7.69999989494681 563
7.71999989449978 613
7.73999989405274 600
7.75999989360571 584
7.77999989315867 615
7.79999989271164 586
7.8199998922646 562
7.83999989181757 622
7.85999989137053 554
7.8799998909235 590
7.89999989047646 566
7.91999989002943 605
7.9399998895824 611
7.95999988913536 585
7.97999988868833 557
7.99999988824129 584
8.01999988779426 550
8.03999988734722 575
8.05999988690019 614
8.07999988645315 552
8.09999988600612 573
8.11999988555908 578
8.13999988511205 563
8.15999988466501 562
8.17999988421798 595
8.19999988377094 552
8.21999988332391 598
8.23999988287687 563
8.25999988242984 554
8.2799998819828 581
8.29999988153577 591
8.31999988108873 551
8.3399998806417 524
8.35999988019466 555
8.37999987974763 545
8.39999987930059 589
8.41999987885356 578
8.43999987840652 575
8.45999987795949 595
8.47999987751245 563
8.49999987706542 544
8.51999987661839 557
8.53999987617135 553
8.55999987572432 542
8.57999987527728 536
8.59999987483025 563
8.61999987438321 582
8.63999987393618 552
8.65999987348914 543
8.67999987304211 552
8.69999987259507 554
8.71999987214804 502
8.739999871701 529
8.75999987125397 554
8.77999987080693 525
8.7999998703599 567
8.81999986991286 536
8.83999986946583 577
8.85999986901879 541
8.87999986857176 499
8.89999986812472 518
8.91999986767769 551
8.93999986723065 579
8.95999986678362 564
8.97999986633658 577
8.99999986588955 534
9.01999986544251 596
9.03999986499548 568
9.05999986454844 552
9.07999986410141 593
9.09999986365438 556
9.11999986320734 564
9.13999986276031 576
9.15999986231327 589
9.17999986186624 618
9.1999998614192 597
9.21999986097217 625
9.23999986052513 607
9.2599998600781 656
9.27999985963106 655
9.29999985918403 651
9.31999985873699 739
9.33999985828996 734
9.35999985784292 783
9.37999985739589 715
9.39999985694885 673
9.41999985650182 586
9.43999985605478 628
9.45999985560775 582
9.47999985516071 602
9.49999985471368 585
9.51999985426664 574
9.53999985381961 493
9.55999985337257 566
9.57999985292554 558
9.5999998524785 561
9.61999985203147 558
9.63999985158443 556
9.6599998511374 546
9.67999985069037 531
9.69999985024333 495
9.7199998497963 533
9.73999984934926 523
9.75999984890223 546
9.77999984845519 515
9.79999984800816 551
9.81999984756112 551
9.83999984711409 500
9.85999984666705 542
9.87999984622002 525
9.89999984577298 545
9.91999984532595 533
9.93999984487891 527
9.95999984443188 548
9.97999984398484 558
9.99999984353781 519
10.0199998430908 520
10.0399998426437 512
10.0599998421967 492
10.0799998417497 563
10.0999998413026 540
10.1199998408556 519
10.1399998404086 550
10.1599998399615 522
10.1799998395145 535
10.1999998390675 523
10.2199998386204 545
10.2399998381734 505
10.2599998377264 488
10.2799998372793 509
10.2999998368323 522
10.3199998363853 493
10.3399998359382 533
10.3599998354912 509
10.3799998350441 534
10.3999998345971 520
10.4199998341501 504
10.439999833703 472
10.459999833256 512
10.479999832809 528
10.4999998323619 527
10.5199998319149 537
10.5399998314679 523
10.5599998310208 524
10.5799998305738 539
10.5999998301268 525
10.6199998296797 520
10.6399998292327 544
10.6599998287857 564
10.6799998283386 530
10.6999998278916 580
10.7199998274446 579
10.7399998269975 586
10.7599998265505 644
10.7799998261034 590
10.7999998256564 606
10.8199998252094 614
10.8399998247623 597
10.8599998243153 551
10.8799998238683 528
10.8999998234212 528
10.9199998229742 551
10.9399998225272 515
10.9599998220801 538
10.9799998216331 511
10.9999998211861 502
11.019999820739 531
11.039999820292 526
11.059999819845 502
11.0799998193979 474
11.0999998189509 516
11.1199998185039 504
11.1399998180568 496
11.1599998176098 503
11.1799998171628 494
11.1999998167157 470
11.2199998162687 477
11.2399998158216 495
11.2599998153746 504
11.2799998149276 480
11.2999998144805 455
11.3199998140335 471
11.3399998135865 475
11.3599998131394 501
11.3799998126924 504
11.3999998122454 457
11.4199998117983 473
11.4399998113513 485
11.4599998109043 517
11.4799998104572 500
11.4999998100102 491
11.5199998095632 491
11.5399998091161 489
11.5599998086691 492
11.5799998082221 496
11.599999807775 475
11.619999807328 452
11.639999806881 489
11.6599998064339 484
11.6799998059869 491
11.6999998055398 466
11.7199998050928 518
11.7399998046458 509
11.7599998041987 497
11.7799998037517 448
11.7999998033047 507
11.8199998028576 514
11.8399998024106 485
11.8599998019636 491
11.8799998015165 516
11.8999998010695 497
11.9199998006225 475
11.9399998001754 484
11.9599997997284 481
11.9799997992814 434
11.9999997988343 467
12.0199997983873 475
12.0399997979403 506
12.0599997974932 464
12.0799997970462 496
12.0999997965992 478
12.1199997961521 483
12.1399997957051 508
12.159999795258 484
12.179999794811 525
12.199999794364 495
12.2199997939169 484
12.2399997934699 485
12.2599997930229 492
12.2799997925758 507
12.2999997921288 487
12.3199997916818 492
12.3399997912347 502
12.3599997907877 507
12.3799997903407 504
12.3999997898936 522
12.4199997894466 477
12.4399997889996 520
12.4599997885525 519
12.4799997881055 507
12.4999997876585 537
12.5199997872114 493
12.5399997867644 522
12.5599997863173 501
12.5799997858703 487
12.5999997854233 523
12.6199997849762 493
12.6399997845292 501
12.6599997840822 502
12.6799997836351 506
12.6999997831881 505
12.7199997827411 503
12.739999782294 489
12.759999781847 488
12.7799997814 496
12.7999997809529 512
12.8199997805059 537
12.8399997800589 503
12.8599997796118 488
12.8799997791648 469
12.8999997787178 468
12.9199997782707 509
12.9399997778237 522
12.9599997773767 490
12.9799997769296 469
12.9999997764826 517
13.0199997760355 513
13.0399997755885 513
13.0599997751415 518
13.0799997746944 521
13.0999997742474 538
13.1199997738004 503
13.1399997733533 541
13.1599997729063 538
13.1799997724593 522
13.1999997720122 552
13.2199997715652 489
13.2399997711182 505
13.2599997706711 551
13.2799997702241 543
13.2999997697771 503
13.31999976933 488
13.339999768883 514
13.359999768436 507
13.3799997679889 503
13.3999997675419 522
13.4199997670949 497
13.4399997666478 518
13.4599997662008 503
13.4799997657537 514
13.4999997653067 505
13.5199997648597 539
13.5399997644126 495
13.5599997639656 496
13.5799997635186 523
13.5999997630715 513
13.6199997626245 520
13.6399997621775 488
13.6599997617304 504
13.6799997612834 484
13.6999997608364 544
13.7199997603893 502
13.7399997599423 526
13.7599997594953 521
13.7799997590482 466
13.7999997586012 478
13.8199997581542 537
13.8399997577071 533
13.8599997572601 547
13.879999756813 468
13.899999756366 498
13.919999755919 495
13.9399997554719 538
13.9599997550249 545
13.9799997545779 530
13.9999997541308 517
14.0199997536838 508
14.0399997532368 554
14.0599997527897 534
14.0799997523427 502
14.0999997518957 468
14.1199997514486 508
14.1399997510016 507
14.1599997505546 478
14.1799997501075 516
14.1999997496605 542
14.2199997492135 526
14.2399997487664 501
14.2599997483194 537
14.2799997478724 565
14.2999997474253 557
14.3199997469783 535
14.3399997465312 509
14.3599997460842 538
14.3799997456372 560
14.3999997451901 560
14.4199997447431 466
14.4399997442961 552
14.459999743849 520
14.479999743402 565
14.499999742955 540
14.5199997425079 548
14.5399997420609 553
14.5599997416139 556
14.5799997411668 561
14.5999997407198 564
14.6199997402728 534
14.6399997398257 515
14.6599997393787 504
14.6799997389317 541
14.6999997384846 528
14.7199997380376 551
14.7399997375906 534
14.7599997371435 528
14.7799997366965 541
14.7999997362494 543
14.8199997358024 550
14.8399997353554 544
14.8599997349083 572
14.8799997344613 554
14.8999997340143 540
14.9199997335672 551
14.9399997331202 528
14.9599997326732 530
14.9799997322261 559
14.9999997317791 530
15.0199997313321 520
15.039999730885 516
15.059999730438 581
15.079999729991 551
15.0999997295439 593
15.1199997290969 554
15.1399997286499 570
15.1599997282028 561
15.1799997277558 558
15.1999997273088 513
15.2199997268617 547
15.2399997264147 541
15.2599997259676 565
15.2799997255206 563
15.2999997250736 576
15.3199997246265 530
15.3399997241795 558
15.3599997237325 554
15.3799997232854 526
15.3999997228384 577
15.4199997223914 546
15.4399997219443 597
15.4599997214973 526
15.4799997210503 532
15.4999997206032 549
15.5199997201562 568
15.5399997197092 582
15.5599997192621 581
15.5799997188151 526
15.5999997183681 586
15.619999717921 575
15.639999717474 588
15.659999717027 551
15.6799997165799 529
15.6999997161329 541
15.7199997156858 549
15.7399997152388 571
15.7599997147918 585
15.7799997143447 575
15.7999997138977 557
15.8199997134507 631
15.8399997130036 555
15.8599997125566 538
15.8799997121096 587
15.8999997116625 583
15.9199997112155 552
15.9399997107685 590
15.9599997103214 592
15.9799997098744 618
15.9999997094274 599
16.0199997089803 616
16.0399997085333 605
16.0599997080863 568
16.0799997076392 571
16.0999997071922 591
16.1199997067451 607
16.1399997062981 587
16.1599997058511 602
16.179999705404 618
16.199999704957 592
16.21999970451 575
16.2399997040629 616
16.2599997036159 595
16.2799997031689 573
16.2999997027218 614
16.3199997022748 615
16.3399997018278 572
16.3599997013807 597
16.3799997009337 596
16.3999997004867 640
16.4199997000396 609
16.4399996995926 632
16.4599996991456 604
16.4799996986985 619
16.4999996982515 601
16.5199996978045 626
16.5399996973574 642
16.5599996969104 642
16.5799996964633 618
16.5999996960163 677
16.6199996955693 610
16.6399996951222 636
16.6599996946752 652
16.6799996942282 622
16.6999996937811 635
16.7199996933341 684
16.7399996928871 674
16.75999969244 666
16.779999691993 648
16.799999691546 670
16.8199996910989 698
16.8399996906519 700
16.8599996902049 768
16.8799996897578 747
16.8999996893108 831
16.9199996888638 828
16.9399996884167 919
16.9599996879697 983
16.9799996875226 1146
16.9999996870756 1384
17.0199996866286 1537
17.0399996861815 1524
17.0599996857345 1447
17.0799996852875 1204
17.0999996848404 1020
17.1199996843934 810
17.1399996839464 758
17.1599996834993 668
17.1799996830523 736
17.1999996826053 729
17.2199996821582 682
17.2399996817112 672
17.2599996812642 655
17.2799996808171 694
17.2999996803701 677
17.3199996799231 668
17.339999679476 683
17.359999679029 733
17.379999678582 734
17.3999996781349 664
17.4199996776879 698
17.4399996772408 711
17.4599996767938 713
17.4799996763468 726
17.4999996758997 717
17.5199996754527 723
17.5399996750057 731
17.5599996745586 731
17.5799996741116 721
17.5999996736646 719
17.6199996732175 673
17.6399996727705 702
17.6599996723235 706
17.6799996718764 651
17.6999996714294 710
17.7199996709824 703
17.7399996705353 659
17.7599996700883 733
17.7799996696413 751
17.7999996691942 702
17.8199996687472 687
17.8399996683002 713
17.8599996678531 711
17.8799996674061 713
17.899999666959 711
17.919999666512 730
17.939999666065 712
17.9599996656179 750
17.9799996651709 748
17.9999996647239 714
18.0199996642768 737
18.0399996638298 699
18.0599996633828 775
18.0799996629357 751
18.0999996624887 720
18.1199996620417 763
18.1399996615946 735
18.1599996611476 716
18.1799996607006 743
18.1999996602535 685
18.2199996598065 695
18.2399996593595 756
18.2599996589124 708
18.2799996584654 690
18.2999996580184 731
18.3199996575713 738
18.3399996571243 765
18.3599996566772 764
18.3799996562302 744
18.3999996557832 792
18.4199996553361 787
18.4399996548891 781
18.4599996544421 739
18.479999653995 813
18.499999653548 757
18.519999653101 786
18.5399996526539 784
18.5599996522069 746
18.5799996517599 811
18.5999996513128 731
18.6199996508658 766
18.6399996504188 776
18.6599996499717 786
18.6799996495247 762
18.6999996490777 789
18.7199996486306 812
18.7399996481836 765
18.7599996477366 807
18.7799996472895 818
18.7999996468425 824
18.8199996463954 812
18.8399996459484 781
18.8599996455014 774
18.8799996450543 745
18.8999996446073 808
18.9199996441603 810
18.9399996437132 796
18.9599996432662 840
18.9799996428192 817
18.9999996423721 777
19.0199996419251 882
19.0399996414781 828
19.059999641031 813
19.079999640584 823
19.099999640137 801
19.1199996396899 841
19.1399996392429 811
19.1599996387959 828
19.1799996383488 869
19.1999996379018 841
19.2199996374547 821
19.2399996370077 821
19.2599996365607 844
19.2799996361136 809
19.2999996356666 852
19.3199996352196 833
19.3399996347725 844
19.3599996343255 878
19.3799996338785 910
19.3999996334314 871
19.4199996329844 898
19.4399996325374 955
19.4599996320903 926
19.4799996316433 878
19.4999996311963 894
19.5199996307492 931
19.5399996303022 900
19.5599996298552 894
19.5799996294081 874
19.5999996289611 915
19.6199996285141 865
19.639999628067 907
19.65999962762 848
19.6799996271729 928
19.6999996267259 886
19.7199996262789 893
19.7399996258318 890
19.7599996253848 858
19.7799996249378 888
19.7999996244907 873
19.8199996240437 867
19.8399996235967 925
19.8599996231496 877
19.8799996227026 943
19.8999996222556 927
19.9199996218085 918
19.9399996213615 875
19.9599996209145 865
19.9799996204674 899
19.9999996200204 917
