3 2553
3.01999999955297 2409
3.03999999910593 2268
3.0599999986589 2304
3.07999999821186 2280
3.09999999776483 2200
3.11999999731779 2129
3.13999999687076 2072
3.15999999642372 2099
3.17999999597669 2011
3.19999999552965 2069
3.21999999508262 2029
3.23999999463558 1977
3.25999999418855 2010
3.27999999374151 1987
3.29999999329448 1956
3.31999999284744 1885
3.33999999240041 1847
3.35999999195337 1819
3.37999999150634 1809
3.3999999910593 1818
3.41999999061227 1785
3.43999999016523 1813
3.4599999897182 1678
3.47999998927116 1700
3.49999998882413 1696
3.51999998837709 1614
3.53999998793006 1600
3.55999998748302 1647
3.57999998703599 1622
3.59999998658895 1657
3.61999998614192 1606
3.63999998569489 1545
3.65999998524785 1525
3.67999998480082 1540
3.69999998435378 1499
3.71999998390675 1550
3.73999998345971 1490
3.75999998301268 1528
3.77999998256564 1443
3.79999998211861 1529
3.81999998167157 1426
3.83999998122454 1449
3.8599999807775 1433
3.87999998033047 1382
3.89999997988343 1354
3.9199999794364 1321
3.93999997898936 1292
3.95999997854233 1324
3.97999997809529 1260
3.99999997764826 1326
4.01999997720122 1285
4.03999997675419 1303
4.05999997630715 1237
4.07999997586012 1221
4.09999997541308 1247
4.11999997496605 1228
4.13999997451901 1219
4.15999997407198 1173
4.17999997362494 1231
4.19999997317791 1240
4.21999997273087 1125
4.23999997228384 1126
4.25999997183681 1172
4.27999997138977 1138
4.29999997094274 1196
4.3199999704957 1120
4.33999997004867 1108
4.35999996960163 1136
4.3799999691546 1099
4.39999996870756 1066
4.41999996826053 1018
4.43999996781349 1051
4.45999996736646 1073
4.47999996691942 1104
4.49999996647239 1060
4.51999996602535 997
4.53999996557832 1039
4.55999996513128 990
4.57999996468425 1022
4.59999996423721 959
4.61999996379018 1000
4.63999996334314 987
4.65999996289611 1020
4.67999996244907 949
4.69999996200204 913
4.719999961555 918
4.73999996110797 953
4.75999996066093 958
4.7799999602139 926
4.79999995976686 888
4.81999995931983 901
4.83999995887279 910
4.85999995842576 902
4.87999995797873 952
4.89999995753169 901
4.91999995708466 885
4.93999995663762 899
4.95999995619059 902
4.97999995574355 872
4.99999995529652 818
5.01999995484948 854
5.03999995440245 869
5.05999995395541 842
5.07999995350838 849
5.09999995306134 834
5.11999995261431 878
5.13999995216727 852
5.15999995172024 819
5.1799999512732 815
5.19999995082617 754
5.21999995037913 744
5.2399999499321 768
5.25999994948506 836
5.27999994903803 833
5.29999994859099 803
5.31999994814396 734
5.33999994769692 786
5.35999994724989 741
5.37999994680285 779
5.39999994635582 781
5.41999994590878 714
5.43999994546175 755
5.45999994501471 728
5.47999994456768 761
5.49999994412065 730
5.51999994367361 746
5.53999994322658 775
5.55999994277954 725
5.57999994233251 742
5.59999994188547 738
5.61999994143844 734
5.6399999409914 732
5.65999994054437 737
5.67999994009733 741
5.6999999396503 696
5.71999993920326 703
5.73999993875623 711
5.75999993830919 728
5.77999993786216 707
5.79999993741512 764
5.81999993696809 687
5.83999993652105 697
5.85999993607402 710
5.87999993562698 687
5.89999993517995 707
5.91999993473291 656
5.93999993428588 780
5.95999993383884 627
5.97999993339181 668
5.99999993294477 709
6.01999993249774 627
6.0399999320507 668
6.05999993160367 651
6.07999993115663 659
6.0999999307096 653
6.11999993026257 686
6.13999992981553 628
6.1599999293685 674
6.17999992892146 651
6.19999992847443 660
6.21999992802739 643
6.23999992758036 624
6.25999992713332 625
6.27999992668629 655
6.29999992623925 614
6.31999992579222 641
6.33999992534518 688
6.35999992489815 661
6.37999992445111 678
6.39999992400408 621
6.41999992355704 602
6.43999992311001 623
6.45999992266297 627
6.47999992221594 639
6.4999999217689 687
6.51999992132187 640
6.53999992087483 643
6.5599999204278 633
6.57999991998076 627
6.59999991953373 598
6.61999991908669 637
6.63999991863966 649
6.65999991819262 619
6.67999991774559 584
6.69999991729855 581
6.71999991685152 596
6.73999991640449 612
6.75999991595745 585
6.77999991551042 626
6.79999991506338 579
6.81999991461635 630
6.83999991416931 623
6.85999991372228 604
6.87999991327524 634
6.89999991282821 566
6.91999991238117 612
6.93999991193414 553
6.9599999114871 598
6.97999991104007 616
6.99999991059303 580
7.019999910146 591
7.03999990969896 604
7.05999990925193 603
7.07999990880489 580
7.09999990835786 623
7.11999990791082 569
7.13999990746379 579
7.15999990701675 613
7.17999990656972 580
7.19999990612268 594
7.21999990567565 578
7.23999990522861 585
7.25999990478158 596
7.27999990433454 567
7.29999990388751 527
7.31999990344047 584
7.33999990299344 557
7.35999990254641 580
7.37999990209937 571
7.39999990165234 560
7.4199999012053 567
7.43999990075827 577
7.45999990031123 553
7.4799998998642 551
7.49999989941716 560
7.51999989897013 556
7.53999989852309 519
7.55999989807606 544
7.57999989762902 555
7.59999989718199 545
7.61999989673495 542
7.63999989628792 529
7.65999989584088 546
7.67999989539385 514
7.69999989494681 529
7.71999989449978 557
7.73999989405274 564
7.75999989360571 544
7.77999989315867 550
7.79999989271164 554
7.8199998922646 530
7.83999989181757 537
7.85999989137053 547
7.8799998909235 483
7.89999989047646 527
7.91999989002943 537
7.9399998895824 508
7.95999988913536 532
7.97999988868833 535
7.99999988824129 527
8.01999988779426 535
8.03999988734722 579
8.05999988690019 559
8.07999988645315 535
8.09999988600612 512
8.11999988555908 544
8.13999988511205 515
8.15999988466501 494
8.17999988421798 513
8.19999988377094 505
8.21999988332391 505
8.23999988287687 515
8.25999988242984 497
8.2799998819828 532
8.29999988153577 539
8.31999988108873 531
8.3399998806417 499
8.35999988019466 526
8.37999987974763 510
8.39999987930059 526
8.41999987885356 517
8.43999987840652 486
8.45999987795949 518
8.47999987751245 486
8.49999987706542 525
8.51999987661839 488
8.53999987617135 508
8.55999987572432 509
8.57999987527728 531
8.59999987483025 483
8.61999987438321 545
8.63999987393618 501
8.65999987348914 491
8.67999987304211 493
8.69999987259507 538
8.71999987214804 476
8.739999871701 475
8.75999987125397 518
8.77999987080693 475
8.7999998703599 507
8.81999986991286 505
8.83999986946583 509
8.85999986901879 478
8.87999986857176 479
8.89999986812472 486
8.91999986767769 505
8.93999986723065 516
8.95999986678362 503
8.97999986633658 497
8.99999986588955 470
9.01999986544251 483
9.03999986499548 486
9.05999986454844 486
9.07999986410141 488
9.09999986365438 498
9.11999986320734 514
9.13999986276031 482
9.15999986231327 425
9.17999986186624 497
9.1999998614192 473
9.21999986097217 487
9.23999986052513 502
9.2599998600781 469
9.27999985963106 528
9.29999985918403 511
9.31999985873699 492
9.33999985828996 461
9.35999985784292 458
9.37999985739589 480
9.39999985694885 461
9.41999985650182 479
9.43999985605478 502
9.45999985560775 502
9.47999985516071 497
9.49999985471368 501
9.51999985426664 556
9.53999985381961 484
9.55999985337257 501
9.57999985292554 514
9.5999998524785 463
9.61999985203147 494
9.63999985158443 480
9.6599998511374 496
9.67999985069037 485
9.69999985024333 483
9.7199998497963 436
9.73999984934926 475
9.75999984890223 490
9.77999984845519 476
9.79999984800816 456
9.81999984756112 441
9.83999984711409 491
9.85999984666705 497
9.87999984622002 468
9.89999984577298 469
9.91999984532595 490
9.93999984487891 476
9.95999984443188 497
9.97999984398484 458
9.99999984353781 502
10.0199998430908 461
10.0399998426437 472
10.0599998421967 469
10.0799998417497 470
10.0999998413026 454
10.1199998408556 503
10.1399998404086 459
10.1599998399615 449
10.1799998395145 502
10.1999998390675 490
10.2199998386204 474
10.2399998381734 491
10.2599998377264 511
10.2799998372793 448
10.2999998368323 454
10.3199998363853 477
10.3399998359382 451
10.3599998354912 479
10.3799998350441 457
10.3999998345971 506
10.4199998341501 450
10.439999833703 497
10.459999833256 442
10.479999832809 451
10.4999998323619 464
10.5199998319149 494
10.5399998314679 482
10.5599998310208 473
10.5799998305738 492
10.5999998301268 474
10.6199998296797 474
10.6399998292327 465
10.6599998287857 462
10.6799998283386 462
10.6999998278916 439
10.7199998274446 439
10.7399998269975 522
10.7599998265505 499
10.7799998261034 459
10.7999998256564 457
10.8199998252094 490
10.8399998247623 442
10.8599998243153 454
10.8799998238683 469
10.8999998234212 472
10.9199998229742 458
10.9399998225272 478
10.9599998220801 454
10.9799998216331 476
10.9999998211861 432
11.019999820739 434
11.039999820292 420
11.059999819845 470
11.0799998193979 442
11.0999998189509 469
11.1199998185039 493
11.1399998180568 507
11.1599998176098 445
11.1799998171628 484
11.1999998167157 447
11.2199998162687 420
11.2399998158216 461
11.2599998153746 495
11.2799998149276 470
11.2999998144805 469
11.3199998140335 479
11.3399998135865 455
11.3599998131394 457
11.3799998126924 483
11.3999998122454 485
11.4199998117983 475
11.4399998113513 495
11.4599998109043 430
11.4799998104572 453
11.4999998100102 458
11.5199998095632 500
11.5399998091161 463
11.5599998086691 483
11.5799998082221 470
11.599999807775 469
11.619999807328 469
11.639999806881 484
11.6599998064339 504
11.6799998059869 485
11.6999998055398 468
11.7199998050928 474
11.7399998046458 459
11.7599998041987 448
11.7799998037517 426
11.7999998033047 522
11.8199998028576 481
11.8399998024106 513
11.8599998019636 452
11.8799998015165 458
11.8999998010695 480
11.9199998006225 483
11.9399998001754 431
11.9599997997284 443
11.9799997992814 442
11.9999997988343 494
12.0199997983873 427
12.0399997979403 479
12.0599997974932 469
12.0799997970462 477
12.0999997965992 475
12.1199997961521 467
12.1399997957051 467
12.159999795258 500
12.179999794811 484
12.199999794364 440
12.2199997939169 456
12.2399997934699 523
12.2599997930229 487
12.2799997925758 495
12.2999997921288 481
12.3199997916818 444
12.3399997912347 479
12.3599997907877 467
12.3799997903407 461
12.3999997898936 490
12.4199997894466 437
12.4399997889996 488
12.4599997885525 439
12.4799997881055 432
12.4999997876585 504
12.5199997872114 473
12.5399997867644 521
12.5599997863173 442
12.5799997858703 479
12.5999997854233 471
12.6199997849762 466
12.6399997845292 469
12.6599997840822 436
12.6799997836351 514
12.6999997831881 513
12.7199997827411 493
12.739999782294 460
12.759999781847 480
12.7799997814 461
12.7999997809529 443
12.8199997805059 443
12.8399997800589 507
12.8599997796118 519
12.8799997791648 474
12.8999997787178 502
12.9199997782707 503
12.9399997778237 497
12.9599997773767 475
12.9799997769296 501
12.9999997764826 505
13.0199997760355 469
13.0399997755885 494
13.0599997751415 478
13.0799997746944 462
13.0999997742474 498
13.1199997738004 486
13.1399997733533 508
13.1599997729063 488
13.1799997724593 532
13.1999997720122 543
13.2199997715652 554
13.2399997711182 543
13.2599997706711 510
13.2799997702241 550
13.2999997697771 536
13.31999976933 532
13.339999768883 488
13.359999768436 483
13.3799997679889 491
13.3999997675419 477
13.4199997670949 476
13.4399997666478 498
13.4599997662008 493
13.4799997657537 471
13.4999997653067 496
13.5199997648597 536
13.5399997644126 539
13.5599997639656 481
13.5799997635186 518
13.5999997630715 484
13.6199997626245 505
13.6399997621775 486
13.6599997617304 497
13.6799997612834 541
13.6999997608364 507
13.7199997603893 517
13.7399997599423 502
13.7599997594953 502
13.7799997590482 504
13.7999997586012 561
13.8199997581542 558
13.8399997577071 519
13.8599997572601 521
13.879999756813 533
13.899999756366 526
13.919999755919 509
13.9399997554719 514
13.9599997550249 543
13.9799997545779 524
13.9999997541308 543
14.0199997536838 534
14.0399997532368 516
14.0599997527897 501
14.0799997523427 520
14.0999997518957 522
14.1199997514486 512
14.1399997510016 518
14.1599997505546 519
14.1799997501075 486
14.1999997496605 499
14.2199997492135 525
14.2399997487664 528
14.2599997483194 503
14.2799997478724 570
14.2999997474253 548
14.3199997469783 539
14.3399997465312 557
14.3599997460842 550
14.3799997456372 515
14.3999997451901 537
14.4199997447431 557
14.4399997442961 563
14.459999743849 530
14.479999743402 541
14.499999742955 547
14.5199997425079 538
14.5399997420609 585
14.5599997416139 596
14.5799997411668 570
14.5999997407198 550
14.6199997402728 544
14.6399997398257 563
14.6599997393787 586
14.6799997389317 539
14.6999997384846 557
14.7199997380376 533
14.7399997375906 540
14.7599997371435 569
14.7799997366965 526
14.7999997362494 525
14.8199997358024 566
14.8399997353554 572
14.8599997349083 562
14.8799997344613 560
14.8999997340143 573
14.9199997335672 538
14.9399997331202 552
14.9599997326732 569
14.9799997322261 571
14.9999997317791 570
15.0199997313321 574
15.039999730885 579
15.059999730438 581
15.079999729991 549
15.0999997295439 543
15.1199997290969 574
15.1399997286499 558
15.1599997282028 548
15.1799997277558 602
15.1999997273088 586
15.2199997268617 551
15.2399997264147 605
15.2599997259676 624
15.2799997255206 583
15.2999997250736 587
15.3199997246265 609
15.3399997241795 590
15.3599997237325 595
15.3799997232854 599
15.3999997228384 585
15.4199997223914 572
15.4399997219443 550
15.4599997214973 576
15.4799997210503 552
15.4999997206032 600
15.5199997201562 632
15.5399997197092 585
15.5599997192621 630
15.5799997188151 641
15.5999997183681 597
15.619999717921 591
15.639999717474 576
15.659999717027 634
15.6799997165799 608
15.6999997161329 599
15.7199997156858 636
15.7399997152388 635
15.7599997147918 621
15.7799997143447 644
15.7999997138977 651
15.8199997134507 629
15.8399997130036 618
15.8599997125566 614
15.8799997121096 632
15.8999997116625 589
15.9199997112155 718
15.9399997107685 614
15.9599997103214 649
15.9799997098744 619
15.9999997094274 648
16.0199997089803 636
16.0399997085333 633
16.0599997080863 648
16.0799997076392 647
16.0999997071922 656
16.1199997067451 611
16.1399997062981 669
16.1599997058511 668
16.179999705404 625
16.199999704957 614
16.21999970451 667
16.2399997040629 650
16.2599997036159 668
16.2799997031689 676
16.2999997027218 725
16.3199997022748 670
16.3399997018278 687
16.3599997013807 640
16.3799997009337 669
16.3999997004867 695
16.4199997000396 688
16.4399996995926 687
16.4599996991456 702
16.4799996986985 687
16.4999996982515 731
16.5199996978045 690
16.5399996973574 725
16.5599996969104 708
16.5799996964633 692
16.5999996960163 776
16.6199996955693 703
16.6399996951222 747
16.6599996946752 766
16.6799996942282 765
16.6999996937811 799
16.7199996933341 800
16.7399996928871 830
16.75999969244 837
16.779999691993 963
16.799999691546 1016
16.8199996910989 979
16.8399996906519 1161
16.8599996902049 1305
16.8799996897578 1430
16.8999996893108 1645
16.9199996888638 1865
16.9399996884167 2142
16.9599996879697 2409
16.9799996875226 2514
16.9999996870756 2593
17.0199996866286 2504
17.0399996861815 2091
17.0599996857345 1837
17.0799996852875 1408
17.0999996848404 1200
17.1199996843934 1087
17.1399996839464 959
17.1599996834993 864
17.1799996830523 817
17.1999996826053 760
17.2199996821582 834
17.2399996817112 798
17.2599996812642 805
17.2799996808171 747
17.2999996803701 817
17.3199996799231 741
17.339999679476 727
17.359999679029 800
17.379999678582 767
17.3999996781349 725
17.4199996776879 791
17.4399996772408 811
17.4599996767938 756
17.4799996763468 801
17.4999996758997 730
17.5199996754527 735
17.5399996750057 819
17.5599996745586 764
17.5799996741116 771
17.5999996736646 799
17.6199996732175 779
17.6399996727705 785
17.6599996723235 803
17.6799996718764 818
17.6999996714294 794
17.7199996709824 769
17.7399996705353 724
17.7599996700883 778
17.7799996696413 813
17.7999996691942 785
17.8199996687472 794
17.8399996683002 864
17.8599996678531 738
17.8799996674061 791
17.899999666959 802
17.919999666512 812
17.939999666065 803
17.9599996656179 783
17.9799996651709 830
17.9999996647239 856
18.0199996642768 854
18.0399996638298 846
18.0599996633828 832
18.0799996629357 791
18.0999996624887 824
18.1199996620417 847
18.1399996615946 833
18.1599996611476 807
18.1799996607006 864
18.1999996602535 841
18.2199996598065 836
18.2399996593595 806
18.2599996589124 869
18.2799996584654 888
18.2999996580184 860
18.3199996575713 882
18.3399996571243 847
18.3599996566772 858
18.3799996562302 873
18.3999996557832 880
18.4199996553361 828
18.4399996548891 908
18.4599996544421 841
18.479999653995 879
18.499999653548 855
18.519999653101 885
18.5399996526539 898
18.5599996522069 875
18.5799996517599 1011
18.5999996513128 853
18.6199996508658 907
18.6399996504188 966
18.6599996499717 891
18.6799996495247 958
18.6999996490777 899
18.7199996486306 892
18.7399996481836 901
18.7599996477366 971
18.7799996472895 920
18.7999996468425 921
18.8199996463954 918
18.8399996459484 936
18.8599996455014 943
18.8799996450543 900
18.8999996446073 891
18.9199996441603 940
18.9399996437132 952
18.9599996432662 976
18.9799996428192 988
18.9999996423721 954
19.0199996419251 939
19.0399996414781 969
19.059999641031 948
19.079999640584 967
19.099999640137 963
19.1199996396899 959
19.1399996392429 974
19.1599996387959 972
19.1799996383488 1002
19.1999996379018 966
19.2199996374547 995
19.2399996370077 986
19.2599996365607 953
19.2799996361136 1029
19.2999996356666 1002
19.3199996352196 946
19.3399996347725 959
19.3599996343255 950
19.3799996338785 974
19.3999996334314 958
19.4199996329844 990
19.4399996325374 980
19.4599996320903 978
19.4799996316433 992
19.4999996311963 944
19.5199996307492 1049
19.5399996303022 986
19.5599996298552 1005
19.5799996294081 962
19.5999996289611 1047
19.6199996285141 1044
19.639999628067 975
19.65999962762 998
19.6799996271729 1053
19.6999996267259 1028
19.7199996262789 1078
19.7399996258318 1032
19.7599996253848 1025
19.7799996249378 1010
19.7999996244907 1054
19.8199996240437 1062
19.8399996235967 1081
19.8599996231496 1046
19.8799996227026 1109
19.8999996222556 1064
19.9199996218085 1033
19.9399996213615 1059
19.9599996209145 1029
19.9799996204674 1057
19.9999996200204 1033
