3 2110
3.01999999955297 1985
3.03999999910593 1978
3.0599999986589 2002
3.07999999821186 1808
3.09999999776483 1828
3.11999999731779 1875
3.13999999687076 1870
3.15999999642372 1900
3.17999999597669 1829
3.19999999552965 1737
3.21999999508262 1749
3.23999999463558 1774
3.25999999418855 1747
3.27999999374151 1670
3.29999999329448 1676
3.31999999284744 1718
3.33999999240041 1561
3.35999999195337 1703
3.37999999150634 1679
3.3999999910593 1565
3.41999999061227 1605
3.43999999016523 1647
3.4599999897182 1592
3.47999998927116 1569
3.49999998882413 1541
3.51999998837709 1535
3.53999998793006 1484
3.55999998748302 1471
3.57999998703599 1480
3.59999998658895 1425
3.61999998614192 1423
3.63999998569489 1398
3.65999998524785 1384
3.67999998480082 1388
3.69999998435378 1357
3.71999998390675 1411
3.73999998345971 1329
3.75999998301268 1395
3.77999998256564 1322
3.79999998211861 1330
3.81999998167157 1303
3.83999998122454 1373
3.8599999807775 1318
3.87999998033047 1322
3.89999997988343 1279
3.9199999794364 1276
3.93999997898936 1304
3.95999997854233 1244
3.97999997809529 1259
3.99999997764826 1258
4.01999997720122 1303
4.03999997675419 1302
4.05999997630715 1277
4.07999997586012 1236
4.09999997541308 1242
4.11999997496605 1224
4.13999997451901 1200
4.15999997407198 1249
4.17999997362494 1191
4.19999997317791 1165
4.21999997273087 1220
4.23999997228384 1174
4.25999997183681 1199
4.27999997138977 1134
4.29999997094274 1188
4.3199999704957 1186
4.33999997004867 1150
4.35999996960163 1151
4.3799999691546 1189
4.39999996870756 1126
4.41999996826053 1110
4.43999996781349 1069
4.45999996736646 1203
4.47999996691942 1143
4.49999996647239 1152
4.51999996602535 1134
4.53999996557832 1105
4.55999996513128 1159
4.57999996468425 1135
4.59999996423721 1176
4.61999996379018 1137
4.63999996334314 1113
4.65999996289611 1125
4.67999996244907 1102
4.69999996200204 1109
4.719999961555 1141
4.73999996110797 1121
4.75999996066093 1112
4.7799999602139 1099
4.79999995976686 1104
4.81999995931983 1064
4.83999995887279 1136
4.85999995842576 1107
4.87999995797873 1073
4.89999995753169 1164
4.91999995708466 1199
4.93999995663762 1133
4.95999995619059 1116
4.97999995574355 1116
4.99999995529652 1178
5.01999995484948 1147
5.03999995440245 1108
5.05999995395541 1174
5.07999995350838 1187
5.09999995306134 1270
5.11999995261431 1240
5.13999995216727 1225
5.15999995172024 1234
5.1799999512732 1263
5.19999995082617 1329
5.21999995037913 1302
5.2399999499321 1347
5.25999994948506 1453
5.27999994903803 1489
5.29999994859099 1487
5.31999994814396 1676
5.33999994769692 1761
5.35999994724989 1866
5.37999994680285 1977
5.39999994635582 2222
5.41999994590878 2413
5.43999994546175 2563
5.45999994501471 2301
5.47999994456768 1916
5.49999994412065 1630
5.51999994367361 1467
5.53999994322658 1351
5.55999994277954 1253
5.57999994233251 1190
5.59999994188547 1153
5.61999994143844 1115
5.6399999409914 1054
5.65999994054437 1035
5.67999994009733 1082
5.6999999396503 1000
5.71999993920326 960
5.73999993875623 946
5.75999993830919 978
5.77999993786216 993
5.79999993741512 903
5.81999993696809 988
5.83999993652105 961
5.85999993607402 922
5.87999993562698 906
5.89999993517995 844
5.91999993473291 870
5.93999993428588 827
5.95999993383884 864
5.97999993339181 836
5.99999993294477 872
6.01999993249774 816
6.0399999320507 832
6.05999993160367 791
6.07999993115663 782
6.0999999307096 802
6.11999993026257 821
6.13999992981553 773
6.1599999293685 764
6.17999992892146 781
6.19999992847443 749
6.21999992802739 774
6.23999992758036 665
6.25999992713332 733
6.27999992668629 713
6.29999992623925 749
6.31999992579222 724
6.33999992534518 737
6.35999992489815 713
6.37999992445111 755
6.39999992400408 759
6.41999992355704 718
6.43999992311001 723
6.45999992266297 739
6.47999992221594 746
6.4999999217689 699
6.51999992132187 719
6.53999992087483 734
6.5599999204278 686
6.57999991998076 677
6.59999991953373 664
6.61999991908669 697
6.63999991863966 703
6.65999991819262 692
6.67999991774559 678
6.69999991729855 618
6.71999991685152 720
6.73999991640449 628
6.75999991595745 704
6.77999991551042 644
6.79999991506338 599
6.81999991461635 675
6.83999991416931 670
6.85999991372228 690
6.87999991327524 701
6.89999991282821 677
6.91999991238117 612
6.93999991193414 658
6.9599999114871 617
6.97999991104007 617
6.99999991059303 651
7.019999910146 618
7.03999990969896 640
7.05999990925193 649
7.07999990880489 622
7.09999990835786 621
7.11999990791082 602
7.13999990746379 610
7.15999990701675 629
7.17999990656972 622
7.19999990612268 669
7.21999990567565 630
7.23999990522861 620
7.25999990478158 592
7.27999990433454 640
7.29999990388751 612
7.31999990344047 632
7.33999990299344 609
7.35999990254641 624
7.37999990209937 587
7.39999990165234 612
7.4199999012053 685
7.43999990075827 606
7.45999990031123 622
7.4799998998642 627
7.49999989941716 630
7.51999989897013 587
7.53999989852309 612
7.55999989807606 614
7.57999989762902 596
7.59999989718199 609
7.61999989673495 590
7.63999989628792 599
7.65999989584088 616
7.67999989539385 522
7.69999989494681 662
7.71999989449978 626
7.73999989405274 601
7.75999989360571 622
7.77999989315867 589
7.79999989271164 618
7.8199998922646 572
7.83999989181757 559
7.85999989137053 554
7.8799998909235 600
7.89999989047646 623
7.91999989002943 586
7.9399998895824 619
7.95999988913536 584
7.97999988868833 609
7.99999988824129 566
8.01999988779426 598
8.03999988734722 531
8.05999988690019 587
8.07999988645315 550
8.09999988600612 570
8.11999988555908 581
8.13999988511205 594
8.15999988466501 555
8.17999988421798 603
8.19999988377094 561
8.21999988332391 560
8.23999988287687 553
8.25999988242984 562
8.2799998819828 582
8.29999988153577 584
8.31999988108873 576
8.3399998806417 576
8.35999988019466 591
8.37999987974763 566
8.39999987930059 567
8.41999987885356 599
8.43999987840652 568
8.45999987795949 558
8.47999987751245 569
8.49999987706542 584
8.51999987661839 597
8.53999987617135 576
8.55999987572432 545
8.57999987527728 592
8.59999987483025 535
8.61999987438321 567
8.63999987393618 585
8.65999987348914 526
8.67999987304211 590
8.69999987259507 593
8.71999987214804 547
8.739999871701 548
8.75999987125397 567
8.77999987080693 563
8.7999998703599 570
8.81999986991286 595
8.83999986946583 556
8.85999986901879 552
8.87999986857176 597
8.89999986812472 548
8.91999986767769 594
8.93999986723065 613
8.95999986678362 554
8.97999986633658 574
8.99999986588955 558
9.01999986544251 588
9.03999986499548 547
9.05999986454844 577
9.07999986410141 641
9.09999986365438 651
9.11999986320734 673
9.13999986276031 625
9.15999986231327 656
9.17999986186624 648
9.1999998614192 683
9.21999986097217 689
9.23999986052513 722
9.2599998600781 705
9.27999985963106 819
9.29999985918403 822
9.31999985873699 938
9.33999985828996 958
9.35999985784292 989
9.37999985739589 940
9.39999985694885 844
9.41999985650182 751
9.43999985605478 626
9.45999985560775 591
9.47999985516071 621
9.49999985471368 620
9.51999985426664 605
9.53999985381961 575
9.55999985337257 572
9.57999985292554 610
9.5999998524785 564
9.61999985203147 553
9.63999985158443 562
9.6599998511374 568
9.67999985069037 550
9.69999985024333 566
9.7199998497963 528
9.73999984934926 531
9.75999984890223 571
9.77999984845519 562
9.79999984800816 571
9.81999984756112 531
9.83999984711409 553
9.85999984666705 525
9.87999984622002 539
9.89999984577298 581
9.91999984532595 521
9.93999984487891 554
9.95999984443188 526
9.97999984398484 541
9.99999984353781 569
10.0199998430908 575
10.0399998426437 542
10.0599998421967 544
10.0799998417497 534
10.0999998413026 560
10.1199998408556 550
10.1399998404086 541
10.1599998399615 532
10.1799998395145 549
10.1999998390675 542
10.2199998386204 539
10.2399998381734 552
10.2599998377264 556
10.2799998372793 517
10.2999998368323 535
10.3199998363853 549
10.3399998359382 538
10.3599998354912 550
10.3799998350441 551
10.3999998345971 528
10.4199998341501 530
10.439999833703 500
10.459999833256 506
10.479999832809 531
10.4999998323619 528
10.5199998319149 543
10.5399998314679 600
10.5599998310208 579
10.5799998305738 516
10.5999998301268 505
10.6199998296797 539
10.6399998292327 562
10.6599998287857 574
10.6799998283386 589
10.6999998278916 642
10.7199998274446 687
10.7399998269975 663
10.7599998265505 755
10.7799998261034 729
10.7999998256564 757
10.8199998252094 743
10.8399998247623 707
10.8599998243153 674
10.8799998238683 607
10.8999998234212 635
10.9199998229742 597
10.9399998225272 557
10.9599998220801 613
10.9799998216331 597
10.9999998211861 633
11.019999820739 559
11.039999820292 557
11.059999819845 579
11.0799998193979 548
11.0999998189509 556
11.1199998185039 540
11.1399998180568 555
11.1599998176098 590
11.1799998171628 583
11.1999998167157 534
11.2199998162687 556
11.2399998158216 515
11.2599998153746 563
11.2799998149276 493
11.2999998144805 519
11.3199998140335 514
11.3399998135865 559
11.3599998131394 545
11.3799998126924 515
11.3999998122454 500
11.4199998117983 505
11.4399998113513 526
11.4599998109043 531
11.4799998104572 532
11.4999998100102 513
11.5199998095632 551
11.5399998091161 531
11.5599998086691 544
11.5799998082221 543
11.599999807775 512
11.619999807328 533
11.639999806881 537
11.6599998064339 516
11.6799998059869 518
11.6999998055398 547
11.7199998050928 550
11.7399998046458 506
11.7599998041987 542
11.7799998037517 529
11.7999998033047 536
11.8199998028576 543
11.8399998024106 507
11.8599998019636 552
11.8799998015165 550
11.8999998010695 548
11.9199998006225 513
11.9399998001754 519
11.9599997997284 540
11.9799997992814 579
11.9999997988343 505
12.0199997983873 520
12.0399997979403 518
12.0599997974932 495
12.0799997970462 519
12.0999997965992 529
12.1199997961521 498
12.1399997957051 564
12.159999795258 533
12.179999794811 555
12.199999794364 583
12.2199997939169 508
12.2399997934699 563
12.2599997930229 520
12.2799997925758 558
12.2999997921288 541
12.3199997916818 568
12.3399997912347 526
12.3599997907877 544
12.3799997903407 548
12.3999997898936 490
12.4199997894466 542
12.4399997889996 548
12.4599997885525 507
12.4799997881055 534
12.4999997876585 535
12.5199997872114 582
12.5399997867644 538
12.5599997863173 537
12.5799997858703 551
12.5999997854233 526
12.6199997849762 553
12.6399997845292 552
12.6599997840822 579
12.6799997836351 556
12.6999997831881 583
12.7199997827411 523
12.739999782294 577
12.759999781847 563
12.7799997814 565
12.7999997809529 533
12.8199997805059 533
12.8399997800589 563
12.8599997796118 543
12.8799997791648 510
12.8999997787178 551
12.9199997782707 586
12.9399997778237 600
12.9599997773767 546
12.9799997769296 531
12.9999997764826 535
13.0199997760355 595
13.0399997755885 533
13.0599997751415 528
13.0799997746944 539
13.0999997742474 549
13.1199997738004 550
13.1399997733533 522
13.1599997729063 577
13.1799997724593 606
13.1999997720122 541
13.2199997715652 565
13.2399997711182 551
13.2599997706711 587
13.2799997702241 559
13.2999997697771 555
13.31999976933 584
13.339999768883 569
13.359999768436 572
13.3799997679889 588
13.3999997675419 558
13.4199997670949 560
13.4399997666478 578
13.4599997662008 558
13.4799997657537 538
13.4999997653067 602
13.5199997648597 562
13.5399997644126 651
13.5599997639656 515
13.5799997635186 554
13.5999997630715 536
13.6199997626245 568
13.6399997621775 568
13.6599997617304 568
13.6799997612834 559
13.6999997608364 570
13.7199997603893 596
13.7399997599423 603
13.7599997594953 557
13.7799997590482 553
13.7999997586012 553
13.8199997581542 626
13.8399997577071 597
13.8599997572601 560
13.879999756813 584
13.899999756366 605
13.919999755919 589
13.9399997554719 562
13.9599997550249 591
13.9799997545779 604
13.9999997541308 613
14.0199997536838 575
14.0399997532368 574
14.0599997527897 575
14.0799997523427 598
14.0999997518957 625
14.1199997514486 578
14.1399997510016 599
14.1599997505546 602
14.1799997501075 624
14.1999997496605 585
14.2199997492135 610
14.2399997487664 585
14.2599997483194 610
14.2799997478724 614
14.2999997474253 629
14.3199997469783 617
14.3399997465312 601
14.3599997460842 607
14.3799997456372 644
14.3999997451901 605
14.4199997447431 605
14.4399997442961 590
14.459999743849 599
14.479999743402 629
14.499999742955 567
14.5199997425079 628
14.5399997420609 624
14.5599997416139 593
14.5799997411668 561
14.5999997407198 617
14.6199997402728 631
14.6399997398257 617
14.6599997393787 620
14.6799997389317 675
14.6999997384846 614
14.7199997380376 603
14.7399997375906 641
14.7599997371435 585
14.7799997366965 606
14.7999997362494 616
14.8199997358024 616
14.8399997353554 574
14.8599997349083 611
14.8799997344613 647
14.8999997340143 590
14.9199997335672 628
14.9399997331202 614
14.9599997326732 668
14.9799997322261 649
14.9999997317791 613
15.0199997313321 642
15.039999730885 617
15.059999730438 649
15.079999729991 611
15.0999997295439 583
15.1199997290969 582
15.1399997286499 582
15.1599997282028 606
15.1799997277558 630
15.1999997273088 640
15.2199997268617 630
15.2399997264147 636
15.2599997259676 643
15.2799997255206 671
15.2999997250736 635
15.3199997246265 647
15.3399997241795 642
15.3599997237325 646
15.3799997232854 665
15.3999997228384 655
15.4199997223914 646
15.4399997219443 694
15.4599997214973 640
15.4799997210503 654
15.4999997206032 648
15.5199997201562 614
15.5399997197092 672
15.5599997192621 669
15.5799997188151 721
15.5999997183681 651
15.619999717921 674
15.639999717474 651
15.659999717027 663
15.6799997165799 662
15.6999997161329 643
15.7199997156858 664
15.7399997152388 659
15.7599997147918 642
15.7799997143447 696
15.7999997138977 701
15.8199997134507 699
15.8399997130036 659
15.8599997125566 664
15.8799997121096 666
15.8999997116625 662
15.9199997112155 671
15.9399997107685 697
15.9599997103214 692
15.9799997098744 693
15.9999997094274 682
16.0199997089803 703
16.0399997085333 674
16.0599997080863 719
16.0799997076392 700
16.0999997071922 700
16.1199997067451 751
16.1399997062981 663
16.1599997058511 716
16.179999705404 710
16.199999704957 674
16.21999970451 706
16.2399997040629 703
16.2599997036159 712
16.2799997031689 700
16.2999997027218 685
16.3199997022748 700
16.3399997018278 716
16.3599997013807 703
16.3799997009337 720
16.3999997004867 711
16.4199997000396 687
16.4399996995926 733
16.4599996991456 728
16.4799996986985 702
16.4999996982515 736
16.5199996978045 710
16.5399996973574 697
16.5599996969104 711
16.5799996964633 753
16.5999996960163 763
16.6199996955693 730
16.6399996951222 801
16.6599996946752 821
16.6799996942282 767
16.6999996937811 787
16.7199996933341 767
16.7399996928871 753
16.75999969244 755
16.779999691993 795
16.799999691546 810
16.8199996910989 846
16.8399996906519 845
16.8599996902049 897
16.8799996897578 887
16.8999996893108 908
16.9199996888638 1089
16.9399996884167 1167
16.9599996879697 1283
16.9799996875226 1510
16.9999996870756 1854
17.0199996866286 2054
17.0399996861815 1893
17.0599996857345 1688
17.0799996852875 1395
17.0999996848404 1171
17.1199996843934 1010
17.1399996839464 920
17.1599996834993 908
17.1799996830523 857
17.1999996826053 805
17.2199996821582 800
17.2399996817112 781
17.2599996812642 852
17.2799996808171 775
17.2999996803701 844
17.3199996799231 815
17.339999679476 798
17.359999679029 787
17.379999678582 807
17.3999996781349 812
17.4199996776879 833
17.4399996772408 863
17.4599996767938 810
17.4799996763468 817
17.4999996758997 826
17.5199996754527 871
17.5399996750057 846
17.5599996745586 868
17.5799996741116 837
17.5999996736646 858
17.6199996732175 830
17.6399996727705 833
17.6599996723235 856
17.6799996718764 813
17.6999996714294 865
17.7199996709824 870
17.7399996705353 863
17.7599996700883 829
17.7799996696413 856
17.7999996691942 845
17.8199996687472 843
17.8399996683002 874
17.8599996678531 832
17.8799996674061 874
17.899999666959 849
17.919999666512 834
17.939999666065 857
17.9599996656179 906
17.9799996651709 876
17.9999996647239 855
18.0199996642768 875
18.0399996638298 826
18.0599996633828 845
18.0799996629357 890
18.0999996624887 913
18.1199996620417 871
18.1399996615946 921
18.1599996611476 860
18.1799996607006 902
18.1999996602535 875
18.2199996598065 938
18.2399996593595 891
18.2599996589124 901
18.2799996584654 914
18.2999996580184 900
18.3199996575713 882
18.3399996571243 858
18.3599996566772 881
18.3799996562302 923
18.3999996557832 880
18.4199996553361 925
18.4399996548891 901
18.4599996544421 907
18.479999653995 921
18.499999653548 988
18.519999653101 915
18.5399996526539 954
18.5599996522069 932
18.5799996517599 919
18.5999996513128 917
18.6199996508658 972
18.6399996504188 956
18.6599996499717 954
18.6799996495247 918
18.6999996490777 992
18.7199996486306 1031
18.7399996481836 980
18.7599996477366 979
18.7799996472895 941
18.7999996468425 972
18.8199996463954 895
18.8399996459484 996
18.8599996455014 961
18.8799996450543 1040
18.8999996446073 1049
18.9199996441603 1003
18.9399996437132 949
18.9599996432662 968
18.9799996428192 991
18.9999996423721 983
19.0199996419251 974
19.0399996414781 949
19.059999641031 990
19.079999640584 1057
19.099999640137 1013
19.1199996396899 1013
19.1399996392429 1027
19.1599996387959 985
19.1799996383488 1013
19.1999996379018 1002
19.2199996374547 1020
19.2399996370077 1015
19.2599996365607 1008
19.2799996361136 1070
19.2999996356666 1053
19.3199996352196 1064
19.3399996347725 1076
19.3599996343255 1056
19.3799996338785 1093
19.3999996334314 1082
19.4199996329844 1146
19.4399996325374 1116
19.4599996320903 1035
19.4799996316433 1128
19.4999996311963 1110
19.5199996307492 1094
19.5399996303022 1189
19.5599996298552 1079
19.5799996294081 1120
19.5999996289611 1070
19.6199996285141 1103
19.639999628067 1058
19.65999962762 1071
19.6799996271729 1053
19.6999996267259 1069
19.7199996262789 1109
19.7399996258318 1027
19.7599996253848 1058
19.7799996249378 1108
19.7999996244907 1108
19.8199996240437 1098
19.8399996235967 1042
19.8599996231496 1106
19.8799996227026 1116
19.8999996222556 1092
19.9199996218085 1127
19.9399996213615 1100
19.9599996209145 1131
19.9799996204674 1154
19.9999996200204 1126
