3 395
3.01999999955297 428
3.03999999910593 360
3.0599999986589 358
3.07999999821186 361
3.09999999776483 334
3.11999999731779 324
3.13999999687076 348
3.15999999642372 360
3.17999999597669 354
3.19999999552965 348
3.21999999508262 275
3.23999999463558 343
3.25999999418855 321
3.27999999374151 308
3.29999999329448 329
3.31999999284744 310
3.33999999240041 321
3.35999999195337 343
3.37999999150634 342
3.3999999910593 346
3.41999999061227 344
3.43999999016523 355
3.4599999897182 301
3.47999998927116 317
3.49999998882413 328
3.51999998837709 337
3.53999998793006 319
3.55999998748302 348
3.57999998703599 308
3.59999998658895 360
3.61999998614192 338
3.63999998569489 340
3.65999998524785 348
3.67999998480082 368
3.69999998435378 347
3.71999998390675 319
3.73999998345971 338
3.75999998301268 347
3.77999998256564 344
3.79999998211861 373
3.81999998167157 347
3.83999998122454 346
3.8599999807775 360
3.87999998033047 366
3.89999997988343 364
3.9199999794364 366
3.93999997898936 346
3.95999997854233 363
3.97999997809529 361
3.99999997764826 428
4.01999997720122 378
4.03999997675419 354
4.05999997630715 386
4.07999997586012 369
4.09999997541308 371
4.11999997496605 381
4.13999997451901 397
4.15999997407198 351
4.17999997362494 382
4.19999997317791 386
4.21999997273087 379
4.23999997228384 400
4.25999997183681 396
4.27999997138977 399
4.29999997094274 405
4.3199999704957 380
4.33999997004867 394
4.35999996960163 408
4.3799999691546 382
4.39999996870756 384
4.41999996826053 426
4.43999996781349 422
4.45999996736646 436
4.47999996691942 413
4.49999996647239 424
4.51999996602535 426
4.53999996557832 440
4.55999996513128 423
4.57999996468425 397
4.59999996423721 432
4.61999996379018 429
4.63999996334314 427
4.65999996289611 430
4.67999996244907 413
4.69999996200204 417
4.719999961555 425
4.73999996110797 432
4.75999996066093 458
4.7799999602139 507
4.79999995976686 441
4.81999995931983 466
4.83999995887279 469
4.85999995842576 464
4.87999995797873 425
4.89999995753169 455
4.91999995708466 423
4.93999995663762 495
4.95999995619059 455
4.97999995574355 492
4.99999995529652 439
5.01999995484948 459
5.03999995440245 453
5.05999995395541 459
5.07999995350838 484
5.09999995306134 437
5.11999995261431 444
5.13999995216727 497
5.15999995172024 492
5.1799999512732 459
5.19999995082617 489
5.21999995037913 445
5.2399999499321 454
5.25999994948506 479
5.27999994903803 455
5.29999994859099 473
5.31999994814396 468
5.33999994769692 432
5.35999994724989 470
5.37999994680285 461
5.39999994635582 519
5.41999994590878 494
5.43999994546175 478
5.45999994501471 491
5.47999994456768 484
5.49999994412065 486
5.51999994367361 501
5.53999994322658 531
5.55999994277954 496
5.57999994233251 529
5.59999994188547 515
5.61999994143844 525
5.6399999409914 556
5.65999994054437 518
5.67999994009733 486
5.6999999396503 531
5.71999993920326 503
5.73999993875623 533
5.75999993830919 505
5.77999993786216 448
5.79999993741512 443
5.81999993696809 427
5.83999993652105 413
5.85999993607402 427
5.87999993562698 409
5.89999993517995 350
5.91999993473291 352
5.93999993428588 336
5.95999993383884 330
5.97999993339181 339
5.99999993294477 323
6.01999993249774 314
6.0399999320507 307
6.05999993160367 306
6.07999993115663 290
6.0999999307096 275
6.11999993026257 291
6.13999992981553 321
6.1599999293685 316
6.17999992892146 292
6.19999992847443 272
6.21999992802739 281
6.23999992758036 289
6.25999992713332 292
6.27999992668629 276
6.29999992623925 261
6.31999992579222 273
6.33999992534518 238
6.35999992489815 275
6.37999992445111 273
6.39999992400408 263
6.41999992355704 245
6.43999992311001 252
6.45999992266297 253
6.47999992221594 266
6.4999999217689 267
6.51999992132187 271
6.53999992087483 237
6.5599999204278 276
6.57999991998076 293
6.59999991953373 261
6.61999991908669 244
6.63999991863966 222
6.65999991819262 259
6.67999991774559 232
6.69999991729855 247
6.71999991685152 216
6.73999991640449 249
6.75999991595745 234
6.77999991551042 248
6.79999991506338 231
6.81999991461635 240
6.83999991416931 263
6.85999991372228 241
6.87999991327524 226
6.89999991282821 214
6.91999991238117 206
6.93999991193414 224
6.9599999114871 241
6.97999991104007 225
6.99999991059303 262
7.019999910146 237
7.03999990969896 220
7.05999990925193 215
7.07999990880489 256
7.09999990835786 220
7.11999990791082 213
7.13999990746379 222
7.15999990701675 253
7.17999990656972 200
7.19999990612268 215
7.21999990567565 219
7.23999990522861 223
7.25999990478158 228
7.27999990433454 243
7.29999990388751 202
7.31999990344047 217
7.33999990299344 192
7.35999990254641 195
7.37999990209937 202
7.39999990165234 248
7.4199999012053 231
7.43999990075827 221
7.45999990031123 212
7.4799998998642 228
7.49999989941716 229
7.51999989897013 224
7.53999989852309 221
7.55999989807606 195
7.57999989762902 236
7.59999989718199 237
7.61999989673495 229
7.63999989628792 217
7.65999989584088 179
7.67999989539385 227
7.69999989494681 241
7.71999989449978 232
7.73999989405274 199
7.75999989360571 212
7.77999989315867 228
7.79999989271164 212
7.8199998922646 197
7.83999989181757 206
7.85999989137053 218
7.8799998909235 213
7.89999989047646 202
7.91999989002943 226
7.9399998895824 222
7.95999988913536 200
7.97999988868833 192
7.99999988824129 194
8.01999988779426 197
8.03999988734722 216
8.05999988690019 219
8.07999988645315 196
8.09999988600612 191
8.11999988555908 199
8.13999988511205 211
8.15999988466501 236
8.17999988421798 226
8.19999988377094 222
8.21999988332391 183
8.23999988287687 217
8.25999988242984 199
8.2799998819828 201
8.29999988153577 202
8.31999988108873 198
8.3399998806417 194
8.35999988019466 208
8.37999987974763 213
8.39999987930059 212
8.41999987885356 184
8.43999987840652 207
8.45999987795949 226
8.47999987751245 227
8.49999987706542 199
8.51999987661839 213
8.53999987617135 194
8.55999987572432 211
8.57999987527728 204
8.59999987483025 212
8.61999987438321 217
8.63999987393618 204
8.65999987348914 191
8.67999987304211 206
8.69999987259507 189
8.71999987214804 214
8.739999871701 205
8.75999987125397 187
8.77999987080693 173
8.7999998703599 188
8.81999986991286 211
8.83999986946583 214
8.85999986901879 194
8.87999986857176 212
8.89999986812472 205
8.91999986767769 207
8.93999986723065 191
8.95999986678362 211
8.97999986633658 224
8.99999986588955 206
9.01999986544251 223
9.03999986499548 195
9.05999986454844 186
9.07999986410141 210
9.09999986365438 200
9.11999986320734 186
9.13999986276031 201
9.15999986231327 186
9.17999986186624 192
9.1999998614192 194
9.21999986097217 199
9.23999986052513 198
9.2599998600781 200
9.27999985963106 198
9.29999985918403 209
9.31999985873699 198
9.33999985828996 216
9.35999985784292 220
9.37999985739589 213
9.39999985694885 194
9.41999985650182 231
9.43999985605478 203
9.45999985560775 196
9.47999985516071 206
9.49999985471368 264
9.51999985426664 202
9.53999985381961 216
9.55999985337257 218
9.57999985292554 218
9.5999998524785 228
9.61999985203147 217
9.63999985158443 214
9.6599998511374 232
9.67999985069037 224
9.69999985024333 193
9.7199998497963 206
9.73999984934926 212
9.75999984890223 194
9.77999984845519 192
9.79999984800816 201
9.81999984756112 205
9.83999984711409 195
9.85999984666705 196
9.87999984622002 182
9.89999984577298 213
9.91999984532595 187
9.93999984487891 204
9.95999984443188 176
9.97999984398484 187
9.99999984353781 191
10.0199998430908 181
10.0399998426437 157
10.0599998421967 179
10.0799998417497 210
10.0999998413026 222
10.1199998408556 184
10.1399998404086 199
10.1599998399615 174
10.1799998395145 171
10.1999998390675 168
10.2199998386204 182
10.2399998381734 189
10.2599998377264 160
10.2799998372793 192
10.2999998368323 188
10.3199998363853 171
10.3399998359382 175
10.3599998354912 186
10.3799998350441 168
10.3999998345971 175
10.4199998341501 182
10.439999833703 168
10.459999833256 169
10.479999832809 184
10.4999998323619 169
10.5199998319149 179
10.5399998314679 190
10.5599998310208 201
10.5799998305738 193
10.5999998301268 209
10.6199998296797 168
10.6399998292327 182
10.6599998287857 189
10.6799998283386 183
10.6999998278916 187
10.7199998274446 196
10.7399998269975 181
10.7599998265505 190
10.7799998261034 182
10.7999998256564 175
10.8199998252094 178
10.8399998247623 189
10.8599998243153 185
10.8799998238683 167
10.8999998234212 184
10.9199998229742 163
10.9399998225272 158
10.9599998220801 191
10.9799998216331 206
10.9999998211861 171
11.019999820739 161
11.039999820292 180
11.059999819845 193
11.0799998193979 172
11.0999998189509 168
11.1199998185039 160
11.1399998180568 199
11.1599998176098 187
11.1799998171628 183
11.1999998167157 183
11.2199998162687 177
11.2399998158216 182
11.2599998153746 180
11.2799998149276 170
11.2999998144805 187
11.3199998140335 168
11.3399998135865 164
11.3599998131394 178
11.3799998126924 201
11.3999998122454 174
11.4199998117983 175
11.4399998113513 160
11.4599998109043 169
11.4799998104572 179
11.4999998100102 157
11.5199998095632 168
11.5399998091161 193
11.5599998086691 150
11.5799998082221 160
11.599999807775 178
11.619999807328 164
11.639999806881 159
11.6599998064339 182
11.6799998059869 169
11.6999998055398 176
11.7199998050928 144
11.7399998046458 147
11.7599998041987 145
11.7799998037517 155
11.7999998033047 171
11.8199998028576 175
11.8399998024106 169
11.8599998019636 165
11.8799998015165 180
11.8999998010695 189
11.9199998006225 185
11.9399998001754 148
11.9599997997284 168
11.9799997992814 170
11.9999997988343 164
12.0199997983873 172
12.0399997979403 170
12.0599997974932 163
12.0799997970462 195
12.0999997965992 168
12.1199997961521 182
12.1399997957051 153
12.159999795258 158
12.179999794811 152
12.199999794364 158
12.2199997939169 172
12.2399997934699 168
12.2599997930229 176
12.2799997925758 141
12.2999997921288 161
12.3199997916818 157
12.3399997912347 157
12.3599997907877 168
12.3799997903407 176
12.3999997898936 179
12.4199997894466 149
12.4399997889996 154
12.4599997885525 175
12.4799997881055 176
12.4999997876585 158
12.5199997872114 158
12.5399997867644 165
12.5599997863173 154
12.5799997858703 172
12.5999997854233 169
12.6199997849762 147
12.6399997845292 187
12.6599997840822 164
12.6799997836351 154
12.6999997831881 172
12.7199997827411 176
12.739999782294 166
12.759999781847 169
12.7799997814 158
12.7999997809529 141
12.8199997805059 143
12.8399997800589 176
12.8599997796118 162
12.8799997791648 196
12.8999997787178 177
12.9199997782707 176
12.9399997778237 174
12.9599997773767 149
12.9799997769296 166
12.9999997764826 140
13.0199997760355 162
13.0399997755885 129
13.0599997751415 174
13.0799997746944 170
13.0999997742474 167
13.1199997738004 155
13.1399997733533 166
13.1599997729063 191
13.1799997724593 175
13.1999997720122 175
13.2199997715652 164
13.2399997711182 199
13.2599997706711 168
13.2799997702241 174
13.2999997697771 196
13.31999976933 150
13.339999768883 159
13.359999768436 172
13.3799997679889 149
13.3999997675419 151
13.4199997670949 171
13.4399997666478 162
13.4599997662008 161
13.4799997657537 174
13.4999997653067 172
13.5199997648597 170
13.5399997644126 171
13.5599997639656 177
13.5799997635186 170
13.5999997630715 177
13.6199997626245 161
13.6399997621775 180
13.6599997617304 175
13.6799997612834 162
13.6999997608364 175
13.7199997603893 148
13.7399997599423 166
13.7599997594953 166
13.7799997590482 145
13.7999997586012 138
13.8199997581542 156
13.8399997577071 145
13.8599997572601 153
13.879999756813 154
13.899999756366 153
13.919999755919 174
13.9399997554719 176
13.9599997550249 160
13.9799997545779 178
13.9999997541308 181
14.0199997536838 175
14.0399997532368 168
14.0599997527897 163
14.0799997523427 182
14.0999997518957 160
14.1199997514486 182
14.1399997510016 163
14.1599997505546 158
14.1799997501075 143
14.1999997496605 176
14.2199997492135 163
14.2399997487664 158
14.2599997483194 166
14.2799997478724 168
14.2999997474253 174
14.3199997469783 163
14.3399997465312 171
14.3599997460842 163
14.3799997456372 178
14.3999997451901 161
14.4199997447431 161
14.4399997442961 164
14.459999743849 173
14.479999743402 187
14.499999742955 147
14.5199997425079 163
14.5399997420609 170
14.5599997416139 160
14.5799997411668 160
14.5999997407198 173
14.6199997402728 178
14.6399997398257 172
14.6599997393787 149
14.6799997389317 169
14.6999997384846 171
14.7199997380376 161
14.7399997375906 172
14.7599997371435 158
14.7799997366965 162
14.7999997362494 168
14.8199997358024 173
14.8399997353554 170
14.8599997349083 148
14.8799997344613 149
14.8999997340143 155
14.9199997335672 142
14.9399997331202 163
14.9599997326732 145
14.9799997322261 164
14.9999997317791 152
15.0199997313321 172
15.039999730885 149
15.059999730438 151
15.079999729991 162
15.0999997295439 177
15.1199997290969 161
15.1399997286499 144
15.1599997282028 142
15.1799997277558 157
15.1999997273088 152
15.2199997268617 172
15.2399997264147 165
15.2599997259676 168
15.2799997255206 151
15.2999997250736 170
15.3199997246265 186
15.3399997241795 155
15.3599997237325 152
15.3799997232854 189
15.3999997228384 156
15.4199997223914 180
15.4399997219443 180
15.4599997214973 165
15.4799997210503 175
15.4999997206032 180
15.5199997201562 146
15.5399997197092 153
15.5599997192621 186
15.5799997188151 174
15.5999997183681 160
15.619999717921 169
15.639999717474 160
15.659999717027 152
15.6799997165799 156
15.6999997161329 162
15.7199997156858 184
15.7399997152388 171
15.7599997147918 154
15.7799997143447 181
15.7999997138977 185
15.8199997134507 166
15.8399997130036 147
15.8599997125566 167
15.8799997121096 183
15.8999997116625 184
15.9199997112155 158
15.9399997107685 175
15.9599997103214 164
15.9799997098744 185
15.9999997094274 172
16.0199997089803 183
16.0399997085333 166
16.0599997080863 166
16.0799997076392 187
16.0999997071922 174
16.1199997067451 172
16.1399997062981 156
16.1599997058511 167
16.179999705404 144
16.199999704957 185
16.21999970451 187
16.2399997040629 180
16.2599997036159 157
16.2799997031689 189
16.2999997027218 163
16.3199997022748 165
16.3399997018278 170
16.3599997013807 184
16.3799997009337 190
16.3999997004867 159
16.4199997000396 154
16.4399996995926 180
16.4599996991456 189
16.4799996986985 154
16.4999996982515 177
16.5199996978045 203
16.5399996973574 163
16.5599996969104 171
16.5799996964633 167
16.5999996960163 179
16.6199996955693 184
16.6399996951222 171
16.6599996946752 190
16.6799996942282 183
16.6999996937811 194
16.7199996933341 184
16.7399996928871 178
16.75999969244 170
16.779999691993 173
16.799999691546 187
16.8199996910989 198
16.8399996906519 172
16.8599996902049 200
16.8799996897578 194
16.8999996893108 191
16.9199996888638 183
16.9399996884167 192
16.9599996879697 175
16.9799996875226 195
16.9999996870756 185
17.0199996866286 188
17.0399996861815 208
17.0599996857345 203
17.0799996852875 189
17.0999996848404 177
17.1199996843934 173
17.1399996839464 205
17.1599996834993 206
17.1799996830523 208
17.1999996826053 211
17.2199996821582 215
17.2399996817112 221
17.2599996812642 224
17.2799996808171 238
17.2999996803701 215
17.3199996799231 232
17.339999679476 231
17.359999679029 218
17.379999678582 207
17.3999996781349 205
17.4199996776879 205
17.4399996772408 186
17.4599996767938 192
17.4799996763468 179
17.4999996758997 179
17.5199996754527 167
17.5399996750057 159
17.5599996745586 186
17.5799996741116 209
17.5999996736646 188
17.6199996732175 181
17.6399996727705 164
17.6599996723235 199
17.6799996718764 186
17.6999996714294 168
17.7199996709824 181
17.7399996705353 178
17.7599996700883 196
17.7799996696413 180
17.7999996691942 190
17.8199996687472 199
17.8399996683002 189
17.8599996678531 177
17.8799996674061 200
17.899999666959 166
17.919999666512 199
17.939999666065 179
17.9599996656179 198
17.9799996651709 190
17.9999996647239 190
18.0199996642768 207
18.0399996638298 196
18.0599996633828 183
18.0799996629357 180
18.0999996624887 188
18.1199996620417 203
18.1399996615946 219
18.1599996611476 164
18.1799996607006 147
18.1999996602535 198
18.2199996598065 185
18.2399996593595 181
18.2599996589124 191
18.2799996584654 223
18.2999996580184 184
18.3199996575713 207
18.3399996571243 196
18.3599996566772 193
18.3799996562302 181
18.3999996557832 189
18.4199996553361 189
18.4399996548891 175
18.4599996544421 199
18.479999653995 193
18.499999653548 187
18.519999653101 178
18.5399996526539 193
18.5599996522069 193
18.5799996517599 206
18.5999996513128 194
18.6199996508658 197
18.6399996504188 188
18.6599996499717 193
18.6799996495247 188
18.6999996490777 205
18.7199996486306 163
18.7399996481836 181
18.7599996477366 201
18.7799996472895 194
18.7999996468425 190
18.8199996463954 179
18.8399996459484 207
18.8599996455014 192
18.8799996450543 212
18.8999996446073 176
18.9199996441603 193
18.9399996437132 195
18.9599996432662 216
18.9799996428192 175
18.9999996423721 197
19.0199996419251 175
19.0399996414781 181
19.059999641031 184
19.079999640584 200
19.099999640137 193
19.1199996396899 203
19.1399996392429 197
19.1599996387959 189
19.1799996383488 191
19.1999996379018 201
19.2199996374547 221
19.2399996370077 214
19.2599996365607 184
19.2799996361136 213
19.2999996356666 200
19.3199996352196 170
19.3399996347725 191
19.3599996343255 181
19.3799996338785 212
19.3999996334314 215
19.4199996329844 219
19.4399996325374 187
19.4599996320903 198
19.4799996316433 206
19.4999996311963 199
19.5199996307492 197
19.5399996303022 229
19.5599996298552 177
19.5799996294081 228
19.5999996289611 208
19.6199996285141 190
19.639999628067 200
19.65999962762 189
19.6799996271729 219
19.6999996267259 226
19.7199996262789 205
19.7399996258318 211
19.7599996253848 234
19.7799996249378 198
19.7999996244907 205
19.8199996240437 203
19.8399996235967 226
19.8599996231496 210
19.8799996227026 200
19.8999996222556 224
19.9199996218085 198
19.9399996213615 194
19.9599996209145 204
19.9799996204674 191
19.9999996200204 210
