3 1587
3.01999999955297 1382
3.03999999910593 1421
3.0599999986589 1388
3.07999999821186 1399
3.09999999776483 1401
3.11999999731779 1392
3.13999999687076 1366
3.15999999642372 1352
3.17999999597669 1349
3.19999999552965 1340
3.21999999508262 1294
3.23999999463558 1355
3.25999999418855 1292
3.27999999374151 1238
3.29999999329448 1306
3.31999999284744 1317
3.33999999240041 1266
3.35999999195337 1269
3.37999999150634 1258
3.3999999910593 1226
3.41999999061227 1186
3.43999999016523 1242
3.4599999897182 1257
3.47999998927116 1175
3.49999998882413 1169
3.51999998837709 1207
3.53999998793006 1130
3.55999998748302 1132
3.57999998703599 1135
3.59999998658895 1161
3.61999998614192 1103
3.63999998569489 1149
3.65999998524785 1120
3.67999998480082 1106
3.69999998435378 1057
3.71999998390675 1092
3.73999998345971 1067
3.75999998301268 1115
3.77999998256564 1084
3.79999998211861 1064
3.81999998167157 1037
3.83999998122454 1016
3.8599999807775 1035
3.87999998033047 995
3.89999997988343 949
3.9199999794364 1022
3.93999997898936 1085
3.95999997854233 962
3.97999997809529 1015
3.99999997764826 959
4.01999997720122 995
4.03999997675419 1004
4.05999997630715 949
4.07999997586012 928
4.09999997541308 964
4.11999997496605 927
4.13999997451901 937
4.15999997407198 885
4.17999997362494 909
4.19999997317791 925
4.21999997273087 911
4.23999997228384 900
4.25999997183681 904
4.27999997138977 875
4.29999997094274 862
4.3199999704957 869
4.33999997004867 872
4.35999996960163 851
4.3799999691546 846
4.39999996870756 836
4.41999996826053 890
4.43999996781349 831
4.45999996736646 770
4.47999996691942 874
4.49999996647239 864
4.51999996602535 811
4.53999996557832 855
4.55999996513128 791
4.57999996468425 794
4.59999996423721 769
4.61999996379018 840
4.63999996334314 790
4.65999996289611 812
4.67999996244907 785
4.69999996200204 798
4.719999961555 820
4.73999996110797 799
4.75999996066093 764
4.7799999602139 783
4.79999995976686 826
4.81999995931983 774
4.83999995887279 743
4.85999995842576 720
4.87999995797873 790
4.89999995753169 788
4.91999995708466 737
4.93999995663762 760
4.95999995619059 738
4.97999995574355 779
4.99999995529652 777
5.01999995484948 755
5.03999995440245 830
5.05999995395541 780
5.07999995350838 713
5.09999995306134 753
5.11999995261431 766
5.13999995216727 803
5.15999995172024 751
5.1799999512732 755
5.19999995082617 725
5.21999995037913 740
5.2399999499321 777
5.25999994948506 773
5.27999994903803 749
5.29999994859099 795
5.31999994814396 768
5.33999994769692 803
5.35999994724989 784
5.37999994680285 838
5.39999994635582 814
5.41999994590878 799
5.43999994546175 853
5.45999994501471 879
5.47999994456768 864
5.49999994412065 858
5.51999994367361 889
5.53999994322658 831
5.55999994277954 888
5.57999994233251 884
5.59999994188547 833
5.61999994143844 783
5.6399999409914 780
5.65999994054437 732
5.67999994009733 715
5.6999999396503 783
5.71999993920326 716
5.73999993875623 748
5.75999993830919 691
5.77999993786216 727
5.79999993741512 719
5.81999993696809 714
5.83999993652105 711
5.85999993607402 665
5.87999993562698 688
5.89999993517995 694
5.91999993473291 690
5.93999993428588 715
5.95999993383884 659
5.97999993339181 651
5.99999993294477 655
6.01999993249774 663
6.0399999320507 633
6.05999993160367 683
6.07999993115663 670
6.0999999307096 664
6.11999993026257 684
6.13999992981553 624
6.1599999293685 656
6.17999992892146 659
6.19999992847443 624
6.21999992802739 653
6.23999992758036 632
6.25999992713332 616
6.27999992668629 618
6.29999992623925 637
6.31999992579222 625
6.33999992534518 623
6.35999992489815 602
6.37999992445111 605
6.39999992400408 612
6.41999992355704 595
6.43999992311001 609
6.45999992266297 610
6.47999992221594 634
6.4999999217689 646
6.51999992132187 648
6.53999992087483 596
6.5599999204278 595
6.57999991998076 600
6.59999991953373 591
6.61999991908669 657
6.63999991863966 615
6.65999991819262 587
6.67999991774559 584
6.69999991729855 589
6.71999991685152 597
6.73999991640449 588
6.75999991595745 580
6.77999991551042 571
6.79999991506338 591
6.81999991461635 612
6.83999991416931 607
6.85999991372228 596
6.87999991327524 544
6.89999991282821 578
6.91999991238117 599
6.93999991193414 591
6.9599999114871 565
6.97999991104007 605
6.99999991059303 571
7.019999910146 570
7.03999990969896 604
7.05999990925193 585
7.07999990880489 603
7.09999990835786 535
7.11999990791082 585
7.13999990746379 599
7.15999990701675 557
7.17999990656972 560
7.19999990612268 571
7.21999990567565 567
7.23999990522861 559
7.25999990478158 591
7.27999990433454 533
7.29999990388751 558
7.31999990344047 582
7.33999990299344 629
7.35999990254641 595
7.37999990209937 552
7.39999990165234 579
7.4199999012053 604
7.43999990075827 537
7.45999990031123 527
7.4799998998642 579
7.49999989941716 551
7.51999989897013 576
7.53999989852309 522
7.55999989807606 567
7.57999989762902 562
7.59999989718199 582
7.61999989673495 537
7.63999989628792 576
7.65999989584088 565
7.67999989539385 561
7.69999989494681 577
7.71999989449978 589
7.73999989405274 548
7.75999989360571 508
7.77999989315867 554
7.79999989271164 593
7.8199998922646 582
7.83999989181757 560
7.85999989137053 518
7.8799998909235 548
7.89999989047646 529
7.91999989002943 576
7.9399998895824 543
7.95999988913536 537
7.97999988868833 541
7.99999988824129 571
8.01999988779426 513
8.03999988734722 585
8.05999988690019 557
8.07999988645315 535
8.09999988600612 537
8.11999988555908 537
8.13999988511205 547
8.15999988466501 534
8.17999988421798 524
8.19999988377094 528
8.21999988332391 537
8.23999988287687 534
8.25999988242984 532
8.2799998819828 528
8.29999988153577 522
8.31999988108873 546
8.3399998806417 555
8.35999988019466 528
8.37999987974763 566
8.39999987930059 544
8.41999987885356 531
8.43999987840652 511
8.45999987795949 535
8.47999987751245 529
8.49999987706542 533
8.51999987661839 553
8.53999987617135 558
8.55999987572432 539
8.57999987527728 564
8.59999987483025 584
8.61999987438321 515
8.63999987393618 558
8.65999987348914 543
8.67999987304211 500
8.69999987259507 538
8.71999987214804 536
8.739999871701 492
8.75999987125397 562
8.77999987080693 522
8.7999998703599 581
8.81999986991286 480
8.83999986946583 511
8.85999986901879 515
8.87999986857176 513
8.89999986812472 520
8.91999986767769 506
8.93999986723065 500
8.95999986678362 545
8.97999986633658 524
8.99999986588955 533
9.01999986544251 527
9.03999986499548 498
9.05999986454844 549
9.07999986410141 513
9.09999986365438 517
9.11999986320734 532
9.13999986276031 529
9.15999986231327 526
9.17999986186624 573
9.1999998614192 517
9.21999986097217 517
9.23999986052513 557
9.2599998600781 546
9.27999985963106 551
9.29999985918403 575
9.31999985873699 571
9.33999985828996 580
9.35999985784292 575
9.37999985739589 624
9.39999985694885 599
9.41999985650182 599
9.43999985605478 652
9.45999985560775 586
9.47999985516071 659
9.49999985471368 622
9.51999985426664 605
9.53999985381961 543
9.55999985337257 526
9.57999985292554 564
9.5999998524785 493
9.61999985203147 519
9.63999985158443 553
9.6599998511374 562
9.67999985069037 536
9.69999985024333 556
9.7199998497963 516
9.73999984934926 549
9.75999984890223 525
9.77999984845519 495
9.79999984800816 493
9.81999984756112 526
9.83999984711409 583
9.85999984666705 516
9.87999984622002 520
9.89999984577298 484
9.91999984532595 502
9.93999984487891 531
9.95999984443188 518
9.97999984398484 496
9.99999984353781 528
10.0199998430908 480
10.0399998426437 500
10.0599998421967 500
10.0799998417497 521
10.0999998413026 505
10.1199998408556 552
10.1399998404086 538
10.1599998399615 516
10.1799998395145 484
10.1999998390675 538
10.2199998386204 510
10.2399998381734 506
10.2599998377264 510
10.2799998372793 498
10.2999998368323 483
10.3199998363853 491
10.3399998359382 495
10.3599998354912 502
10.3799998350441 502
10.3999998345971 529
10.4199998341501 523
10.439999833703 503
10.459999833256 510
10.479999832809 537
10.4999998323619 542
10.5199998319149 511
10.5399998314679 522
10.5599998310208 506
10.5799998305738 488
10.5999998301268 516
10.6199998296797 522
10.6399998292327 524
10.6599998287857 487
10.6799998283386 530
10.6999998278916 525
10.7199998274446 540
10.7399998269975 498
10.7599998265505 533
10.7799998261034 486
10.7999998256564 510
10.8199998252094 490
10.8399998247623 514
10.8599998243153 538
10.8799998238683 509
10.8999998234212 509
10.9199998229742 539
10.9399998225272 552
10.9599998220801 516
10.9799998216331 540
10.9999998211861 510
11.019999820739 529
11.039999820292 542
11.059999819845 526
11.0799998193979 530
11.0999998189509 489
11.1199998185039 490
11.1399998180568 530
11.1599998176098 475
11.1799998171628 517
11.1999998167157 514
11.2199998162687 544
11.2399998158216 536
11.2599998153746 521
11.2799998149276 516
11.2999998144805 485
11.3199998140335 487
11.3399998135865 487
11.3599998131394 512
11.3799998126924 541
11.3999998122454 540
11.4199998117983 540
11.4399998113513 525
11.4599998109043 507
11.4799998104572 501
11.4999998100102 513
11.5199998095632 542
11.5399998091161 512
11.5599998086691 485
11.5799998082221 497
11.599999807775 536
11.619999807328 557
11.639999806881 508
11.6599998064339 512
11.6799998059869 491
11.6999998055398 522
11.7199998050928 520
11.7399998046458 523
11.7599998041987 516
11.7799998037517 465
11.7999998033047 528
11.8199998028576 556
11.8399998024106 535
11.8599998019636 553
11.8799998015165 519
11.8999998010695 509
11.9199998006225 549
11.9399998001754 515
11.9599997997284 562
11.9799997992814 524
11.9999997988343 550
12.0199997983873 550
12.0399997979403 534
12.0599997974932 481
12.0799997970462 502
12.0999997965992 471
12.1199997961521 502
12.1399997957051 564
12.159999795258 515
12.179999794811 546
12.199999794364 502
12.2199997939169 514
12.2399997934699 534
12.2599997930229 538
12.2799997925758 545
12.2999997921288 549
12.3199997916818 512
12.3399997912347 508
12.3599997907877 515
12.3799997903407 538
12.3999997898936 542
12.4199997894466 540
12.4399997889996 525
12.4599997885525 543
12.4799997881055 516
12.4999997876585 548
12.5199997872114 546
12.5399997867644 513
12.5599997863173 533
12.5799997858703 578
12.5999997854233 578
12.6199997849762 536
12.6399997845292 556
12.6599997840822 568
12.6799997836351 529
12.6999997831881 553
12.7199997827411 518
12.739999782294 559
12.759999781847 533
12.7799997814 556
12.7999997809529 534
12.8199997805059 554
12.8399997800589 510
12.8599997796118 526
12.8799997791648 570
12.8999997787178 533
12.9199997782707 551
12.9399997778237 562
12.9599997773767 565
12.9799997769296 544
12.9999997764826 551
13.0199997760355 579
13.0399997755885 541
13.0599997751415 563
13.0799997746944 536
13.0999997742474 567
13.1199997738004 550
13.1399997733533 567
13.1599997729063 541
13.1799997724593 584
13.1999997720122 526
13.2199997715652 574
13.2399997711182 565
13.2599997706711 547
13.2799997702241 517
13.2999997697771 572
13.31999976933 587
13.339999768883 571
13.359999768436 531
13.3799997679889 551
13.3999997675419 561
13.4199997670949 552
13.4399997666478 569
13.4599997662008 602
13.4799997657537 594
13.4999997653067 558
13.5199997648597 585
13.5399997644126 608
13.5599997639656 604
13.5799997635186 567
13.5999997630715 597
13.6199997626245 559
13.6399997621775 570
13.6599997617304 578
13.6799997612834 576
13.6999997608364 561
13.7199997603893 601
13.7399997599423 607
13.7599997594953 579
13.7799997590482 606
13.7999997586012 630
13.8199997581542 622
13.8399997577071 590
13.8599997572601 589
13.879999756813 580
13.899999756366 602
13.919999755919 552
13.9399997554719 598
13.9599997550249 572
13.9799997545779 585
13.9999997541308 603
14.0199997536838 594
14.0399997532368 572
14.0599997527897 634
14.0799997523427 637
14.0999997518957 597
14.1199997514486 602
14.1399997510016 608
14.1599997505546 631
14.1799997501075 666
14.1999997496605 631
14.2199997492135 633
14.2399997487664 639
14.2599997483194 631
14.2799997478724 630
14.2999997474253 620
14.3199997469783 621
14.3399997465312 618
14.3599997460842 601
14.3799997456372 639
14.3999997451901 648
14.4199997447431 648
14.4399997442961 612
14.459999743849 615
14.479999743402 623
14.499999742955 691
14.5199997425079 645
14.5399997420609 652
14.5599997416139 637
14.5799997411668 633
14.5999997407198 627
14.6199997402728 644
14.6399997398257 693
14.6599997393787 627
14.6799997389317 633
14.6999997384846 649
14.7199997380376 719
14.7399997375906 650
14.7599997371435 634
14.7799997366965 644
14.7999997362494 646
14.8199997358024 643
14.8399997353554 631
14.8599997349083 647
14.8799997344613 646
14.8999997340143 689
14.9199997335672 668
14.9399997331202 689
14.9599997326732 628
14.9799997322261 689
14.9999997317791 683
15.0199997313321 713
15.039999730885 657
15.059999730438 703
15.079999729991 662
15.0999997295439 698
15.1199997290969 695
15.1399997286499 716
15.1599997282028 694
15.1799997277558 678
15.1999997273088 642
15.2199997268617 688
15.2399997264147 677
15.2599997259676 677
15.2799997255206 722
15.2999997250736 702
15.3199997246265 695
15.3399997241795 639
15.3599997237325 683
15.3799997232854 685
15.3999997228384 695
15.4199997223914 700
15.4399997219443 709
15.4599997214973 688
15.4799997210503 656
15.4999997206032 735
15.5199997201562 717
15.5399997197092 704
15.5599997192621 691
15.5799997188151 744
15.5999997183681 728
15.619999717921 741
15.639999717474 716
15.659999717027 734
15.6799997165799 725
15.6999997161329 717
15.7199997156858 731
15.7399997152388 705
15.7599997147918 706
15.7799997143447 751
15.7999997138977 790
15.8199997134507 745
15.8399997130036 761
15.8599997125566 719
15.8799997121096 742
15.8999997116625 735
15.9199997112155 783
15.9399997107685 758
15.9599997103214 756
15.9799997098744 758
15.9999997094274 766
16.0199997089803 764
16.0399997085333 743
16.0599997080863 753
16.0799997076392 782
16.0999997071922 754
16.1199997067451 767
16.1399997062981 768
16.1599997058511 801
16.179999705404 797
16.199999704957 779
16.21999970451 744
16.2399997040629 789
16.2599997036159 786
16.2799997031689 803
16.2999997027218 825
16.3199997022748 820
16.3399997018278 782
16.3599997013807 799
16.3799997009337 783
16.3999997004867 843
16.4199997000396 807
16.4399996995926 823
16.4599996991456 789
16.4799996986985 850
16.4999996982515 780
16.5199996978045 796
16.5399996973574 792
16.5599996969104 887
16.5799996964633 873
16.5999996960163 831
16.6199996955693 869
16.6399996951222 881
16.6599996946752 889
16.6799996942282 822
16.6999996937811 843
16.7199996933341 854
16.7399996928871 865
16.75999969244 813
16.779999691993 875
16.799999691546 855
16.8199996910989 899
16.8399996906519 888
16.8599996902049 921
16.8799996897578 945
16.8999996893108 993
16.9199996888638 950
16.9399996884167 1007
16.9599996879697 1010
16.9799996875226 1065
16.9999996870756 1098
17.0199996866286 1147
17.0399996861815 1197
17.0599996857345 1276
17.0799996852875 1244
17.0999996848404 1206
17.1199996843934 1210
17.1399996839464 1180
17.1599996834993 1027
17.1799996830523 993
17.1999996826053 989
17.2199996821582 969
17.2399996817112 941
17.2599996812642 911
17.2799996808171 883
17.2999996803701 893
17.3199996799231 925
17.339999679476 940
17.359999679029 1004
17.379999678582 963
17.3999996781349 925
17.4199996776879 929
17.4399996772408 908
17.4599996767938 952
17.4799996763468 932
17.4999996758997 954
17.5199996754527 954
17.5399996750057 958
17.5599996745586 996
17.5799996741116 936
17.5999996736646 969
17.6199996732175 985
17.6399996727705 984
17.6599996723235 932
17.6799996718764 981
17.6999996714294 948
17.7199996709824 961
17.7399996705353 984
17.7599996700883 1009
17.7799996696413 1003
17.7999996691942 1002
17.8199996687472 971
17.8399996683002 935
17.8599996678531 965
17.8799996674061 1066
17.899999666959 1002
17.919999666512 1001
17.939999666065 969
17.9599996656179 1010
17.9799996651709 1044
17.9999996647239 1059
18.0199996642768 1029
18.0399996638298 1036
18.0599996633828 976
18.0799996629357 1067
18.0999996624887 1089
18.1199996620417 1037
18.1399996615946 1058
18.1599996611476 1059
18.1799996607006 1060
18.1999996602535 1093
18.2199996598065 1082
18.2399996593595 1120
18.2599996589124 1114
18.2799996584654 1065
18.2999996580184 1000
18.3199996575713 1034
18.3399996571243 1059
18.3599996566772 1147
18.3799996562302 1047
18.3999996557832 1092
18.4199996553361 1041
18.4399996548891 1150
18.4599996544421 1090
18.479999653995 1081
18.499999653548 1135
18.519999653101 1032
18.5399996526539 1148
18.5599996522069 1146
18.5799996517599 1159
18.5999996513128 1176
18.6199996508658 1140
18.6399996504188 1179
18.6599996499717 1179
18.6799996495247 1101
18.6999996490777 1180
18.7199996486306 1159
18.7399996481836 1161
18.7599996477366 1175
18.7799996472895 1190
18.7999996468425 1119
18.8199996463954 1160
18.8399996459484 1163
18.8599996455014 1154
18.8799996450543 1224
18.8999996446073 1232
18.9199996441603 1161
18.9399996437132 1208
18.9599996432662 1201
18.9799996428192 1219
18.9999996423721 1188
19.0199996419251 1195
19.0399996414781 1162
19.059999641031 1289
19.079999640584 1221
19.099999640137 1174
19.1199996396899 1209
19.1399996392429 1191
19.1599996387959 1258
19.1799996383488 1312
19.1999996379018 1322
19.2199996374547 1249
19.2399996370077 1257
19.2599996365607 1253
19.2799996361136 1223
19.2999996356666 1340
19.3199996352196 1357
19.3399996347725 1250
19.3599996343255 1229
19.3799996338785 1241
19.3999996334314 1254
19.4199996329844 1304
19.4399996325374 1295
19.4599996320903 1277
19.4799996316433 1299
19.4999996311963 1372
19.5199996307492 1283
19.5399996303022 1320
19.5599996298552 1266
19.5799996294081 1292
19.5999996289611 1286
19.6199996285141 1340
19.639999628067 1348
19.65999962762 1295
19.6799996271729 1358
19.6999996267259 1347
19.7199996262789 1369
19.7399996258318 1327
19.7599996253848 1348
19.7799996249378 1313
19.7999996244907 1267
19.8199996240437 1343
19.8399996235967 1308
19.8599996231496 1345
19.8799996227026 1370
19.8999996222556 1377
19.9199996218085 1407
19.9399996213615 1412
19.9599996209145 1438
19.9799996204674 1338
19.9999996200204 1355
