3 2220
3.01999999955297 2101
3.03999999910593 2075
3.0599999986589 2064
3.07999999821186 1976
3.09999999776483 1977
3.11999999731779 1889
3.13999999687076 2003
3.15999999642372 1883
3.17999999597669 1825
3.19999999552965 1839
3.21999999508262 1795
3.23999999463558 1839
3.25999999418855 1714
3.27999999374151 1741
3.29999999329448 1787
3.31999999284744 1713
3.33999999240041 1694
3.35999999195337 1630
3.37999999150634 1637
3.3999999910593 1710
3.41999999061227 1574
3.43999999016523 1582
3.4599999897182 1510
3.47999998927116 1517
3.49999998882413 1564
3.51999998837709 1537
3.53999998793006 1530
3.55999998748302 1477
3.57999998703599 1425
3.59999998658895 1432
3.61999998614192 1377
3.63999998569489 1359
3.65999998524785 1351
3.67999998480082 1399
3.69999998435378 1364
3.71999998390675 1369
3.73999998345971 1322
3.75999998301268 1329
3.77999998256564 1274
3.79999998211861 1337
3.81999998167157 1249
3.83999998122454 1268
3.8599999807775 1264
3.87999998033047 1199
3.89999997988343 1191
3.9199999794364 1216
3.93999997898936 1148
3.95999997854233 1143
3.97999997809529 1135
3.99999997764826 1165
4.01999997720122 1213
4.03999997675419 1137
4.05999997630715 1163
4.07999997586012 1086
4.09999997541308 1092
4.11999997496605 1057
4.13999997451901 1087
4.15999997407198 1054
4.17999997362494 1029
4.19999997317791 1064
4.21999997273087 1022
4.23999997228384 983
4.25999997183681 1071
4.27999997138977 998
4.29999997094274 958
4.3199999704957 934
4.33999997004867 949
4.35999996960163 1000
4.3799999691546 913
4.39999996870756 902
4.41999996826053 847
4.43999996781349 863
4.45999996736646 906
4.47999996691942 907
4.49999996647239 895
4.51999996602535 893
4.53999996557832 856
4.55999996513128 869
4.57999996468425 864
4.59999996423721 854
4.61999996379018 901
4.63999996334314 863
4.65999996289611 844
4.67999996244907 848
4.69999996200204 859
4.719999961555 809
4.73999996110797 867
4.75999996066093 815
4.7799999602139 789
4.79999995976686 825
4.81999995931983 823
4.83999995887279 819
4.85999995842576 869
4.87999995797873 867
4.89999995753169 809
4.91999995708466 792
4.93999995663762 861
4.95999995619059 859
4.97999995574355 801
4.99999995529652 767
5.01999995484948 832
5.03999995440245 886
5.05999995395541 848
5.07999995350838 847
5.09999995306134 842
5.11999995261431 936
5.13999995216727 927
5.15999995172024 961
5.1799999512732 931
5.19999995082617 943
5.21999995037913 960
5.2399999499321 990
5.25999994948506 1041
5.27999994903803 1069
5.29999994859099 1165
5.31999994814396 1234
5.33999994769692 1256
5.35999994724989 1296
5.37999994680285 1361
5.39999994635582 1510
5.41999994590878 1645
5.43999994546175 1799
5.45999994501471 2112
5.47999994456768 2266
5.49999994412065 2104
5.51999994367361 1662
5.53999994322658 1392
5.55999994277954 1172
5.57999994233251 1202
5.59999994188547 1056
5.61999994143844 1060
5.6399999409914 963
5.65999994054437 954
5.67999994009733 929
5.6999999396503 934
5.71999993920326 855
5.73999993875623 892
5.75999993830919 824
5.77999993786216 830
5.79999993741512 788
5.81999993696809 754
5.83999993652105 747
5.85999993607402 754
5.87999993562698 701
5.89999993517995 718
5.91999993473291 699
5.93999993428588 656
5.95999993383884 648
5.97999993339181 673
5.99999993294477 655
6.01999993249774 616
6.0399999320507 629
6.05999993160367 610
6.07999993115663 610
6.0999999307096 638
6.11999993026257 623
6.13999992981553 578
6.1599999293685 579
6.17999992892146 594
6.19999992847443 560
6.21999992802739 568
6.23999992758036 545
6.25999992713332 592
6.27999992668629 610
6.29999992623925 565
6.31999992579222 591
6.33999992534518 575
6.35999992489815 569
6.37999992445111 567
6.39999992400408 523
6.41999992355704 544
6.43999992311001 576
6.45999992266297 580
6.47999992221594 569
6.4999999217689 561
6.51999992132187 578
6.53999992087483 597
6.5599999204278 540
6.57999991998076 529
6.59999991953373 561
6.61999991908669 557
6.63999991863966 525
6.65999991819262 543
6.67999991774559 536
6.69999991729855 534
6.71999991685152 576
6.73999991640449 514
6.75999991595745 561
6.77999991551042 537
6.79999991506338 527
6.81999991461635 539
6.83999991416931 515
6.85999991372228 528
6.87999991327524 524
6.89999991282821 499
6.91999991238117 487
6.93999991193414 495
6.9599999114871 478
6.97999991104007 486
6.99999991059303 473
7.019999910146 520
7.03999990969896 542
7.05999990925193 491
7.07999990880489 522
7.09999990835786 497
7.11999990791082 536
7.13999990746379 510
7.15999990701675 534
7.17999990656972 489
7.19999990612268 508
7.21999990567565 510
7.23999990522861 487
7.25999990478158 514
7.27999990433454 523
7.29999990388751 491
7.31999990344047 475
7.33999990299344 496
7.35999990254641 502
7.37999990209937 507
7.39999990165234 501
7.4199999012053 513
7.43999990075827 468
7.45999990031123 445
7.4799998998642 492
7.49999989941716 489
7.51999989897013 501
7.53999989852309 520
7.55999989807606 469
7.57999989762902 481
7.59999989718199 474
7.61999989673495 500
7.63999989628792 501
7.65999989584088 521
7.67999989539385 505
7.69999989494681 520
7.71999989449978 476
7.73999989405274 480
7.75999989360571 496
7.77999989315867 501
7.79999989271164 467
7.8199998922646 484
7.83999989181757 447
7.85999989137053 466
7.8799998909235 451
7.89999989047646 487
7.91999989002943 489
7.9399998895824 487
7.95999988913536 420
7.97999988868833 438
7.99999988824129 489
8.01999988779426 494
8.03999988734722 495
8.05999988690019 483
8.07999988645315 483
8.09999988600612 454
8.11999988555908 448
8.13999988511205 459
8.15999988466501 459
8.17999988421798 453
8.19999988377094 510
8.21999988332391 476
8.23999988287687 451
8.25999988242984 446
8.2799998819828 457
8.29999988153577 475
8.31999988108873 479
8.3399998806417 465
8.35999988019466 442
8.37999987974763 452
8.39999987930059 441
8.41999987885356 438
8.43999987840652 462
8.45999987795949 441
8.47999987751245 467
8.49999987706542 495
8.51999987661839 434
8.53999987617135 460
8.55999987572432 481
8.57999987527728 473
8.59999987483025 448
8.61999987438321 470
8.63999987393618 460
8.65999987348914 449
8.67999987304211 475
8.69999987259507 473
8.71999987214804 471
8.739999871701 459
8.75999987125397 472
8.77999987080693 468
8.7999998703599 474
8.81999986991286 455
8.83999986946583 469
8.85999986901879 445
8.87999986857176 439
8.89999986812472 462
8.91999986767769 461
8.93999986723065 445
8.95999986678362 476
8.97999986633658 441
8.99999986588955 434
9.01999986544251 501
9.03999986499548 527
9.05999986454844 507
9.07999986410141 490
9.09999986365438 509
9.11999986320734 522
9.13999986276031 495
9.15999986231327 493
9.17999986186624 495
9.1999998614192 542
9.21999986097217 531
9.23999986052513 567
9.2599998600781 600
9.27999985963106 613
9.29999985918403 631
9.31999985873699 705
9.33999985828996 792
9.35999985784292 860
9.37999985739589 911
9.39999985694885 936
9.41999985650182 914
9.43999985605478 763
9.45999985560775 657
9.47999985516071 580
9.49999985471368 524
9.51999985426664 546
9.53999985381961 512
9.55999985337257 489
9.57999985292554 493
9.5999998524785 478
9.61999985203147 492
9.63999985158443 478
9.6599998511374 496
9.67999985069037 496
9.69999985024333 470
9.7199998497963 516
9.73999984934926 438
9.75999984890223 509
9.77999984845519 489
9.79999984800816 434
9.81999984756112 467
9.83999984711409 458
9.85999984666705 490
9.87999984622002 468
9.89999984577298 475
9.91999984532595 470
9.93999984487891 430
9.95999984443188 481
9.97999984398484 481
9.99999984353781 479
10.0199998430908 489
10.0399998426437 453
10.0599998421967 440
10.0799998417497 445
10.0999998413026 453
10.1199998408556 422
10.1399998404086 455
10.1599998399615 431
10.1799998395145 468
10.1999998390675 429
10.2199998386204 474
10.2399998381734 472
10.2599998377264 487
10.2799998372793 471
10.2999998368323 482
10.3199998363853 456
10.3399998359382 468
10.3599998354912 485
10.3799998350441 472
10.3999998345971 454
10.4199998341501 449
10.439999833703 444
10.459999833256 493
10.479999832809 475
10.4999998323619 472
10.5199998319149 531
10.5399998314679 521
10.5599998310208 493
10.5799998305738 502
10.5999998301268 473
10.6199998296797 449
10.6399998292327 482
10.6599998287857 520
10.6799998283386 511
10.6999998278916 505
10.7199998274446 542
10.7399998269975 579
10.7599998265505 590
10.7799998261034 644
10.7999998256564 637
10.8199998252094 751
10.8399998247623 729
10.8599998243153 733
10.8799998238683 660
10.8999998234212 638
10.9199998229742 591
10.9399998225272 569
10.9599998220801 571
10.9799998216331 573
10.9999998211861 538
11.019999820739 552
11.039999820292 509
11.059999819845 510
11.0799998193979 496
11.0999998189509 434
11.1199998185039 470
11.1399998180568 466
11.1599998176098 490
11.1799998171628 464
11.1999998167157 450
11.2199998162687 472
11.2399998158216 442
11.2599998153746 491
11.2799998149276 438
11.2999998144805 457
11.3199998140335 456
11.3399998135865 449
11.3599998131394 488
11.3799998126924 461
11.3999998122454 474
11.4199998117983 475
11.4399998113513 473
11.4599998109043 452
11.4799998104572 451
11.4999998100102 492
11.5199998095632 458
11.5399998091161 458
11.5599998086691 432
11.5799998082221 490
11.599999807775 477
11.619999807328 460
11.639999806881 472
11.6599998064339 423
11.6799998059869 452
11.6999998055398 479
11.7199998050928 481
11.7399998046458 441
11.7599998041987 459
11.7799998037517 458
11.7999998033047 441
11.8199998028576 495
11.8399998024106 468
11.8599998019636 488
11.8799998015165 491
11.8999998010695 484
11.9199998006225 514
11.9399998001754 470
11.9599997997284 439
11.9799997992814 477
11.9999997988343 497
12.0199997983873 513
12.0399997979403 468
12.0599997974932 445
12.0799997970462 503
12.0999997965992 477
12.1199997961521 476
12.1399997957051 498
12.159999795258 454
12.179999794811 477
12.199999794364 484
12.2199997939169 500
12.2399997934699 471
12.2599997930229 492
12.2799997925758 477
12.2999997921288 476
12.3199997916818 488
12.3399997912347 509
12.3599997907877 525
12.3799997903407 551
12.3999997898936 508
12.4199997894466 497
12.4399997889996 519
12.4599997885525 478
12.4799997881055 512
12.4999997876585 451
12.5199997872114 496
12.5399997867644 462
12.5599997863173 512
12.5799997858703 471
12.5999997854233 532
12.6199997849762 487
12.6399997845292 483
12.6599997840822 486
12.6799997836351 480
12.6999997831881 497
12.7199997827411 478
12.739999782294 458
12.759999781847 475
12.7799997814 507
12.7999997809529 505
12.8199997805059 489
12.8399997800589 481
12.8599997796118 500
12.8799997791648 513
12.8999997787178 486
12.9199997782707 488
12.9399997778237 466
12.9599997773767 506
12.9799997769296 463
12.9999997764826 493
13.0199997760355 510
13.0399997755885 514
13.0599997751415 478
13.0799997746944 510
13.0999997742474 512
13.1199997738004 499
13.1399997733533 468
13.1599997729063 471
13.1799997724593 513
13.1999997720122 495
13.2199997715652 494
13.2399997711182 524
13.2599997706711 559
13.2799997702241 503
13.2999997697771 521
13.31999976933 522
13.339999768883 557
13.359999768436 493
13.3799997679889 537
13.3999997675419 550
13.4199997670949 519
13.4399997666478 515
13.4599997662008 522
13.4799997657537 515
13.4999997653067 511
13.5199997648597 520
13.5399997644126 557
13.5599997639656 515
13.5799997635186 478
13.5999997630715 537
13.6199997626245 505
13.6399997621775 532
13.6599997617304 497
13.6799997612834 534
13.6999997608364 552
13.7199997603893 553
13.7399997599423 518
13.7599997594953 528
13.7799997590482 528
13.7999997586012 546
13.8199997581542 497
13.8399997577071 494
13.8599997572601 505
13.879999756813 512
13.899999756366 538
13.919999755919 583
13.9399997554719 550
13.9599997550249 536
13.9799997545779 507
13.9999997541308 550
14.0199997536838 529
14.0399997532368 536
14.0599997527897 527
14.0799997523427 583
14.0999997518957 577
14.1199997514486 581
14.1399997510016 563
14.1599997505546 506
14.1799997501075 550
14.1999997496605 556
14.2199997492135 567
14.2399997487664 537
14.2599997483194 589
14.2799997478724 555
14.2999997474253 568
14.3199997469783 550
14.3399997465312 607
14.3599997460842 641
14.3799997456372 610
14.3999997451901 562
14.4199997447431 582
14.4399997442961 581
14.459999743849 565
14.479999743402 591
14.499999742955 566
14.5199997425079 592
14.5399997420609 591
14.5599997416139 584
14.5799997411668 576
14.5999997407198 549
14.6199997402728 547
14.6399997398257 581
14.6599997393787 524
14.6799997389317 538
14.6999997384846 588
14.7199997380376 601
14.7399997375906 556
14.7599997371435 553
14.7799997366965 565
14.7999997362494 596
14.8199997358024 612
14.8399997353554 587
14.8599997349083 552
14.8799997344613 575
14.8999997340143 569
14.9199997335672 603
14.9399997331202 550
14.9599997326732 582
14.9799997322261 593
14.9999997317791 598
15.0199997313321 610
15.039999730885 584
15.059999730438 570
15.079999729991 575
15.0999997295439 586
15.1199997290969 594
15.1399997286499 591
15.1599997282028 611
15.1799997277558 618
15.1999997273088 630
15.2199997268617 566
15.2399997264147 596
15.2599997259676 620
15.2799997255206 638
15.2999997250736 586
15.3199997246265 605
15.3399997241795 613
15.3599997237325 635
15.3799997232854 601
15.3999997228384 609
15.4199997223914 610
15.4399997219443 644
15.4599997214973 640
15.4799997210503 584
15.4999997206032 589
15.5199997201562 626
15.5399997197092 642
15.5599997192621 603
15.5799997188151 645
15.5999997183681 614
15.619999717921 674
15.639999717474 674
15.659999717027 630
15.6799997165799 592
15.6999997161329 609
15.7199997156858 674
15.7399997152388 698
15.7599997147918 646
15.7799997143447 614
15.7999997138977 649
15.8199997134507 672
15.8399997130036 655
15.8599997125566 645
15.8799997121096 671
15.8999997116625 618
15.9199997112155 667
15.9399997107685 632
15.9599997103214 657
15.9799997098744 636
15.9999997094274 689
16.0199997089803 686
16.0399997085333 679
16.0599997080863 683
16.0799997076392 651
16.0999997071922 673
16.1199997067451 682
16.1399997062981 729
16.1599997058511 630
16.179999705404 727
16.199999704957 688
16.21999970451 692
16.2399997040629 741
16.2599997036159 766
16.2799997031689 670
16.2999997027218 683
16.3199997022748 680
16.3399997018278 680
16.3599997013807 745
16.3799997009337 689
16.3999997004867 755
16.4199997000396 685
16.4399996995926 731
16.4599996991456 747
16.4799996986985 656
16.4999996982515 742
16.5199996978045 701
16.5399996973574 706
16.5599996969104 708
16.5799996964633 710
16.5999996960163 702
16.6199996955693 719
16.6399996951222 727
16.6599996946752 698
16.6799996942282 756
16.6999996937811 754
16.7199996933341 775
16.7399996928871 800
16.75999969244 748
16.779999691993 746
16.799999691546 784
16.8199996910989 775
16.8399996906519 734
16.8599996902049 741
16.8799996897578 774
16.8999996893108 829
16.9199996888638 866
16.9399996884167 841
16.9599996879697 911
16.9799996875226 876
16.9999996870756 973
17.0199996866286 970
17.0399996861815 1014
17.0599996857345 1033
17.0799996852875 1022
17.0999996848404 902
17.1199996843934 855
17.1399996839464 848
17.1599996834993 797
17.1799996830523 819
17.1999996826053 843
17.2199996821582 780
17.2399996817112 741
17.2599996812642 822
17.2799996808171 803
17.2999996803701 839
17.3199996799231 835
17.339999679476 822
17.359999679029 904
17.379999678582 874
17.3999996781349 832
17.4199996776879 829
17.4399996772408 835
17.4599996767938 860
17.4799996763468 850
17.4999996758997 822
17.5199996754527 888
17.5399996750057 843
17.5599996745586 892
17.5799996741116 806
17.5999996736646 842
17.6199996732175 805
17.6399996727705 855
17.6599996723235 825
17.6799996718764 815
17.6999996714294 884
17.7199996709824 785
17.7399996705353 853
17.7599996700883 877
17.7799996696413 914
17.7999996691942 870
17.8199996687472 893
17.8399996683002 887
17.8599996678531 899
17.8799996674061 880
17.899999666959 891
17.919999666512 915
17.939999666065 876
17.9599996656179 881
17.9799996651709 849
17.9999996647239 917
18.0199996642768 905
18.0399996638298 915
18.0599996633828 942
18.0799996629357 945
18.0999996624887 940
18.1199996620417 911
18.1399996615946 960
18.1599996611476 992
18.1799996607006 951
18.1999996602535 934
18.2199996598065 944
18.2399996593595 927
18.2599996589124 881
18.2799996584654 932
18.2999996580184 944
18.3199996575713 944
18.3399996571243 933
18.3599996566772 980
18.3799996562302 977
18.3999996557832 923
18.4199996553361 972
18.4399996548891 994
18.4599996544421 992
18.479999653995 974
18.499999653548 947
18.519999653101 1015
18.5399996526539 901
18.5599996522069 982
18.5799996517599 1011
18.5999996513128 1053
18.6199996508658 964
18.6399996504188 977
18.6599996499717 968
18.6799996495247 992
18.6999996490777 982
18.7199996486306 999
18.7399996481836 993
18.7599996477366 1026
18.7799996472895 1004
18.7999996468425 1023
18.8199996463954 1090
18.8399996459484 1008
18.8599996455014 998
18.8799996450543 1047
18.8999996446073 1018
18.9199996441603 1023
18.9399996437132 994
18.9599996432662 1076
18.9799996428192 1032
18.9999996423721 1005
19.0199996419251 1016
19.0399996414781 966
19.059999641031 1074
19.079999640584 1063
19.099999640137 1062
19.1199996396899 1098
19.1399996392429 1065
19.1599996387959 1090
19.1799996383488 1063
19.1999996379018 1075
19.2199996374547 1098
19.2399996370077 1084
19.2599996365607 1087
19.2799996361136 1106
19.2999996356666 1117
19.3199996352196 1150
19.3399996347725 1100
19.3599996343255 1167
19.3799996338785 1141
19.3999996334314 1119
19.4199996329844 1142
19.4399996325374 1122
19.4599996320903 1244
19.4799996316433 1221
19.4999996311963 1198
19.5199996307492 1319
19.5399996303022 1241
19.5599996298552 1202
19.5799996294081 1196
19.5999996289611 1245
19.6199996285141 1193
19.639999628067 1222
19.65999962762 1213
19.6799996271729 1169
19.6999996267259 1119
19.7199996262789 1199
19.7399996258318 1195
19.7599996253848 1176
19.7799996249378 1159
19.7999996244907 1189
19.8199996240437 1196
19.8399996235967 1165
19.8599996231496 1217
19.8799996227026 1207
19.8999996222556 1142
19.9199996218085 1136
19.9399996213615 1163
19.9599996209145 1216
19.9799996204674 1157
19.9999996200204 1255
