3 2318
3.01999999955297 2175
3.03999999910593 2164
3.0599999986589 2144
3.07999999821186 2230
3.09999999776483 2073
3.11999999731779 2126
3.13999999687076 2092
3.15999999642372 2008
3.17999999597669 1974
3.19999999552965 2012
3.21999999508262 1849
3.23999999463558 1926
3.25999999418855 1960
3.27999999374151 1900
3.29999999329448 1846
3.31999999284744 1844
3.33999999240041 1799
3.35999999195337 1767
3.37999999150634 1801
3.3999999910593 1759
3.41999999061227 1789
3.43999999016523 1805
3.4599999897182 1706
3.47999998927116 1736
3.49999998882413 1795
3.51999998837709 1766
3.53999998793006 1701
3.55999998748302 1733
3.57999998703599 1600
3.59999998658895 1643
3.61999998614192 1664
3.63999998569489 1562
3.65999998524785 1596
3.67999998480082 1582
3.69999998435378 1569
3.71999998390675 1575
3.73999998345971 1628
3.75999998301268 1624
3.77999998256564 1589
3.79999998211861 1564
3.81999998167157 1541
3.83999998122454 1514
3.8599999807775 1553
3.87999998033047 1545
3.89999997988343 1591
3.9199999794364 1500
3.93999997898936 1482
3.95999997854233 1499
3.97999997809529 1508
3.99999997764826 1490
4.01999997720122 1448
4.03999997675419 1396
4.05999997630715 1462
4.07999997586012 1436
4.09999997541308 1481
4.11999997496605 1434
4.13999997451901 1420
4.15999997407198 1452
4.17999997362494 1404
4.19999997317791 1452
4.21999997273087 1367
4.23999997228384 1422
4.25999997183681 1453
4.27999997138977 1375
4.29999997094274 1400
4.3199999704957 1414
4.33999997004867 1388
4.35999996960163 1362
4.3799999691546 1347
4.39999996870756 1319
4.41999996826053 1362
4.43999996781349 1378
4.45999996736646 1313
4.47999996691942 1317
4.49999996647239 1354
4.51999996602535 1346
4.53999996557832 1260
4.55999996513128 1379
4.57999996468425 1352
4.59999996423721 1345
4.61999996379018 1179
4.63999996334314 1305
4.65999996289611 1331
4.67999996244907 1344
4.69999996200204 1252
4.719999961555 1305
4.73999996110797 1323
4.75999996066093 1292
4.7799999602139 1260
4.79999995976686 1349
4.81999995931983 1287
4.83999995887279 1280
4.85999995842576 1297
4.87999995797873 1266
4.89999995753169 1237
4.91999995708466 1213
4.93999995663762 1185
4.95999995619059 1293
4.97999995574355 1228
4.99999995529652 1229
5.01999995484948 1247
5.03999995440245 1282
5.05999995395541 1277
5.07999995350838 1186
5.09999995306134 1209
5.11999995261431 1280
5.13999995216727 1256
5.15999995172024 1252
5.1799999512732 1234
5.19999995082617 1255
5.21999995037913 1267
5.2399999499321 1277
5.25999994948506 1318
5.27999994903803 1338
5.29999994859099 1326
5.31999994814396 1364
5.33999994769692 1324
5.35999994724989 1399
5.37999994680285 1527
5.39999994635582 1481
5.41999994590878 1496
5.43999994546175 1438
5.45999994501471 1293
5.47999994456768 1308
5.49999994412065 1281
5.51999994367361 1204
5.53999994322658 1186
5.55999994277954 1218
5.57999994233251 1159
5.59999994188547 1130
5.61999994143844 1170
5.6399999409914 1170
5.65999994054437 1115
5.67999994009733 1124
5.6999999396503 1125
5.71999993920326 1176
5.73999993875623 1069
5.75999993830919 1139
5.77999993786216 1159
5.79999993741512 1178
5.81999993696809 1151
5.83999993652105 1151
5.85999993607402 1088
5.87999993562698 981
5.89999993517995 1031
5.91999993473291 995
5.93999993428588 945
5.95999993383884 928
5.97999993339181 904
5.99999993294477 880
6.01999993249774 962
6.0399999320507 915
6.05999993160367 844
6.07999993115663 845
6.0999999307096 899
6.11999993026257 811
6.13999992981553 849
6.1599999293685 840
6.17999992892146 841
6.19999992847443 827
6.21999992802739 789
6.23999992758036 837
6.25999992713332 812
6.27999992668629 795
6.29999992623925 810
6.31999992579222 807
6.33999992534518 832
6.35999992489815 779
6.37999992445111 758
6.39999992400408 784
6.41999992355704 794
6.43999992311001 732
6.45999992266297 779
6.47999992221594 732
6.4999999217689 743
6.51999992132187 718
6.53999992087483 749
6.5599999204278 759
6.57999991998076 729
6.59999991953373 755
6.61999991908669 669
6.63999991863966 729
6.65999991819262 679
6.67999991774559 654
6.69999991729855 720
6.71999991685152 691
6.73999991640449 672
6.75999991595745 726
6.77999991551042 711
6.79999991506338 695
6.81999991461635 711
6.83999991416931 674
6.85999991372228 691
6.87999991327524 718
6.89999991282821 705
6.91999991238117 651
6.93999991193414 723
6.9599999114871 639
6.97999991104007 639
6.99999991059303 695
7.019999910146 679
7.03999990969896 698
7.05999990925193 655
7.07999990880489 672
7.09999990835786 694
7.11999990791082 680
7.13999990746379 632
7.15999990701675 661
7.17999990656972 618
7.19999990612268 599
7.21999990567565 650
7.23999990522861 629
7.25999990478158 661
7.27999990433454 618
7.29999990388751 621
7.31999990344047 614
7.33999990299344 651
7.35999990254641 652
7.37999990209937 600
7.39999990165234 642
7.4199999012053 642
7.43999990075827 627
7.45999990031123 635
7.4799998998642 589
7.49999989941716 637
7.51999989897013 598
7.53999989852309 585
7.55999989807606 604
7.57999989762902 593
7.59999989718199 596
7.61999989673495 568
7.63999989628792 590
7.65999989584088 591
7.67999989539385 622
7.69999989494681 627
7.71999989449978 588
7.73999989405274 609
7.75999989360571 576
7.77999989315867 574
7.79999989271164 552
7.8199998922646 605
7.83999989181757 577
7.85999989137053 534
7.8799998909235 594
7.89999989047646 547
7.91999989002943 613
7.9399998895824 609
7.95999988913536 600
7.97999988868833 596
7.99999988824129 529
8.01999988779426 566
8.03999988734722 567
8.05999988690019 594
8.07999988645315 602
8.09999988600612 580
8.11999988555908 558
8.13999988511205 559
8.15999988466501 558
8.17999988421798 523
8.19999988377094 555
8.21999988332391 569
8.23999988287687 563
8.25999988242984 543
8.2799998819828 535
8.29999988153577 595
8.31999988108873 531
8.3399998806417 547
8.35999988019466 556
8.37999987974763 534
8.39999987930059 575
8.41999987885356 528
8.43999987840652 550
8.45999987795949 527
8.47999987751245 548
8.49999987706542 588
8.51999987661839 542
8.53999987617135 514
8.55999987572432 551
8.57999987527728 557
8.59999987483025 525
8.61999987438321 538
8.63999987393618 567
8.65999987348914 541
8.67999987304211 512
8.69999987259507 519
8.71999987214804 528
8.739999871701 550
8.75999987125397 507
8.77999987080693 513
8.7999998703599 485
8.81999986991286 537
8.83999986946583 548
8.85999986901879 564
8.87999986857176 551
8.89999986812472 547
8.91999986767769 546
8.93999986723065 586
8.95999986678362 506
8.97999986633658 568
8.99999986588955 522
9.01999986544251 565
9.03999986499548 547
9.05999986454844 552
9.07999986410141 554
9.09999986365438 549
9.11999986320734 542
9.13999986276031 553
9.15999986231327 525
9.17999986186624 557
9.1999998614192 518
9.21999986097217 604
9.23999986052513 626
9.2599998600781 611
9.27999985963106 614
9.29999985918403 635
9.31999985873699 646
9.33999985828996 558
9.35999985784292 625
9.37999985739589 625
9.39999985694885 584
9.41999985650182 595
9.43999985605478 565
9.45999985560775 569
9.47999985516071 555
9.49999985471368 558
9.51999985426664 549
9.53999985381961 536
9.55999985337257 558
9.57999985292554 547
9.5999998524785 515
9.61999985203147 574
9.63999985158443 533
9.6599998511374 567
9.67999985069037 497
9.69999985024333 501
9.7199998497963 501
9.73999984934926 553
9.75999984890223 494
9.77999984845519 547
9.79999984800816 521
9.81999984756112 498
9.83999984711409 536
9.85999984666705 517
9.87999984622002 505
9.89999984577298 507
9.91999984532595 510
9.93999984487891 500
9.95999984443188 550
9.97999984398484 512
9.99999984353781 485
10.0199998430908 519
10.0399998426437 477
10.0599998421967 502
10.0799998417497 476
10.0999998413026 508
10.1199998408556 498
10.1399998404086 504
10.1599998399615 480
10.1799998395145 508
10.1999998390675 480
10.2199998386204 493
10.2399998381734 466
10.2599998377264 510
10.2799998372793 507
10.2999998368323 469
10.3199998363853 503
10.3399998359382 474
10.3599998354912 478
10.3799998350441 494
10.3999998345971 518
10.4199998341501 479
10.439999833703 511
10.459999833256 463
10.479999832809 512
10.4999998323619 494
10.5199998319149 503
10.5399998314679 504
10.5599998310208 501
10.5799998305738 484
10.5999998301268 498
10.6199998296797 530
10.6399998292327 527
10.6599998287857 517
10.6799998283386 558
10.6999998278916 518
10.7199998274446 519
10.7399998269975 503
10.7599998265505 551
10.7799998261034 517
10.7999998256564 538
10.8199998252094 508
10.8399998247623 508
10.8599998243153 509
10.8799998238683 523
10.8999998234212 504
10.9199998229742 479
10.9399998225272 479
10.9599998220801 473
10.9799998216331 459
10.9999998211861 493
11.019999820739 498
11.039999820292 469
11.059999819845 484
11.0799998193979 465
11.0999998189509 470
11.1199998185039 513
11.1399998180568 479
11.1599998176098 509
11.1799998171628 497
11.1999998167157 502
11.2199998162687 461
11.2399998158216 462
11.2599998153746 516
11.2799998149276 513
11.2999998144805 496
11.3199998140335 482
11.3399998135865 501
11.3599998131394 491
11.3799998126924 501
11.3999998122454 481
11.4199998117983 498
11.4399998113513 467
11.4599998109043 482
11.4799998104572 473
11.4999998100102 445
11.5199998095632 469
11.5399998091161 453
11.5599998086691 493
11.5799998082221 499
11.599999807775 492
11.619999807328 532
11.639999806881 438
11.6599998064339 485
11.6799998059869 514
11.6999998055398 425
11.7199998050928 494
11.7399998046458 474
11.7599998041987 469
11.7799998037517 476
11.7999998033047 491
11.8199998028576 477
11.8399998024106 471
11.8599998019636 499
11.8799998015165 493
11.8999998010695 494
11.9199998006225 483
11.9399998001754 438
11.9599997997284 466
11.9799997992814 469
11.9999997988343 481
12.0199997983873 454
12.0399997979403 483
12.0599997974932 500
12.0799997970462 481
12.0999997965992 467
12.1199997961521 436
12.1399997957051 502
12.159999795258 488
12.179999794811 468
12.199999794364 457
12.2199997939169 483
12.2399997934699 471
12.2599997930229 489
12.2799997925758 483
12.2999997921288 482
12.3199997916818 496
12.3399997912347 512
12.3599997907877 482
12.3799997903407 507
12.3999997898936 504
12.4199997894466 494
12.4399997889996 455
12.4599997885525 478
12.4799997881055 484
12.4999997876585 462
12.5199997872114 475
12.5399997867644 489
12.5599997863173 489
12.5799997858703 471
12.5999997854233 484
12.6199997849762 491
12.6399997845292 479
12.6599997840822 521
12.6799997836351 463
12.6999997831881 479
12.7199997827411 538
12.739999782294 472
12.759999781847 483
12.7799997814 496
12.7999997809529 507
12.8199997805059 483
12.8399997800589 473
12.8599997796118 505
12.8799997791648 497
12.8999997787178 473
12.9199997782707 514
12.9399997778237 440
12.9599997773767 542
12.9799997769296 479
12.9999997764826 502
13.0199997760355 477
13.0399997755885 536
13.0599997751415 457
13.0799997746944 492
13.0999997742474 493
13.1199997738004 509
13.1399997733533 510
13.1599997729063 517
13.1799997724593 470
13.1999997720122 527
13.2199997715652 527
13.2399997711182 524
13.2599997706711 511
13.2799997702241 461
13.2999997697771 492
13.31999976933 484
13.339999768883 525
13.359999768436 465
13.3799997679889 472
13.3999997675419 500
13.4199997670949 517
13.4399997666478 511
13.4599997662008 491
13.4799997657537 552
13.4999997653067 530
13.5199997648597 501
13.5399997644126 484
13.5599997639656 478
13.5799997635186 544
13.5999997630715 513
13.6199997626245 494
13.6399997621775 508
13.6599997617304 528
13.6799997612834 501
13.6999997608364 534
13.7199997603893 521
13.7399997599423 512
13.7599997594953 525
13.7799997590482 509
13.7999997586012 508
13.8199997581542 507
13.8399997577071 497
13.8599997572601 467
13.879999756813 510
13.899999756366 549
13.919999755919 541
13.9399997554719 527
13.9599997550249 504
13.9799997545779 507
13.9999997541308 516
14.0199997536838 529
14.0399997532368 494
14.0599997527897 537
14.0799997523427 534
14.0999997518957 510
14.1199997514486 487
14.1399997510016 530
14.1599997505546 555
14.1799997501075 515
14.1999997496605 511
14.2199997492135 530
14.2399997487664 515
14.2599997483194 518
14.2799997478724 520
14.2999997474253 499
14.3199997469783 542
14.3399997465312 536
14.3599997460842 502
14.3799997456372 556
14.3999997451901 524
14.4199997447431 504
14.4399997442961 524
14.459999743849 575
14.479999743402 524
14.499999742955 522
14.5199997425079 523
14.5399997420609 546
14.5599997416139 546
14.5799997411668 550
14.5999997407198 524
14.6199997402728 529
14.6399997398257 533
14.6599997393787 558
14.6799997389317 575
14.6999997384846 546
14.7199997380376 567
14.7399997375906 541
14.7599997371435 560
14.7799997366965 537
14.7999997362494 552
14.8199997358024 580
14.8399997353554 545
14.8599997349083 550
14.8799997344613 551
14.8999997340143 540
14.9199997335672 561
14.9399997331202 532
14.9599997326732 533
14.9799997322261 541
14.9999997317791 520
15.0199997313321 532
15.039999730885 538
15.059999730438 525
15.079999729991 536
15.0999997295439 552
15.1199997290969 549
15.1399997286499 545
15.1599997282028 533
15.1799997277558 597
15.1999997273088 590
15.2199997268617 579
15.2399997264147 535
15.2599997259676 543
15.2799997255206 608
15.2999997250736 580
15.3199997246265 548
15.3399997241795 568
15.3599997237325 552
15.3799997232854 553
15.3999997228384 560
15.4199997223914 562
15.4399997219443 599
15.4599997214973 598
15.4799997210503 587
15.4999997206032 553
15.5199997201562 576
15.5399997197092 542
15.5599997192621 611
15.5799997188151 584
15.5999997183681 579
15.619999717921 627
15.639999717474 592
15.659999717027 595
15.6799997165799 588
15.6999997161329 580
15.7199997156858 605
15.7399997152388 623
15.7599997147918 574
15.7799997143447 556
15.7999997138977 588
15.8199997134507 574
15.8399997130036 587
15.8599997125566 598
15.8799997121096 586
15.8999997116625 600
15.9199997112155 606
15.9399997107685 606
15.9599997103214 621
15.9799997098744 585
15.9999997094274 587
16.0199997089803 565
16.0399997085333 602
16.0599997080863 605
16.0799997076392 624
16.0999997071922 626
16.1199997067451 593
16.1399997062981 595
16.1599997058511 640
16.179999705404 625
16.199999704957 602
16.21999970451 637
16.2399997040629 606
16.2599997036159 636
16.2799997031689 611
16.2999997027218 627
16.3199997022748 602
16.3399997018278 633
16.3599997013807 617
16.3799997009337 637
16.3999997004867 610
16.4199997000396 629
16.4399996995926 630
16.4599996991456 678
16.4799996986985 590
16.4999996982515 637
16.5199996978045 607
16.5399996973574 626
16.5599996969104 651
16.5799996964633 642
16.5999996960163 678
16.6199996955693 673
16.6399996951222 662
16.6599996946752 629
16.6799996942282 655
16.6999996937811 693
16.7199996933341 682
16.7399996928871 712
16.75999969244 701
16.779999691993 682
16.799999691546 728
16.8199996910989 753
16.8399996906519 767
16.8599996902049 800
16.8799996897578 837
16.8999996893108 879
16.9199996888638 971
16.9399996884167 1065
16.9599996879697 1184
16.9799996875226 1249
16.9999996870756 1362
17.0199996866286 1311
17.0399996861815 1196
17.0599996857345 1061
17.0799996852875 947
17.0999996848404 884
17.1199996843934 810
17.1399996839464 752
17.1599996834993 759
17.1799996830523 782
17.1999996826053 709
17.2199996821582 734
17.2399996817112 674
17.2599996812642 710
17.2799996808171 695
17.2999996803701 690
17.3199996799231 681
17.339999679476 746
17.359999679029 740
17.379999678582 772
17.3999996781349 708
17.4199996776879 703
17.4399996772408 747
17.4599996767938 732
17.4799996763468 736
17.4999996758997 725
17.5199996754527 778
17.5399996750057 712
17.5599996745586 711
17.5799996741116 746
17.5999996736646 759
17.6199996732175 729
17.6399996727705 701
17.6599996723235 751
17.6799996718764 777
17.6999996714294 732
17.7199996709824 726
17.7399996705353 735
17.7599996700883 731
17.7799996696413 714
17.7999996691942 788
17.8199996687472 774
17.8399996683002 759
17.8599996678531 734
17.8799996674061 767
17.899999666959 752
17.919999666512 740
17.939999666065 783
17.9599996656179 812
17.9799996651709 785
17.9999996647239 747
18.0199996642768 740
18.0399996638298 712
18.0599996633828 751
18.0799996629357 790
18.0999996624887 777
18.1199996620417 743
18.1399996615946 790
18.1599996611476 808
18.1799996607006 827
18.1999996602535 830
18.2199996598065 800
18.2399996593595 792
18.2599996589124 775
18.2799996584654 836
18.2999996580184 740
18.3199996575713 760
18.3399996571243 781
18.3599996566772 836
18.3799996562302 783
18.3999996557832 802
18.4199996553361 774
18.4399996548891 797
18.4599996544421 837
18.479999653995 748
18.499999653548 823
18.519999653101 791
18.5399996526539 785
18.5599996522069 834
18.5799996517599 783
18.5999996513128 814
18.6199996508658 827
18.6399996504188 796
18.6599996499717 820
18.6799996495247 816
18.6999996490777 800
18.7199996486306 776
18.7399996481836 815
18.7599996477366 837
18.7799996472895 834
18.7999996468425 860
18.8199996463954 830
18.8399996459484 885
18.8599996455014 826
18.8799996450543 845
18.8999996446073 869
18.9199996441603 873
18.9399996437132 820
18.9599996432662 856
18.9799996428192 862
18.9999996423721 848
19.0199996419251 793
19.0399996414781 793
19.059999641031 821
19.079999640584 851
19.099999640137 870
19.1199996396899 869
19.1399996392429 875
19.1599996387959 893
19.1799996383488 878
19.1999996379018 889
19.2199996374547 881
19.2399996370077 939
19.2599996365607 880
19.2799996361136 863
19.2999996356666 934
19.3199996352196 884
19.3399996347725 910
19.3599996343255 940
19.3799996338785 898
19.3999996334314 948
19.4199996329844 957
19.4399996325374 977
19.4599996320903 923
19.4799996316433 936
19.4999996311963 995
19.5199996307492 925
19.5399996303022 946
19.5599996298552 922
19.5799996294081 877
19.5999996289611 927
19.6199996285141 912
19.639999628067 856
19.65999962762 889
19.6799996271729 886
19.6999996267259 909
19.7199996262789 914
19.7399996258318 939
19.7599996253848 961
19.7799996249378 907
19.7999996244907 912
19.8199996240437 913
19.8399996235967 954
19.8599996231496 989
19.8799996227026 985
19.8999996222556 952
19.9199996218085 936
19.9399996213615 930
19.9599996209145 913
19.9799996204674 884
19.9999996200204 950
