3 1416
3.01999999955297 1320
3.03999999910593 1346
3.0599999986589 1302
3.07999999821186 1291
3.09999999776483 1380
3.11999999731779 1288
3.13999999687076 1205
3.15999999642372 1258
3.17999999597669 1236
3.19999999552965 1216
3.21999999508262 1275
3.23999999463558 1205
3.25999999418855 1177
3.27999999374151 1171
3.29999999329448 1182
3.31999999284744 1225
3.33999999240041 1210
3.35999999195337 1103
3.37999999150634 1181
3.3999999910593 1153
3.41999999061227 1144
3.43999999016523 1118
3.4599999897182 1116
3.47999998927116 1146
3.49999998882413 1110
3.51999998837709 1108
3.53999998793006 1084
3.55999998748302 1071
3.57999998703599 1036
3.59999998658895 1066
3.61999998614192 1068
3.63999998569489 1039
3.65999998524785 1036
3.67999998480082 1025
3.69999998435378 1035
3.71999998390675 1063
3.73999998345971 1045
3.75999998301268 1065
3.77999998256564 1054
3.79999998211861 1037
3.81999998167157 1025
3.83999998122454 1046
3.8599999807775 1029
3.87999998033047 1037
3.89999997988343 1045
3.9199999794364 1019
3.93999997898936 995
3.95999997854233 1061
3.97999997809529 1029
3.99999997764826 1006
4.01999997720122 991
4.03999997675419 1010
4.05999997630715 1054
4.07999997586012 1023
4.09999997541308 972
4.11999997496605 987
4.13999997451901 970
4.15999997407198 1010
4.17999997362494 1000
4.19999997317791 928
4.21999997273087 959
4.23999997228384 998
4.25999997183681 942
4.27999997138977 1011
4.29999997094274 977
4.3199999704957 952
4.33999997004867 922
4.35999996960163 974
4.3799999691546 940
4.39999996870756 899
4.41999996826053 943
4.43999996781349 953
4.45999996736646 881
4.47999996691942 884
4.49999996647239 919
4.51999996602535 924
4.53999996557832 919
4.55999996513128 908
4.57999996468425 876
4.59999996423721 954
4.61999996379018 935
4.63999996334314 931
4.65999996289611 870
4.67999996244907 864
4.69999996200204 910
4.719999961555 879
4.73999996110797 905
4.75999996066093 882
4.7799999602139 872
4.79999995976686 902
4.81999995931983 889
4.83999995887279 880
4.85999995842576 931
4.87999995797873 865
4.89999995753169 902
4.91999995708466 895
4.93999995663762 863
4.95999995619059 847
4.97999995574355 873
4.99999995529652 905
5.01999995484948 864
5.03999995440245 864
5.05999995395541 849
5.07999995350838 871
5.09999995306134 856
5.11999995261431 832
5.13999995216727 876
5.15999995172024 899
5.1799999512732 866
5.19999995082617 888
5.21999995037913 940
5.2399999499321 906
5.25999994948506 874
5.27999994903803 877
5.29999994859099 902
5.31999994814396 924
5.33999994769692 945
5.35999994724989 926
5.37999994680285 942
5.39999994635582 1000
5.41999994590878 997
5.43999994546175 1049
5.45999994501471 1147
5.47999994456768 1119
5.49999994412065 1114
5.51999994367361 1118
5.53999994322658 987
5.55999994277954 896
5.57999994233251 876
5.59999994188547 858
5.61999994143844 783
5.6399999409914 752
5.65999994054437 741
5.67999994009733 767
5.6999999396503 755
5.71999993920326 772
5.73999993875623 697
5.75999993830919 718
5.77999993786216 736
5.79999993741512 730
5.81999993696809 673
5.83999993652105 705
5.85999993607402 705
5.87999993562698 693
5.89999993517995 692
5.91999993473291 684
5.93999993428588 651
5.95999993383884 667
5.97999993339181 642
5.99999993294477 642
6.01999993249774 626
6.0399999320507 660
6.05999993160367 633
6.07999993115663 655
6.0999999307096 614
6.11999993026257 633
6.13999992981553 646
6.1599999293685 607
6.17999992892146 590
6.19999992847443 577
6.21999992802739 594
6.23999992758036 579
6.25999992713332 608
6.27999992668629 655
6.29999992623925 579
6.31999992579222 595
6.33999992534518 577
6.35999992489815 596
6.37999992445111 597
6.39999992400408 581
6.41999992355704 568
6.43999992311001 602
6.45999992266297 608
6.47999992221594 582
6.4999999217689 547
6.51999992132187 578
6.53999992087483 558
6.5599999204278 540
6.57999991998076 528
6.59999991953373 569
6.61999991908669 557
6.63999991863966 529
6.65999991819262 573
6.67999991774559 551
6.69999991729855 535
6.71999991685152 498
6.73999991640449 585
6.75999991595745 611
6.77999991551042 552
6.79999991506338 548
6.81999991461635 538
6.83999991416931 556
6.85999991372228 562
6.87999991327524 527
6.89999991282821 530
6.91999991238117 518
6.93999991193414 540
6.9599999114871 536
6.97999991104007 534
6.99999991059303 551
7.019999910146 548
7.03999990969896 538
7.05999990925193 550
7.07999990880489 522
7.09999990835786 569
7.11999990791082 545
7.13999990746379 583
7.15999990701675 562
7.17999990656972 551
7.19999990612268 545
7.21999990567565 535
7.23999990522861 544
7.25999990478158 569
7.27999990433454 531
7.29999990388751 504
7.31999990344047 527
7.33999990299344 546
7.35999990254641 505
7.37999990209937 517
7.39999990165234 523
7.4199999012053 539
7.43999990075827 520
7.45999990031123 519
7.4799998998642 514
7.49999989941716 508
7.51999989897013 545
7.53999989852309 476
7.55999989807606 530
7.57999989762902 526
7.59999989718199 539
7.61999989673495 549
7.63999989628792 525
7.65999989584088 488
7.67999989539385 542
7.69999989494681 511
7.71999989449978 519
7.73999989405274 489
7.75999989360571 525
7.77999989315867 543
7.79999989271164 590
7.8199998922646 530
7.83999989181757 554
7.85999989137053 478
7.8799998909235 524
7.89999989047646 512
7.91999989002943 490
7.9399998895824 508
7.95999988913536 520
7.97999988868833 513
7.99999988824129 526
8.01999988779426 532
8.03999988734722 527
8.05999988690019 498
8.07999988645315 540
8.09999988600612 525
8.11999988555908 512
8.13999988511205 534
8.15999988466501 509
8.17999988421798 488
8.19999988377094 520
8.21999988332391 513
8.23999988287687 489
8.25999988242984 531
8.2799998819828 488
8.29999988153577 513
8.31999988108873 496
8.3399998806417 468
8.35999988019466 509
8.37999987974763 505
8.39999987930059 511
8.41999987885356 540
8.43999987840652 551
8.45999987795949 524
8.47999987751245 487
8.49999987706542 518
8.51999987661839 518
8.53999987617135 518
8.55999987572432 501
8.57999987527728 493
8.59999987483025 535
8.61999987438321 540
8.63999987393618 537
8.65999987348914 473
8.67999987304211 497
8.69999987259507 474
8.71999987214804 507
8.739999871701 540
8.75999987125397 495
8.77999987080693 530
8.7999998703599 498
8.81999986991286 539
8.83999986946583 494
8.85999986901879 508
8.87999986857176 498
8.89999986812472 494
8.91999986767769 481
8.93999986723065 493
8.95999986678362 523
8.97999986633658 510
8.99999986588955 473
9.01999986544251 539
9.03999986499548 494
9.05999986454844 537
9.07999986410141 524
9.09999986365438 561
9.11999986320734 486
9.13999986276031 503
9.15999986231327 484
9.17999986186624 526
9.1999998614192 567
9.21999986097217 502
9.23999986052513 505
9.2599998600781 539
9.27999985963106 518
9.29999985918403 526
9.31999985873699 531
9.33999985828996 543
9.35999985784292 580
9.37999985739589 604
9.39999985694885 613
9.41999985650182 605
9.43999985605478 629
9.45999985560775 531
9.47999985516071 524
9.49999985471368 512
9.51999985426664 539
9.53999985381961 519
9.55999985337257 532
9.57999985292554 505
9.5999998524785 460
9.61999985203147 463
9.63999985158443 496
9.6599998511374 478
9.67999985069037 523
9.69999985024333 475
9.7199998497963 518
9.73999984934926 527
9.75999984890223 484
9.77999984845519 480
9.79999984800816 481
9.81999984756112 501
9.83999984711409 513
9.85999984666705 484
9.87999984622002 490
9.89999984577298 479
9.91999984532595 484
9.93999984487891 533
9.95999984443188 523
9.97999984398484 471
9.99999984353781 506
10.0199998430908 460
10.0399998426437 493
10.0599998421967 472
10.0799998417497 471
10.0999998413026 460
10.1199998408556 470
10.1399998404086 501
10.1599998399615 487
10.1799998395145 468
10.1999998390675 502
10.2199998386204 434
10.2399998381734 486
10.2599998377264 500
10.2799998372793 491
10.2999998368323 503
10.3199998363853 503
10.3399998359382 462
10.3599998354912 495
10.3799998350441 503
10.3999998345971 479
10.4199998341501 485
10.439999833703 498
10.459999833256 504
10.479999832809 487
10.4999998323619 508
10.5199998319149 480
10.5399998314679 492
10.5599998310208 486
10.5799998305738 499
10.5999998301268 487
10.6199998296797 453
10.6399998292327 474
10.6599998287857 471
10.6799998283386 431
10.6999998278916 514
10.7199998274446 499
10.7399998269975 499
10.7599998265505 533
10.7799998261034 508
10.7999998256564 539
10.8199998252094 532
10.8399998247623 476
10.8599998243153 520
10.8799998238683 503
10.8999998234212 540
10.9199998229742 493
10.9399998225272 466
10.9599998220801 476
10.9799998216331 504
10.9999998211861 511
11.019999820739 485
11.039999820292 442
11.059999819845 468
11.0799998193979 497
11.0999998189509 484
11.1199998185039 490
11.1399998180568 486
11.1599998176098 453
11.1799998171628 507
11.1999998167157 478
11.2199998162687 502
11.2399998158216 469
11.2599998153746 500
11.2799998149276 503
11.2999998144805 512
11.3199998140335 491
11.3399998135865 489
11.3599998131394 440
11.3799998126924 445
11.3999998122454 455
11.4199998117983 489
11.4399998113513 475
11.4599998109043 483
11.4799998104572 483
11.4999998100102 474
11.5199998095632 510
11.5399998091161 470
11.5599998086691 477
11.5799998082221 500
11.599999807775 508
11.619999807328 491
11.639999806881 482
11.6599998064339 484
11.6799998059869 446
11.6999998055398 479
11.7199998050928 469
11.7399998046458 491
11.7599998041987 479
11.7799998037517 469
11.7999998033047 471
11.8199998028576 500
11.8399998024106 497
11.8599998019636 458
11.8799998015165 511
11.8999998010695 454
11.9199998006225 502
11.9399998001754 519
11.9599997997284 474
11.9799997992814 461
11.9999997988343 478
12.0199997983873 466
12.0399997979403 471
12.0599997974932 466
12.0799997970462 486
12.0999997965992 484
12.1199997961521 511
12.1399997957051 522
12.159999795258 490
12.179999794811 462
12.199999794364 478
12.2199997939169 475
12.2399997934699 518
12.2599997930229 499
12.2799997925758 493
12.2999997921288 512
12.3199997916818 458
12.3399997912347 511
12.3599997907877 477
12.3799997903407 511
12.3999997898936 518
12.4199997894466 488
12.4399997889996 493
12.4599997885525 523
12.4799997881055 510
12.4999997876585 547
12.5199997872114 510
12.5399997867644 478
12.5599997863173 480
12.5799997858703 489
12.5999997854233 525
12.6199997849762 514
12.6399997845292 498
12.6599997840822 501
12.6799997836351 516
12.6999997831881 499
12.7199997827411 511
12.739999782294 496
12.759999781847 487
12.7799997814 521
12.7999997809529 511
12.8199997805059 511
12.8399997800589 496
12.8599997796118 554
12.8799997791648 507
12.8999997787178 507
12.9199997782707 509
12.9399997778237 533
12.9599997773767 474
12.9799997769296 481
12.9999997764826 504
13.0199997760355 526
13.0399997755885 507
13.0599997751415 499
13.0799997746944 514
13.0999997742474 508
13.1199997738004 498
13.1399997733533 498
13.1599997729063 515
13.1799997724593 575
13.1999997720122 509
13.2199997715652 531
13.2399997711182 498
13.2599997706711 539
13.2799997702241 581
13.2999997697771 540
13.31999976933 568
13.339999768883 558
13.359999768436 514
13.3799997679889 540
13.3999997675419 523
13.4199997670949 523
13.4399997666478 549
13.4599997662008 524
13.4799997657537 520
13.4999997653067 536
13.5199997648597 548
13.5399997644126 572
13.5599997639656 583
13.5799997635186 530
13.5999997630715 537
13.6199997626245 529
13.6399997621775 547
13.6599997617304 521
13.6799997612834 531
13.6999997608364 538
13.7199997603893 568
13.7399997599423 556
13.7599997594953 554
13.7799997590482 526
13.7999997586012 548
13.8199997581542 541
13.8399997577071 552
13.8599997572601 544
13.879999756813 526
13.899999756366 562
13.919999755919 546
13.9399997554719 565
13.9599997550249 525
13.9799997545779 547
13.9999997541308 534
14.0199997536838 558
14.0399997532368 546
14.0599997527897 545
14.0799997523427 518
14.0999997518957 520
14.1199997514486 568
14.1399997510016 593
14.1599997505546 588
14.1799997501075 563
14.1999997496605 586
14.2199997492135 578
14.2399997487664 570
14.2599997483194 590
14.2799997478724 577
14.2999997474253 563
14.3199997469783 584
14.3399997465312 557
14.3599997460842 551
14.3799997456372 575
14.3999997451901 569
14.4199997447431 578
14.4399997442961 573
14.459999743849 596
14.479999743402 591
14.499999742955 610
14.5199997425079 628
14.5399997420609 549
14.5599997416139 565
14.5799997411668 567
14.5999997407198 587
14.6199997402728 568
14.6399997398257 588
14.6599997393787 592
14.6799997389317 619
14.6999997384846 629
14.7199997380376 589
14.7399997375906 607
14.7599997371435 576
14.7799997366965 619
14.7999997362494 556
14.8199997358024 589
14.8399997353554 591
14.8599997349083 593
14.8799997344613 605
14.8999997340143 569
14.9199997335672 565
14.9399997331202 593
14.9599997326732 595
14.9799997322261 607
14.9999997317791 633
15.0199997313321 604
15.039999730885 609
15.059999730438 597
15.079999729991 630
15.0999997295439 629
15.1199997290969 588
15.1399997286499 597
15.1599997282028 638
15.1799997277558 619
15.1999997273088 643
15.2199997268617 654
15.2399997264147 677
15.2599997259676 653
15.2799997255206 663
15.2999997250736 643
15.3199997246265 633
15.3399997241795 625
15.3599997237325 625
15.3799997232854 653
15.3999997228384 618
15.4199997223914 606
15.4399997219443 626
15.4599997214973 679
15.4799997210503 659
15.4999997206032 680
15.5199997201562 646
15.5399997197092 659
15.5599997192621 664
15.5799997188151 687
15.5999997183681 661
15.619999717921 635
15.639999717474 645
15.659999717027 627
15.6799997165799 653
15.6999997161329 618
15.7199997156858 653
15.7399997152388 651
15.7599997147918 688
15.7799997143447 692
15.7999997138977 671
15.8199997134507 706
15.8399997130036 656
15.8599997125566 687
15.8799997121096 697
15.8999997116625 692
15.9199997112155 700
15.9399997107685 699
15.9599997103214 693
15.9799997098744 720
15.9999997094274 684
16.0199997089803 693
16.0399997085333 687
16.0599997080863 655
16.0799997076392 711
16.0999997071922 746
16.1199997067451 718
16.1399997062981 693
16.1599997058511 713
16.179999705404 748
16.199999704957 727
16.21999970451 726
16.2399997040629 707
16.2599997036159 728
16.2799997031689 702
16.2999997027218 739
16.3199997022748 721
16.3399997018278 749
16.3599997013807 738
16.3799997009337 681
16.3999997004867 691
16.4199997000396 708
16.4399996995926 720
16.4599996991456 799
16.4799996986985 764
16.4999996982515 744
16.5199996978045 777
16.5399996973574 776
16.5599996969104 723
16.5799996964633 737
16.5999996960163 814
16.6199996955693 793
16.6399996951222 770
16.6599996946752 798
16.6799996942282 731
16.6999996937811 810
16.7199996933341 779
16.7399996928871 776
16.75999969244 797
16.779999691993 820
16.799999691546 854
16.8199996910989 799
16.8399996906519 846
16.8599996902049 878
16.8799996897578 915
16.8999996893108 945
16.9199996888638 941
16.9399996884167 1009
16.9599996879697 1149
16.9799996875226 1150
16.9999996870756 1206
17.0199996866286 1356
17.0399996861815 1448
17.0599996857345 1605
17.0799996852875 1613
17.0999996848404 1568
17.1199996843934 1367
17.1399996839464 1195
17.1599996834993 1111
17.1799996830523 989
17.1999996826053 905
17.2199996821582 844
17.2399996817112 887
17.2599996812642 904
17.2799996808171 835
17.2999996803701 882
17.3199996799231 825
17.339999679476 854
17.359999679029 901
17.379999678582 879
17.3999996781349 894
17.4199996776879 885
17.4399996772408 845
17.4599996767938 869
17.4799996763468 830
17.4999996758997 880
17.5199996754527 860
17.5399996750057 835
17.5599996745586 889
17.5799996741116 895
17.5999996736646 856
17.6199996732175 869
17.6399996727705 890
17.6599996723235 922
17.6799996718764 896
17.6999996714294 876
17.7199996709824 942
17.7399996705353 903
17.7599996700883 882
17.7799996696413 944
17.7999996691942 934
17.8199996687472 864
17.8399996683002 879
17.8599996678531 913
17.8799996674061 924
17.899999666959 958
17.919999666512 904
17.939999666065 919
17.9599996656179 885
17.9799996651709 920
17.9999996647239 984
18.0199996642768 893
18.0399996638298 918
18.0599996633828 949
18.0799996629357 948
18.0999996624887 943
18.1199996620417 905
18.1399996615946 941
18.1599996611476 885
18.1799996607006 941
18.1999996602535 966
18.2199996598065 992
18.2399996593595 957
18.2599996589124 962
18.2799996584654 938
18.2999996580184 964
18.3199996575713 1002
18.3399996571243 963
18.3599996566772 959
18.3799996562302 1045
18.3999996557832 940
18.4199996553361 981
18.4399996548891 989
18.4599996544421 995
18.479999653995 965
18.499999653548 970
18.519999653101 1011
18.5399996526539 983
18.5599996522069 980
18.5799996517599 1066
18.5999996513128 1025
18.6199996508658 995
18.6399996504188 1057
18.6599996499717 1019
18.6799996495247 1011
18.6999996490777 1042
18.7199996486306 1025
18.7399996481836 1077
18.7599996477366 1049
18.7799996472895 1002
18.7999996468425 1094
18.8199996463954 1047
18.8399996459484 1030
18.8599996455014 1067
18.8799996450543 1052
18.8999996446073 1007
18.9199996441603 1019
18.9399996437132 1047
18.9599996432662 1131
18.9799996428192 1083
18.9999996423721 1082
19.0199996419251 1059
19.0399996414781 1049
19.059999641031 1058
19.079999640584 1103
19.099999640137 1070
19.1199996396899 1080
19.1399996392429 1094
19.1599996387959 1063
19.1799996383488 1130
19.1999996379018 1062
19.2199996374547 1115
19.2399996370077 1141
19.2599996365607 1149
19.2799996361136 1169
19.2999996356666 1107
19.3199996352196 1093
19.3399996347725 1134
19.3599996343255 1153
19.3799996338785 1154
19.3999996334314 1119
19.4199996329844 1132
19.4399996325374 1159
19.4599996320903 1119
19.4799996316433 1175
19.4999996311963 1145
19.5199996307492 1215
19.5399996303022 1187
19.5599996298552 1128
19.5799996294081 1122
19.5999996289611 1159
19.6199996285141 1212
19.639999628067 1151
19.65999962762 1203
19.6799996271729 1262
19.6999996267259 1190
19.7199996262789 1172
19.7399996258318 1185
19.7599996253848 1169
19.7799996249378 1181
19.7999996244907 1208
19.8199996240437 1218
19.8399996235967 1212
19.8599996231496 1238
19.8799996227026 1230
19.8999996222556 1183
19.9199996218085 1259
19.9399996213615 1181
19.9599996209145 1224
19.9799996204674 1271
19.9999996200204 1226
