3 944
3.01999999955297 873
3.03999999910593 879
3.0599999986589 858
3.07999999821186 820
3.09999999776483 806
3.11999999731779 758
3.13999999687076 830
3.15999999642372 826
3.17999999597669 813
3.19999999552965 753
3.21999999508262 794
3.23999999463558 767
3.25999999418855 774
3.27999999374151 796
3.29999999329448 756
3.31999999284744 742
3.33999999240041 752
3.35999999195337 744
3.37999999150634 741
3.3999999910593 742
3.41999999061227 727
3.43999999016523 710
3.4599999897182 758
3.47999998927116 695
3.49999998882413 703
3.51999998837709 719
3.53999998793006 686
3.55999998748302 732
3.57999998703599 731
3.59999998658895 702
3.61999998614192 729
3.63999998569489 768
3.65999998524785 670
3.67999998480082 705
3.69999998435378 688
3.71999998390675 725
3.73999998345971 685
3.75999998301268 725
3.77999998256564 698
3.79999998211861 685
3.81999998167157 720
3.83999998122454 693
3.8599999807775 709
3.87999998033047 654
3.89999997988343 667
3.9199999794364 720
3.93999997898936 683
3.95999997854233 714
3.97999997809529 699
3.99999997764826 659
4.01999997720122 701
4.03999997675419 730
4.05999997630715 689
4.07999997586012 675
4.09999997541308 724
4.11999997496605 669
4.13999997451901 691
4.15999997407198 638
4.17999997362494 636
4.19999997317791 679
4.21999997273087 652
4.23999997228384 641
4.25999997183681 702
4.27999997138977 658
4.29999997094274 674
4.3199999704957 650
4.33999997004867 657
4.35999996960163 663
4.3799999691546 664
4.39999996870756 695
4.41999996826053 709
4.43999996781349 717
4.45999996736646 678
4.47999996691942 723
4.49999996647239 719
4.51999996602535 631
4.53999996557832 678
4.55999996513128 661
4.57999996468425 656
4.59999996423721 646
4.61999996379018 655
4.63999996334314 644
4.65999996289611 661
4.67999996244907 691
4.69999996200204 687
4.719999961555 657
4.73999996110797 677
4.75999996066093 633
4.7799999602139 682
4.79999995976686 697
4.81999995931983 682
4.83999995887279 673
4.85999995842576 654
4.87999995797873 711
4.89999995753169 689
4.91999995708466 688
4.93999995663762 685
4.95999995619059 700
4.97999995574355 685
4.99999995529652 656
5.01999995484948 718
5.03999995440245 644
5.05999995395541 661
5.07999995350838 676
5.09999995306134 698
5.11999995261431 711
5.13999995216727 699
5.15999995172024 720
5.1799999512732 741
5.19999995082617 726
5.21999995037913 695
5.2399999499321 703
5.25999994948506 754
5.27999994903803 726
5.29999994859099 709
5.31999994814396 771
5.33999994769692 776
5.35999994724989 799
5.37999994680285 747
5.39999994635582 760
5.41999994590878 809
5.43999994546175 829
5.45999994501471 803
5.47999994456768 872
5.49999994412065 898
5.51999994367361 876
5.53999994322658 820
5.55999994277954 907
5.57999994233251 898
5.59999994188547 981
5.61999994143844 992
5.6399999409914 956
5.65999994054437 967
5.67999994009733 1045
5.6999999396503 1037
5.71999993920326 1100
5.73999993875623 1016
5.75999993830919 1030
5.77999993786216 1007
5.79999993741512 931
5.81999993696809 854
5.83999993652105 818
5.85999993607402 731
5.87999993562698 720
5.89999993517995 673
5.91999993473291 673
5.93999993428588 683
5.95999993383884 593
5.97999993339181 626
5.99999993294477 641
6.01999993249774 560
6.0399999320507 643
6.05999993160367 588
6.07999993115663 579
6.0999999307096 548
6.11999993026257 551
6.13999992981553 583
6.1599999293685 557
6.17999992892146 541
6.19999992847443 550
6.21999992802739 531
6.23999992758036 522
6.25999992713332 523
6.27999992668629 533
6.29999992623925 555
6.31999992579222 567
6.33999992534518 513
6.35999992489815 514
6.37999992445111 490
6.39999992400408 506
6.41999992355704 481
6.43999992311001 490
6.45999992266297 503
6.47999992221594 488
6.4999999217689 511
6.51999992132187 484
6.53999992087483 476
6.5599999204278 539
6.57999991998076 481
6.59999991953373 475
6.61999991908669 476
6.63999991863966 488
6.65999991819262 466
6.67999991774559 469
6.69999991729855 487
6.71999991685152 461
6.73999991640449 442
6.75999991595745 456
6.77999991551042 464
6.79999991506338 468
6.81999991461635 519
6.83999991416931 453
6.85999991372228 421
6.87999991327524 458
6.89999991282821 444
6.91999991238117 402
6.93999991193414 435
6.9599999114871 472
6.97999991104007 411
6.99999991059303 437
7.019999910146 450
7.03999990969896 422
7.05999990925193 420
7.07999990880489 401
7.09999990835786 438
7.11999990791082 454
7.13999990746379 465
7.15999990701675 454
7.17999990656972 397
7.19999990612268 452
7.21999990567565 439
7.23999990522861 433
7.25999990478158 398
7.27999990433454 400
7.29999990388751 448
7.31999990344047 452
7.33999990299344 391
7.35999990254641 455
7.37999990209937 452
7.39999990165234 425
7.4199999012053 437
7.43999990075827 410
7.45999990031123 409
7.4799998998642 415
7.49999989941716 401
7.51999989897013 428
7.53999989852309 414
7.55999989807606 439
7.57999989762902 429
7.59999989718199 394
7.61999989673495 421
7.63999989628792 430
7.65999989584088 417
7.67999989539385 424
7.69999989494681 401
7.71999989449978 439
7.73999989405274 373
7.75999989360571 421
7.77999989315867 417
7.79999989271164 406
7.8199998922646 422
7.83999989181757 387
7.85999989137053 371
7.8799998909235 408
7.89999989047646 420
7.91999989002943 394
7.9399998895824 388
7.95999988913536 399
7.97999988868833 392
7.99999988824129 364
8.01999988779426 369
8.03999988734722 388
8.05999988690019 399
8.07999988645315 386
8.09999988600612 383
8.11999988555908 375
8.13999988511205 380
8.15999988466501 362
8.17999988421798 404
8.19999988377094 396
8.21999988332391 370
8.23999988287687 361
8.25999988242984 372
8.2799998819828 370
8.29999988153577 397
8.31999988108873 371
8.3399998806417 394
8.35999988019466 377
8.37999987974763 376
8.39999987930059 386
8.41999987885356 374
8.43999987840652 390
8.45999987795949 350
8.47999987751245 386
8.49999987706542 353
8.51999987661839 344
8.53999987617135 380
8.55999987572432 371
8.57999987527728 397
8.59999987483025 387
8.61999987438321 391
8.63999987393618 397
8.65999987348914 374
8.67999987304211 352
8.69999987259507 333
8.71999987214804 376
8.739999871701 353
8.75999987125397 351
8.77999987080693 336
8.7999998703599 349
8.81999986991286 375
8.83999986946583 355
8.85999986901879 351
8.87999986857176 348
8.89999986812472 378
8.91999986767769 340
8.93999986723065 355
8.95999986678362 370
8.97999986633658 355
8.99999986588955 368
9.01999986544251 340
9.03999986499548 342
9.05999986454844 375
9.07999986410141 362
9.09999986365438 356
9.11999986320734 377
9.13999986276031 383
9.15999986231327 371
9.17999986186624 389
9.1999998614192 354
9.21999986097217 328
9.23999986052513 344
9.2599998600781 366
9.27999985963106 372
9.29999985918403 362
9.31999985873699 369
9.33999985828996 373
9.35999985784292 369
9.37999985739589 391
9.39999985694885 403
9.41999985650182 377
9.43999985605478 416
9.45999985560775 401
9.47999985516071 411
9.49999985471368 405
9.51999985426664 421
9.53999985381961 453
9.55999985337257 428
9.57999985292554 452
9.5999998524785 455
9.61999985203147 476
9.63999985158443 427
9.6599998511374 461
9.67999985069037 457
9.69999985024333 425
9.7199998497963 467
9.73999984934926 420
9.75999984890223 414
9.77999984845519 412
9.79999984800816 394
9.81999984756112 404
9.83999984711409 373
9.85999984666705 371
9.87999984622002 377
9.89999984577298 373
9.91999984532595 347
9.93999984487891 348
9.95999984443188 360
9.97999984398484 354
9.99999984353781 327
10.0199998430908 344
10.0399998426437 326
10.0599998421967 343
10.0799998417497 366
10.0999998413026 320
10.1199998408556 327
10.1399998404086 330
10.1599998399615 325
10.1799998395145 322
10.1999998390675 349
10.2199998386204 353
10.2399998381734 307
10.2599998377264 304
10.2799998372793 332
10.2999998368323 352
10.3199998363853 334
10.3399998359382 325
10.3599998354912 319
10.3799998350441 348
10.3999998345971 307
10.4199998341501 308
10.439999833703 362
10.459999833256 339
10.479999832809 317
10.4999998323619 320
10.5199998319149 327
10.5399998314679 333
10.5599998310208 351
10.5799998305738 300
10.5999998301268 326
10.6199998296797 333
10.6399998292327 334
10.6599998287857 322
10.6799998283386 333
10.6999998278916 354
10.7199998274446 301
10.7399998269975 345
10.7599998265505 373
10.7799998261034 303
10.7999998256564 349
10.8199998252094 327
10.8399998247623 325
10.8599998243153 340
10.8799998238683 340
10.8999998234212 328
10.9199998229742 326
10.9399998225272 339
10.9599998220801 357
10.9799998216331 333
10.9999998211861 356
11.019999820739 364
11.039999820292 342
11.059999819845 356
11.0799998193979 337
11.0999998189509 333
11.1199998185039 324
11.1399998180568 333
11.1599998176098 314
11.1799998171628 356
11.1999998167157 345
11.2199998162687 336
11.2399998158216 346
11.2599998153746 347
11.2799998149276 340
11.2999998144805 299
11.3199998140335 320
11.3399998135865 334
11.3599998131394 308
11.3799998126924 328
11.3999998122454 345
11.4199998117983 340
11.4399998113513 313
11.4599998109043 337
11.4799998104572 310
11.4999998100102 304
11.5199998095632 290
11.5399998091161 304
11.5599998086691 313
11.5799998082221 315
11.599999807775 309
11.619999807328 338
11.639999806881 313
11.6599998064339 293
11.6799998059869 316
11.6999998055398 282
11.7199998050928 316
11.7399998046458 274
11.7599998041987 318
11.7799998037517 299
11.7999998033047 328
11.8199998028576 288
11.8399998024106 291
11.8599998019636 313
11.8799998015165 310
11.8999998010695 331
11.9199998006225 305
11.9399998001754 317
11.9599997997284 322
11.9799997992814 316
11.9999997988343 287
12.0199997983873 287
12.0399997979403 309
12.0599997974932 291
12.0799997970462 304
12.0999997965992 321
12.1199997961521 278
12.1399997957051 339
12.159999795258 316
12.179999794811 326
12.199999794364 306
12.2199997939169 287
12.2399997934699 317
12.2599997930229 314
12.2799997925758 295
12.2999997921288 323
12.3199997916818 304
12.3399997912347 318
12.3599997907877 311
12.3799997903407 304
12.3999997898936 329
12.4199997894466 319
12.4399997889996 344
12.4599997885525 295
12.4799997881055 337
12.4999997876585 301
12.5199997872114 306
12.5399997867644 291
12.5599997863173 318
12.5799997858703 308
12.5999997854233 292
12.6199997849762 335
12.6399997845292 334
12.6599997840822 280
12.6799997836351 285
12.6999997831881 317
12.7199997827411 303
12.739999782294 324
12.759999781847 314
12.7799997814 310
12.7999997809529 347
12.8199997805059 334
12.8399997800589 299
12.8599997796118 318
12.8799997791648 324
12.8999997787178 346
12.9199997782707 272
12.9399997778237 315
12.9599997773767 338
12.9799997769296 287
12.9999997764826 314
13.0199997760355 321
13.0399997755885 321
13.0599997751415 296
13.0799997746944 335
13.0999997742474 308
13.1199997738004 349
13.1399997733533 298
13.1599997729063 313
13.1799997724593 301
13.1999997720122 303
13.2199997715652 328
13.2399997711182 322
13.2599997706711 305
13.2799997702241 290
13.2999997697771 321
13.31999976933 301
13.339999768883 322
13.359999768436 321
13.3799997679889 322
13.3999997675419 317
13.4199997670949 345
13.4399997666478 321
13.4599997662008 319
13.4799997657537 319
13.4999997653067 331
13.5199997648597 288
13.5399997644126 320
13.5599997639656 287
13.5799997635186 340
13.5999997630715 329
13.6199997626245 328
13.6399997621775 304
13.6599997617304 300
13.6799997612834 306
13.6999997608364 295
13.7199997603893 327
13.7399997599423 287
13.7599997594953 321
13.7799997590482 329
13.7999997586012 341
13.8199997581542 294
13.8399997577071 340
13.8599997572601 321
13.879999756813 351
13.899999756366 321
13.919999755919 283
13.9399997554719 336
13.9599997550249 334
13.9799997545779 298
13.9999997541308 317
14.0199997536838 343
14.0399997532368 334
14.0599997527897 345
14.0799997523427 335
14.0999997518957 346
14.1199997514486 336
14.1399997510016 323
14.1599997505546 303
14.1799997501075 319
14.1999997496605 298
14.2199997492135 331
14.2399997487664 310
14.2599997483194 321
14.2799997478724 318
14.2999997474253 325
14.3199997469783 352
14.3399997465312 314
14.3599997460842 324
14.3799997456372 332
14.3999997451901 320
14.4199997447431 314
14.4399997442961 316
14.459999743849 334
14.479999743402 323
14.499999742955 314
14.5199997425079 338
14.5399997420609 320
14.5599997416139 324
14.5799997411668 300
14.5999997407198 338
14.6199997402728 319
14.6399997398257 352
14.6599997393787 342
14.6799997389317 340
14.6999997384846 319
14.7199997380376 357
14.7399997375906 303
14.7599997371435 309
14.7799997366965 342
14.7999997362494 350
14.8199997358024 299
14.8399997353554 361
14.8599997349083 322
14.8799997344613 311
14.8999997340143 309
14.9199997335672 338
14.9399997331202 356
14.9599997326732 323
14.9799997322261 349
14.9999997317791 323
15.0199997313321 320
15.039999730885 295
15.059999730438 333
15.079999729991 362
15.0999997295439 328
15.1199997290969 321
15.1399997286499 322
15.1599997282028 352
15.1799997277558 338
15.1999997273088 348
15.2199997268617 339
15.2399997264147 342
15.2599997259676 384
15.2799997255206 364
15.2999997250736 330
15.3199997246265 368
15.3399997241795 346
15.3599997237325 352
15.3799997232854 348
15.3999997228384 329
15.4199997223914 360
15.4399997219443 357
15.4599997214973 380
15.4799997210503 348
15.4999997206032 336
15.5199997201562 326
15.5399997197092 341
15.5599997192621 341
15.5799997188151 337
15.5999997183681 361
15.619999717921 358
15.639999717474 376
15.659999717027 358
15.6799997165799 342
15.6999997161329 330
15.7199997156858 344
15.7399997152388 332
15.7599997147918 353
15.7799997143447 320
15.7999997138977 338
15.8199997134507 357
15.8399997130036 324
15.8599997125566 331
15.8799997121096 333
15.8999997116625 343
15.9199997112155 387
15.9399997107685 363
15.9599997103214 334
15.9799997098744 327
15.9999997094274 336
16.0199997089803 348
16.0399997085333 342
16.0599997080863 354
16.0799997076392 335
16.0999997071922 358
16.1199997067451 403
16.1399997062981 362
16.1599997058511 344
16.179999705404 333
16.199999704957 360
16.21999970451 352
16.2399997040629 397
16.2599997036159 367
16.2799997031689 380
16.2999997027218 378
16.3199997022748 374
16.3399997018278 363
16.3599997013807 369
16.3799997009337 367
16.3999997004867 364
16.4199997000396 373
16.4399996995926 383
16.4599996991456 368
16.4799996986985 385
16.4999996982515 388
16.5199996978045 372
16.5399996973574 359
16.5599996969104 359
16.5799996964633 348
16.5999996960163 385
16.6199996955693 368
16.6399996951222 384
16.6599996946752 354
16.6799996942282 380
16.6999996937811 381
16.7199996933341 379
16.7399996928871 382
16.75999969244 392
16.779999691993 392
16.799999691546 389
16.8199996910989 406
16.8399996906519 417
16.8599996902049 421
16.8799996897578 405
16.8999996893108 410
16.9199996888638 409
16.9399996884167 449
16.9599996879697 460
16.9799996875226 469
16.9999996870756 437
17.0199996866286 415
17.0399996861815 452
17.0599996857345 491
17.0799996852875 487
17.0999996848404 479
17.1199996843934 483
17.1399996839464 495
17.1599996834993 504
17.1799996830523 525
17.1999996826053 549
17.2199996821582 524
17.2399996817112 562
17.2599996812642 600
17.2799996808171 586
17.2999996803701 599
17.3199996799231 603
17.339999679476 595
17.359999679029 555
17.379999678582 516
17.3999996781349 471
17.4199996776879 490
17.4399996772408 484
17.4599996767938 444
17.4799996763468 452
17.4999996758997 400
17.5199996754527 426
17.5399996750057 416
17.5599996745586 389
17.5799996741116 403
17.5999996736646 429
17.6199996732175 411
17.6399996727705 385
17.6599996723235 440
17.6799996718764 421
17.6999996714294 472
17.7199996709824 441
17.7399996705353 421
17.7599996700883 446
17.7799996696413 418
17.7999996691942 435
17.8199996687472 425
17.8399996683002 432
17.8599996678531 420
17.8799996674061 427
17.899999666959 444
17.919999666512 427
17.939999666065 457
17.9599996656179 421
17.9799996651709 391
17.9999996647239 430
18.0199996642768 447
18.0399996638298 440
18.0599996633828 453
18.0799996629357 457
18.0999996624887 403
18.1199996620417 404
18.1399996615946 475
18.1599996611476 427
18.1799996607006 427
18.1999996602535 419
18.2199996598065 452
18.2399996593595 438
18.2599996589124 452
18.2799996584654 448
18.2999996580184 445
18.3199996575713 429
18.3399996571243 444
18.3599996566772 482
18.3799996562302 448
18.3999996557832 433
18.4199996553361 440
18.4399996548891 446
18.4599996544421 448
18.479999653995 467
18.499999653548 433
18.519999653101 511
18.5399996526539 439
18.5599996522069 457
18.5799996517599 466
18.5999996513128 452
18.6199996508658 447
18.6399996504188 480
18.6599996499717 439
18.6799996495247 455
18.6999996490777 444
18.7199996486306 478
18.7399996481836 462
18.7599996477366 478
18.7799996472895 460
18.7999996468425 460
18.8199996463954 474
18.8399996459484 457
18.8599996455014 496
18.8799996450543 470
18.8999996446073 494
18.9199996441603 493
18.9399996437132 492
18.9599996432662 464
18.9799996428192 458
18.9999996423721 496
19.0199996419251 449
19.0399996414781 482
19.059999641031 515
19.079999640584 464
19.099999640137 488
19.1199996396899 473
19.1399996392429 474
19.1599996387959 474
19.1799996383488 498
19.1999996379018 513
19.2199996374547 493
19.2399996370077 512
19.2599996365607 492
19.2799996361136 500
19.2999996356666 469
19.3199996352196 467
19.3399996347725 509
19.3599996343255 554
19.3799996338785 479
19.3999996334314 504
19.4199996329844 555
19.4399996325374 492
19.4599996320903 489
19.4799996316433 540
19.4999996311963 513
19.5199996307492 504
19.5399996303022 487
19.5599996298552 516
19.5799996294081 536
19.5999996289611 568
19.6199996285141 557
19.639999628067 541
19.65999962762 542
19.6799996271729 540
19.6999996267259 517
19.7199996262789 550
19.7399996258318 521
19.7599996253848 524
19.7799996249378 543
19.7999996244907 511
19.8199996240437 539
19.8399996235967 509
19.8599996231496 565
19.8799996227026 551
19.8999996222556 556
19.9199996218085 518
19.9399996213615 611
19.9599996209145 530
19.9799996204674 556
19.9999996200204 539
