3 1668
3.01999999955297 1630
3.03999999910593 1589
3.0599999986589 1603
3.07999999821186 1564
3.09999999776483 1538
3.11999999731779 1478
3.13999999687076 1491
3.15999999642372 1485
3.17999999597669 1493
3.19999999552965 1425
3.21999999508262 1419
3.23999999463558 1470
3.25999999418855 1407
3.27999999374151 1419
3.29999999329448 1384
3.31999999284744 1344
3.33999999240041 1385
3.35999999195337 1373
3.37999999150634 1303
3.3999999910593 1386
3.41999999061227 1320
3.43999999016523 1326
3.4599999897182 1317
3.47999998927116 1239
3.49999998882413 1325
3.51999998837709 1230
3.53999998793006 1203
3.55999998748302 1293
3.57999998703599 1272
3.59999998658895 1234
3.61999998614192 1199
3.63999998569489 1139
3.65999998524785 1210
3.67999998480082 1138
3.69999998435378 1184
3.71999998390675 1110
3.73999998345971 1107
3.75999998301268 1154
3.77999998256564 1144
3.79999998211861 1175
3.81999998167157 1102
3.83999998122454 1103
3.8599999807775 1086
3.87999998033047 1086
3.89999997988343 1065
3.9199999794364 1080
3.93999997898936 1039
3.95999997854233 1071
3.97999997809529 1043
3.99999997764826 1004
4.01999997720122 1057
4.03999997675419 1020
4.05999997630715 1019
4.07999997586012 1012
4.09999997541308 1008
4.11999997496605 1011
4.13999997451901 950
4.15999997407198 993
4.17999997362494 992
4.19999997317791 1014
4.21999997273087 987
4.23999997228384 996
4.25999997183681 949
4.27999997138977 947
4.29999997094274 927
4.3199999704957 915
4.33999997004867 888
4.35999996960163 932
4.3799999691546 950
4.39999996870756 914
4.41999996826053 990
4.43999996781349 927
4.45999996736646 949
4.47999996691942 843
4.49999996647239 875
4.51999996602535 879
4.53999996557832 865
4.55999996513128 885
4.57999996468425 952
4.59999996423721 828
4.61999996379018 864
4.63999996334314 875
4.65999996289611 872
4.67999996244907 861
4.69999996200204 809
4.719999961555 855
4.73999996110797 847
4.75999996066093 884
4.7799999602139 868
4.79999995976686 900
4.81999995931983 851
4.83999995887279 750
4.85999995842576 880
4.87999995797873 889
4.89999995753169 872
4.91999995708466 873
4.93999995663762 903
4.95999995619059 832
4.97999995574355 817
4.99999995529652 854
5.01999995484948 835
5.03999995440245 868
5.05999995395541 880
5.07999995350838 908
5.09999995306134 900
5.11999995261431 919
5.13999995216727 928
5.15999995172024 905
5.1799999512732 928
5.19999995082617 883
5.21999995037913 859
5.2399999499321 984
5.25999994948506 956
5.27999994903803 1051
5.29999994859099 1015
5.31999994814396 1067
5.33999994769692 1090
5.35999994724989 1176
5.37999994680285 1240
5.39999994635582 1249
5.41999994590878 1331
5.43999994546175 1462
5.45999994501471 1511
5.47999994456768 1644
5.49999994412065 1639
5.51999994367361 1533
5.53999994322658 1296
5.55999994277954 1151
5.57999994233251 1043
5.59999994188547 909
5.61999994143844 888
5.6399999409914 889
5.65999994054437 792
5.67999994009733 838
5.6999999396503 822
5.71999993920326 833
5.73999993875623 757
5.75999993830919 768
5.77999993786216 700
5.79999993741512 786
5.81999993696809 786
5.83999993652105 726
5.85999993607402 716
5.87999993562698 737
5.89999993517995 728
5.91999993473291 683
5.93999993428588 696
5.95999993383884 730
5.97999993339181 710
5.99999993294477 677
6.01999993249774 693
6.0399999320507 673
6.05999993160367 658
6.07999993115663 639
6.0999999307096 653
6.11999993026257 604
6.13999992981553 628
6.1599999293685 637
6.17999992892146 663
6.19999992847443 654
6.21999992802739 560
6.23999992758036 648
6.25999992713332 603
6.27999992668629 594
6.29999992623925 614
6.31999992579222 625
6.33999992534518 613
6.35999992489815 623
6.37999992445111 599
6.39999992400408 613
6.41999992355704 602
6.43999992311001 593
6.45999992266297 590
6.47999992221594 603
6.4999999217689 590
6.51999992132187 575
6.53999992087483 600
6.5599999204278 617
6.57999991998076 607
6.59999991953373 601
6.61999991908669 569
6.63999991863966 611
6.65999991819262 545
6.67999991774559 594
6.69999991729855 595
6.71999991685152 579
6.73999991640449 577
6.75999991595745 616
6.77999991551042 602
6.79999991506338 558
6.81999991461635 589
6.83999991416931 622
6.85999991372228 575
6.87999991327524 558
6.89999991282821 584
6.91999991238117 546
6.93999991193414 566
6.9599999114871 569
6.97999991104007 550
6.99999991059303 553
7.019999910146 569
7.03999990969896 560
7.05999990925193 570
7.07999990880489 583
7.09999990835786 580
7.11999990791082 578
7.13999990746379 520
7.15999990701675 536
7.17999990656972 558
7.19999990612268 569
7.21999990567565 551
7.23999990522861 597
7.25999990478158 547
7.27999990433454 503
7.29999990388751 584
7.31999990344047 574
7.33999990299344 511
7.35999990254641 548
7.37999990209937 579
7.39999990165234 538
7.4199999012053 539
7.43999990075827 500
7.45999990031123 525
7.4799998998642 513
7.49999989941716 543
7.51999989897013 535
7.53999989852309 548
7.55999989807606 539
7.57999989762902 530
7.59999989718199 545
7.61999989673495 522
7.63999989628792 530
7.65999989584088 533
7.67999989539385 541
7.69999989494681 540
7.71999989449978 545
7.73999989405274 587
7.75999989360571 527
7.77999989315867 546
7.79999989271164 554
7.8199998922646 504
7.83999989181757 507
7.85999989137053 508
7.8799998909235 499
7.89999989047646 529
7.91999989002943 538
7.9399998895824 509
7.95999988913536 574
7.97999988868833 536
7.99999988824129 553
8.01999988779426 535
8.03999988734722 486
8.05999988690019 531
8.07999988645315 513
8.09999988600612 528
8.11999988555908 517
8.13999988511205 531
8.15999988466501 533
8.17999988421798 507
8.19999988377094 546
8.21999988332391 474
8.23999988287687 537
8.25999988242984 495
8.2799998819828 526
8.29999988153577 534
8.31999988108873 495
8.3399998806417 512
8.35999988019466 525
8.37999987974763 513
8.39999987930059 510
8.41999987885356 504
8.43999987840652 484
8.45999987795949 498
8.47999987751245 507
8.49999987706542 492
8.51999987661839 544
8.53999987617135 512
8.55999987572432 499
8.57999987527728 515
8.59999987483025 511
8.61999987438321 508
8.63999987393618 519
8.65999987348914 487
8.67999987304211 471
8.69999987259507 542
8.71999987214804 505
8.739999871701 484
8.75999987125397 488
8.77999987080693 496
8.7999998703599 533
8.81999986991286 495
8.83999986946583 511
8.85999986901879 480
8.87999986857176 520
8.89999986812472 459
8.91999986767769 487
8.93999986723065 506
8.95999986678362 537
8.97999986633658 506
8.99999986588955 512
9.01999986544251 496
9.03999986499548 493
9.05999986454844 470
9.07999986410141 520
9.09999986365438 529
9.11999986320734 530
9.13999986276031 562
9.15999986231327 527
9.17999986186624 538
9.1999998614192 566
9.21999986097217 543
9.23999986052513 587
9.2599998600781 542
9.27999985963106 561
9.29999985918403 645
9.31999985873699 637
9.33999985828996 667
9.35999985784292 713
9.37999985739589 739
9.39999985694885 800
9.41999985650182 789
9.43999985605478 745
9.45999985560775 677
9.47999985516071 614
9.49999985471368 563
9.51999985426664 609
9.53999985381961 522
9.55999985337257 547
9.57999985292554 555
9.5999998524785 515
9.61999985203147 502
9.63999985158443 473
9.6599998511374 479
9.67999985069037 469
9.69999985024333 462
9.7199998497963 502
9.73999984934926 485
9.75999984890223 465
9.77999984845519 491
9.79999984800816 491
9.81999984756112 495
9.83999984711409 467
9.85999984666705 488
9.87999984622002 525
9.89999984577298 509
9.91999984532595 484
9.93999984487891 506
9.95999984443188 524
9.97999984398484 531
9.99999984353781 450
10.0199998430908 529
10.0399998426437 502
10.0599998421967 499
10.0799998417497 505
10.0999998413026 497
10.1199998408556 495
10.1399998404086 474
10.1599998399615 482
10.1799998395145 505
10.1999998390675 506
10.2199998386204 493
10.2399998381734 492
10.2599998377264 468
10.2799998372793 501
10.2999998368323 518
10.3199998363853 483
10.3399998359382 500
10.3599998354912 476
10.3799998350441 501
10.3999998345971 464
10.4199998341501 514
10.439999833703 511
10.459999833256 490
10.479999832809 460
10.4999998323619 487
10.5199998319149 508
10.5399998314679 476
10.5599998310208 536
10.5799998305738 521
10.5999998301268 513
10.6199998296797 479
10.6399998292327 494
10.6599998287857 479
10.6799998283386 523
10.6999998278916 540
10.7199998274446 548
10.7399998269975 576
10.7599998265505 553
10.7799998261034 572
10.7999998256564 634
10.8199998252094 630
10.8399998247623 676
10.8599998243153 641
10.8799998238683 610
10.8999998234212 585
10.9199998229742 587
10.9399998225272 531
10.9599998220801 585
10.9799998216331 574
10.9999998211861 537
11.019999820739 513
11.039999820292 499
11.059999819845 506
11.0799998193979 524
11.0999998189509 469
11.1199998185039 501
11.1399998180568 527
11.1599998176098 505
11.1799998171628 488
11.1999998167157 503
11.2199998162687 473
11.2399998158216 468
11.2599998153746 492
11.2799998149276 495
11.2999998144805 492
11.3199998140335 479
11.3399998135865 475
11.3599998131394 521
11.3799998126924 498
11.3999998122454 518
11.4199998117983 508
11.4399998113513 487
11.4599998109043 503
11.4799998104572 479
11.4999998100102 478
11.5199998095632 501
11.5399998091161 512
11.5599998086691 503
11.5799998082221 489
11.599999807775 484
11.619999807328 485
11.639999806881 494
11.6599998064339 471
11.6799998059869 495
11.6999998055398 500
11.7199998050928 473
11.7399998046458 473
11.7599998041987 509
11.7799998037517 506
11.7999998033047 556
11.8199998028576 521
11.8399998024106 477
11.8599998019636 512
11.8799998015165 497
11.8999998010695 504
11.9199998006225 570
11.9399998001754 492
11.9599997997284 553
11.9799997992814 459
11.9999997988343 507
12.0199997983873 517
12.0399997979403 545
12.0599997974932 508
12.0799997970462 507
12.0999997965992 472
12.1199997961521 503
12.1399997957051 492
12.159999795258 499
12.179999794811 488
12.199999794364 471
12.2199997939169 483
12.2399997934699 500
12.2599997930229 519
12.2799997925758 497
12.2999997921288 514
12.3199997916818 518
12.3399997912347 546
12.3599997907877 528
12.3799997903407 539
12.3999997898936 554
12.4199997894466 506
12.4399997889996 497
12.4599997885525 534
12.4799997881055 526
12.4999997876585 479
12.5199997872114 489
12.5399997867644 518
12.5599997863173 506
12.5799997858703 508
12.5999997854233 531
12.6199997849762 525
12.6399997845292 528
12.6599997840822 544
12.6799997836351 494
12.6999997831881 503
12.7199997827411 471
12.739999782294 525
12.759999781847 531
12.7799997814 562
12.7999997809529 511
12.8199997805059 526
12.8399997800589 535
12.8599997796118 526
12.8799997791648 505
12.8999997787178 533
12.9199997782707 506
12.9399997778237 515
12.9599997773767 567
12.9799997769296 523
12.9999997764826 516
13.0199997760355 574
13.0399997755885 545
13.0599997751415 513
13.0799997746944 538
13.0999997742474 566
13.1199997738004 551
13.1399997733533 553
13.1599997729063 558
13.1799997724593 547
13.1999997720122 530
13.2199997715652 557
13.2399997711182 555
13.2599997706711 566
13.2799997702241 562
13.2999997697771 521
13.31999976933 546
13.339999768883 534
13.359999768436 568
13.3799997679889 569
13.3999997675419 520
13.4199997670949 573
13.4399997666478 587
13.4599997662008 575
13.4799997657537 573
13.4999997653067 559
13.5199997648597 597
13.5399997644126 543
13.5599997639656 601
13.5799997635186 533
13.5999997630715 553
13.6199997626245 575
13.6399997621775 560
13.6599997617304 570
13.6799997612834 540
13.6999997608364 553
13.7199997603893 540
13.7399997599423 578
13.7599997594953 559
13.7799997590482 565
13.7999997586012 611
13.8199997581542 595
13.8399997577071 574
13.8599997572601 591
13.879999756813 571
13.899999756366 554
13.919999755919 559
13.9399997554719 598
13.9599997550249 601
13.9799997545779 556
13.9999997541308 577
14.0199997536838 590
14.0399997532368 554
14.0599997527897 593
14.0799997523427 581
14.0999997518957 593
14.1199997514486 579
14.1399997510016 610
14.1599997505546 609
14.1799997501075 574
14.1999997496605 605
14.2199997492135 611
14.2399997487664 589
14.2599997483194 619
14.2799997478724 627
14.2999997474253 572
14.3199997469783 662
14.3399997465312 598
14.3599997460842 617
14.3799997456372 613
14.3999997451901 608
14.4199997447431 595
14.4399997442961 591
14.459999743849 628
14.479999743402 600
14.499999742955 610
14.5199997425079 577
14.5399997420609 667
14.5599997416139 578
14.5799997411668 623
14.5999997407198 597
14.6199997402728 594
14.6399997398257 608
14.6599997393787 602
14.6799997389317 640
14.6999997384846 612
14.7199997380376 623
14.7399997375906 645
14.7599997371435 583
14.7799997366965 609
14.7999997362494 609
14.8199997358024 655
14.8399997353554 666
14.8599997349083 613
14.8799997344613 605
14.8999997340143 617
14.9199997335672 641
14.9399997331202 627
14.9599997326732 612
14.9799997322261 647
14.9999997317791 630
15.0199997313321 606
15.039999730885 630
15.059999730438 651
15.079999729991 631
15.0999997295439 638
15.1199997290969 657
15.1399997286499 661
15.1599997282028 675
15.1799997277558 706
15.1999997273088 673
15.2199997268617 655
15.2399997264147 681
15.2599997259676 690
15.2799997255206 621
15.2999997250736 641
15.3199997246265 730
15.3399997241795 634
15.3599997237325 631
15.3799997232854 691
15.3999997228384 664
15.4199997223914 672
15.4399997219443 674
15.4599997214973 720
15.4799997210503 663
15.4999997206032 633
15.5199997201562 642
15.5399997197092 703
15.5599997192621 659
15.5799997188151 650
15.5999997183681 637
15.619999717921 677
15.639999717474 689
15.659999717027 685
15.6799997165799 669
15.6999997161329 735
15.7199997156858 665
15.7399997152388 677
15.7599997147918 742
15.7799997143447 705
15.7999997138977 675
15.8199997134507 711
15.8399997130036 686
15.8599997125566 723
15.8799997121096 684
15.8999997116625 681
15.9199997112155 701
15.9399997107685 712
15.9599997103214 756
15.9799997098744 762
15.9999997094274 729
16.0199997089803 698
16.0399997085333 709
16.0599997080863 705
16.0799997076392 741
16.0999997071922 754
16.1199997067451 740
16.1399997062981 773
16.1599997058511 733
16.179999705404 725
16.199999704957 732
16.21999970451 749
16.2399997040629 761
16.2599997036159 732
16.2799997031689 733
16.2999997027218 752
16.3199997022748 747
16.3399997018278 788
16.3599997013807 739
16.3799997009337 785
16.3999997004867 717
16.4199997000396 786
16.4399996995926 765
16.4599996991456 783
16.4799996986985 751
16.4999996982515 801
16.5199996978045 825
16.5399996973574 809
16.5599996969104 759
16.5799996964633 785
16.5999996960163 784
16.6199996955693 774
16.6399996951222 800
16.6599996946752 827
16.6799996942282 797
16.6999996937811 853
16.7199996933341 870
16.7399996928871 872
16.75999969244 856
16.779999691993 821
16.799999691546 825
16.8199996910989 895
16.8399996906519 901
16.8599996902049 963
16.8799996897578 966
16.8999996893108 989
16.9199996888638 1041
16.9399996884167 1030
16.9599996879697 1205
16.9799996875226 1225
16.9999996870756 1295
17.0199996866286 1387
17.0399996861815 1604
17.0599996857345 1617
17.0799996852875 1577
17.0999996848404 1579
17.1199996843934 1401
17.1399996839464 1236
17.1599996834993 1092
17.1799996830523 981
17.1999996826053 967
17.2199996821582 968
17.2399996817112 904
17.2599996812642 918
17.2799996808171 898
17.2999996803701 939
17.3199996799231 869
17.339999679476 865
17.359999679029 861
17.379999678582 934
17.3999996781349 949
17.4199996776879 901
17.4399996772408 917
17.4599996767938 936
17.4799996763468 902
17.4999996758997 872
17.5199996754527 962
17.5399996750057 925
17.5599996745586 976
17.5799996741116 907
17.5999996736646 928
17.6199996732175 936
17.6399996727705 938
17.6599996723235 921
17.6799996718764 889
17.6999996714294 918
17.7199996709824 928
17.7399996705353 965
17.7599996700883 986
17.7799996696413 1022
17.7999996691942 960
17.8199996687472 984
17.8399996683002 1030
17.8599996678531 937
17.8799996674061 992
17.899999666959 954
17.919999666512 1003
17.939999666065 982
17.9599996656179 966
17.9799996651709 1005
17.9999996647239 1067
18.0199996642768 999
18.0399996638298 999
18.0599996633828 1002
18.0799996629357 1012
18.0999996624887 948
18.1199996620417 1006
18.1399996615946 1025
18.1599996611476 1016
18.1799996607006 977
18.1999996602535 1005
18.2199996598065 1002
18.2399996593595 998
18.2599996589124 1031
18.2799996584654 1018
18.2999996580184 1041
18.3199996575713 1021
18.3399996571243 1034
18.3599996566772 1087
18.3799996562302 1084
18.3999996557832 999
18.4199996553361 1049
18.4399996548891 1028
18.4599996544421 1042
18.479999653995 1004
18.499999653548 1059
18.519999653101 1090
18.5399996526539 1074
18.5599996522069 1063
18.5799996517599 1064
18.5999996513128 1096
18.6199996508658 1088
18.6399996504188 1093
18.6599996499717 1067
18.6799996495247 1076
18.6999996490777 1121
18.7199996486306 1133
18.7399996481836 1090
18.7599996477366 1113
18.7799996472895 1114
18.7999996468425 1093
18.8199996463954 1101
18.8399996459484 1077
18.8599996455014 1104
18.8799996450543 1084
18.8999996446073 1128
18.9199996441603 1096
18.9399996437132 1129
18.9599996432662 1118
18.9799996428192 1162
18.9999996423721 1099
19.0199996419251 1120
19.0399996414781 1181
19.059999641031 1199
19.079999640584 1155
19.099999640137 1185
19.1199996396899 1113
19.1399996392429 1168
19.1599996387959 1212
19.1799996383488 1171
19.1999996379018 1220
19.2199996374547 1202
19.2399996370077 1167
19.2599996365607 1163
19.2799996361136 1190
19.2999996356666 1207
19.3199996352196 1171
19.3399996347725 1229
19.3599996343255 1201
19.3799996338785 1183
19.3999996334314 1222
19.4199996329844 1253
19.4399996325374 1246
19.4599996320903 1251
19.4799996316433 1278
19.4999996311963 1289
19.5199996307492 1297
19.5399996303022 1294
19.5599996298552 1260
19.5799996294081 1332
19.5999996289611 1243
19.6199996285141 1283
19.639999628067 1331
19.65999962762 1251
19.6799996271729 1260
19.6999996267259 1174
19.7199996262789 1278
19.7399996258318 1300
19.7599996253848 1283
19.7799996249378 1312
19.7999996244907 1230
19.8199996240437 1314
19.8399996235967 1228
19.8599996231496 1288
19.8799996227026 1349
19.8999996222556 1240
19.9199996218085 1280
19.9399996213615 1271
19.9599996209145 1335
19.9799996204674 1283
19.9999996200204 1284
