3 1897
3.01999999955297 1846
3.03999999910593 1771
3.0599999986589 1725
3.07999999821186 1769
3.09999999776483 1744
3.11999999731779 1725
3.13999999687076 1653
3.15999999642372 1589
3.17999999597669 1638
3.19999999552965 1603
3.21999999508262 1646
3.23999999463558 1695
3.25999999418855 1673
3.27999999374151 1605
3.29999999329448 1490
3.31999999284744 1551
3.33999999240041 1470
3.35999999195337 1506
3.37999999150634 1510
3.3999999910593 1471
3.41999999061227 1456
3.43999999016523 1461
3.4599999897182 1438
3.47999998927116 1448
3.49999998882413 1414
3.51999998837709 1462
3.53999998793006 1468
3.55999998748302 1385
3.57999998703599 1336
3.59999998658895 1417
3.61999998614192 1317
3.63999998569489 1381
3.65999998524785 1304
3.67999998480082 1386
3.69999998435378 1389
3.71999998390675 1305
3.73999998345971 1275
3.75999998301268 1288
3.77999998256564 1317
3.79999998211861 1299
3.81999998167157 1272
3.83999998122454 1240
3.8599999807775 1192
3.87999998033047 1268
3.89999997988343 1295
3.9199999794364 1244
3.93999997898936 1243
3.95999997854233 1178
3.97999997809529 1256
3.99999997764826 1211
4.01999997720122 1225
4.03999997675419 1178
4.05999997630715 1216
4.07999997586012 1202
4.09999997541308 1194
4.11999997496605 1106
4.13999997451901 1160
4.15999997407198 1163
4.17999997362494 1133
4.19999997317791 1136
4.21999997273087 1157
4.23999997228384 1065
4.25999997183681 1092
4.27999997138977 1129
4.29999997094274 1106
4.3199999704957 1122
4.33999997004867 1110
4.35999996960163 1108
4.3799999691546 1098
4.39999996870756 1134
4.41999996826053 1069
4.43999996781349 1021
4.45999996736646 1067
4.47999996691942 1079
4.49999996647239 1057
4.51999996602535 1096
4.53999996557832 1094
4.55999996513128 1086
4.57999996468425 1035
4.59999996423721 1095
4.61999996379018 1045
4.63999996334314 998
4.65999996289611 1012
4.67999996244907 1054
4.69999996200204 1050
4.719999961555 1040
4.73999996110797 1075
4.75999996066093 1026
4.7799999602139 1028
4.79999995976686 1048
4.81999995931983 990
4.83999995887279 1031
4.85999995842576 977
4.87999995797873 1003
4.89999995753169 978
4.91999995708466 1014
4.93999995663762 1014
4.95999995619059 952
4.97999995574355 967
4.99999995529652 942
5.01999995484948 1045
5.03999995440245 973
5.05999995395541 1005
5.07999995350838 990
5.09999995306134 963
5.11999995261431 944
5.13999995216727 993
5.15999995172024 1002
5.1799999512732 982
5.19999995082617 1001
5.21999995037913 993
5.2399999499321 990
5.25999994948506 1062
5.27999994903803 1032
5.29999994859099 1074
5.31999994814396 1010
5.33999994769692 1091
5.35999994724989 1103
5.37999994680285 1160
5.39999994635582 1142
5.41999994590878 1199
5.43999994546175 1228
5.45999994501471 1115
5.47999994456768 1175
5.49999994412065 1106
5.51999994367361 1084
5.53999994322658 1086
5.55999994277954 1033
5.57999994233251 1012
5.59999994188547 929
5.61999994143844 961
5.6399999409914 962
5.65999994054437 911
5.67999994009733 958
5.6999999396503 897
5.71999993920326 968
5.73999993875623 951
5.75999993830919 1049
5.77999993786216 1031
5.79999993741512 947
5.81999993696809 984
5.83999993652105 949
5.85999993607402 941
5.87999993562698 839
5.89999993517995 801
5.91999993473291 771
5.93999993428588 793
5.95999993383884 773
5.97999993339181 784
5.99999993294477 695
6.01999993249774 727
6.0399999320507 744
6.05999993160367 749
6.07999993115663 712
6.0999999307096 658
6.11999993026257 698
6.13999992981553 715
6.1599999293685 674
6.17999992892146 703
6.19999992847443 693
6.21999992802739 660
6.23999992758036 635
6.25999992713332 649
6.27999992668629 634
6.29999992623925 612
6.31999992579222 636
6.33999992534518 646
6.35999992489815 643
6.37999992445111 615
6.39999992400408 593
6.41999992355704 589
6.43999992311001 620
6.45999992266297 635
6.47999992221594 622
6.4999999217689 638
6.51999992132187 621
6.53999992087483 611
6.5599999204278 623
6.57999991998076 599
6.59999991953373 581
6.61999991908669 599
6.63999991863966 565
6.65999991819262 554
6.67999991774559 586
6.69999991729855 571
6.71999991685152 563
6.73999991640449 525
6.75999991595745 544
6.77999991551042 605
6.79999991506338 559
6.81999991461635 597
6.83999991416931 594
6.85999991372228 556
6.87999991327524 545
6.89999991282821 522
6.91999991238117 537
6.93999991193414 573
6.9599999114871 558
6.97999991104007 537
6.99999991059303 552
7.019999910146 602
7.03999990969896 538
7.05999990925193 563
7.07999990880489 569
7.09999990835786 570
7.11999990791082 587
7.13999990746379 523
7.15999990701675 535
7.17999990656972 499
7.19999990612268 529
7.21999990567565 548
7.23999990522861 541
7.25999990478158 499
7.27999990433454 490
7.29999990388751 516
7.31999990344047 486
7.33999990299344 474
7.35999990254641 516
7.37999990209937 517
7.39999990165234 478
7.4199999012053 495
7.43999990075827 503
7.45999990031123 528
7.4799998998642 520
7.49999989941716 507
7.51999989897013 512
7.53999989852309 502
7.55999989807606 484
7.57999989762902 547
7.59999989718199 534
7.61999989673495 465
7.63999989628792 499
7.65999989584088 499
7.67999989539385 493
7.69999989494681 481
7.71999989449978 512
7.73999989405274 511
7.75999989360571 489
7.77999989315867 525
7.79999989271164 480
7.8199998922646 500
7.83999989181757 495
7.85999989137053 456
7.8799998909235 515
7.89999989047646 506
7.91999989002943 491
7.9399998895824 490
7.95999988913536 484
7.97999988868833 467
7.99999988824129 507
8.01999988779426 524
8.03999988734722 488
8.05999988690019 483
8.07999988645315 461
8.09999988600612 468
8.11999988555908 513
8.13999988511205 452
8.15999988466501 459
8.17999988421798 450
8.19999988377094 462
8.21999988332391 494
8.23999988287687 467
8.25999988242984 508
8.2799998819828 512
8.29999988153577 506
8.31999988108873 430
8.3399998806417 480
8.35999988019466 479
8.37999987974763 472
8.39999987930059 490
8.41999987885356 480
8.43999987840652 441
8.45999987795949 483
8.47999987751245 465
8.49999987706542 468
8.51999987661839 462
8.53999987617135 471
8.55999987572432 460
8.57999987527728 466
8.59999987483025 488
8.61999987438321 505
8.63999987393618 459
8.65999987348914 445
8.67999987304211 488
8.69999987259507 502
8.71999987214804 453
8.739999871701 480
8.75999987125397 446
8.77999987080693 457
8.7999998703599 469
8.81999986991286 482
8.83999986946583 434
8.85999986901879 442
8.87999986857176 466
8.89999986812472 459
8.91999986767769 498
8.93999986723065 476
8.95999986678362 448
8.97999986633658 429
8.99999986588955 455
9.01999986544251 475
9.03999986499548 489
9.05999986454844 500
9.07999986410141 487
9.09999986365438 441
9.11999986320734 428
9.13999986276031 465
9.15999986231327 466
9.17999986186624 488
9.1999998614192 530
9.21999986097217 483
9.23999986052513 447
9.2599998600781 516
9.27999985963106 516
9.29999985918403 539
9.31999985873699 514
9.33999985828996 540
9.35999985784292 517
9.37999985739589 499
9.39999985694885 565
9.41999985650182 542
9.43999985605478 490
9.45999985560775 516
9.47999985516071 470
9.49999985471368 467
9.51999985426664 522
9.53999985381961 459
9.55999985337257 467
9.57999985292554 506
9.5999998524785 438
9.61999985203147 476
9.63999985158443 461
9.6599998511374 418
9.67999985069037 486
9.69999985024333 475
9.7199998497963 487
9.73999984934926 484
9.75999984890223 494
9.77999984845519 496
9.79999984800816 492
9.81999984756112 462
9.83999984711409 474
9.85999984666705 487
9.87999984622002 428
9.89999984577298 461
9.91999984532595 440
9.93999984487891 456
9.95999984443188 474
9.97999984398484 457
9.99999984353781 437
10.0199998430908 450
10.0399998426437 448
10.0599998421967 430
10.0799998417497 437
10.0999998413026 426
10.1199998408556 403
10.1399998404086 466
10.1599998399615 450
10.1799998395145 413
10.1999998390675 415
10.2199998386204 458
10.2399998381734 417
10.2599998377264 425
10.2799998372793 417
10.2999998368323 431
10.3199998363853 427
10.3399998359382 402
10.3599998354912 433
10.3799998350441 447
10.3999998345971 402
10.4199998341501 386
10.439999833703 415
10.459999833256 436
10.479999832809 428
10.4999998323619 443
10.5199998319149 423
10.5399998314679 404
10.5599998310208 416
10.5799998305738 428
10.5999998301268 413
10.6199998296797 435
10.6399998292327 451
10.6599998287857 401
10.6799998283386 435
10.6999998278916 433
10.7199998274446 492
10.7399998269975 448
10.7599998265505 522
10.7799998261034 475
10.7999998256564 479
10.8199998252094 491
10.8399998247623 457
10.8599998243153 466
10.8799998238683 422
10.8999998234212 488
10.9199998229742 444
10.9399998225272 443
10.9599998220801 427
10.9799998216331 429
10.9999998211861 471
11.019999820739 456
11.039999820292 398
11.059999819845 430
11.0799998193979 424
11.0999998189509 420
11.1199998185039 467
11.1399998180568 416
11.1599998176098 417
11.1799998171628 422
11.1999998167157 440
11.2199998162687 412
11.2399998158216 400
11.2599998153746 449
11.2799998149276 415
11.2999998144805 447
11.3199998140335 389
11.3399998135865 415
11.3599998131394 406
11.3799998126924 401
11.3999998122454 417
11.4199998117983 412
11.4399998113513 422
11.4599998109043 373
11.4799998104572 445
11.4999998100102 420
11.5199998095632 456
11.5399998091161 464
11.5599998086691 417
11.5799998082221 435
11.599999807775 425
11.619999807328 428
11.639999806881 406
11.6599998064339 419
11.6799998059869 399
11.6999998055398 415
11.7199998050928 406
11.7399998046458 413
11.7599998041987 403
11.7799998037517 415
11.7999998033047 415
11.8199998028576 456
11.8399998024106 406
11.8599998019636 444
11.8799998015165 422
11.8999998010695 431
11.9199998006225 410
11.9399998001754 394
11.9599997997284 417
11.9799997992814 394
11.9999997988343 420
12.0199997983873 409
12.0399997979403 391
12.0599997974932 432
12.0799997970462 438
12.0999997965992 435
12.1199997961521 430
12.1399997957051 422
12.159999795258 434
12.179999794811 412
12.199999794364 440
12.2199997939169 408
12.2399997934699 428
12.2599997930229 412
12.2799997925758 425
12.2999997921288 406
12.3199997916818 418
12.3399997912347 417
12.3599997907877 394
12.3799997903407 436
12.3999997898936 418
12.4199997894466 415
12.4399997889996 420
12.4599997885525 381
12.4799997881055 366
12.4999997876585 415
12.5199997872114 402
12.5399997867644 406
12.5599997863173 400
12.5799997858703 431
12.5999997854233 408
12.6199997849762 389
12.6399997845292 385
12.6599997840822 457
12.6799997836351 433
12.6999997831881 369
12.7199997827411 432
12.739999782294 430
12.759999781847 399
12.7799997814 427
12.7999997809529 379
12.8199997805059 405
12.8399997800589 410
12.8599997796118 396
12.8799997791648 417
12.8999997787178 430
12.9199997782707 411
12.9399997778237 416
12.9599997773767 412
12.9799997769296 397
12.9999997764826 422
13.0199997760355 414
13.0399997755885 409
13.0599997751415 439
13.0799997746944 438
13.0999997742474 418
13.1199997738004 405
13.1399997733533 438
13.1599997729063 421
13.1799997724593 414
13.1999997720122 396
13.2199997715652 465
13.2399997711182 388
13.2599997706711 474
13.2799997702241 427
13.2999997697771 423
13.31999976933 430
13.339999768883 401
13.359999768436 379
13.3799997679889 408
13.3999997675419 430
13.4199997670949 428
13.4399997666478 427
13.4599997662008 443
13.4799997657537 475
13.4999997653067 459
13.5199997648597 418
13.5399997644126 399
13.5599997639656 438
13.5799997635186 438
13.5999997630715 417
13.6199997626245 435
13.6399997621775 444
13.6599997617304 432
13.6799997612834 445
13.6999997608364 423
13.7199997603893 459
13.7399997599423 450
13.7599997594953 446
13.7799997590482 413
13.7999997586012 387
13.8199997581542 452
13.8399997577071 473
13.8599997572601 451
13.879999756813 440
13.899999756366 449
13.919999755919 409
13.9399997554719 439
13.9599997550249 436
13.9799997545779 398
13.9999997541308 403
14.0199997536838 406
14.0399997532368 447
14.0599997527897 425
14.0799997523427 442
14.0999997518957 418
14.1199997514486 455
14.1399997510016 449
14.1599997505546 412
14.1799997501075 463
14.1999997496605 458
14.2199997492135 442
14.2399997487664 449
14.2599997483194 462
14.2799997478724 430
14.2999997474253 448
14.3199997469783 447
14.3399997465312 453
14.3599997460842 448
14.3799997456372 425
14.3999997451901 503
14.4199997447431 460
14.4399997442961 457
14.459999743849 438
14.479999743402 437
14.499999742955 432
14.5199997425079 447
14.5399997420609 468
14.5599997416139 453
14.5799997411668 458
14.5999997407198 414
14.6199997402728 480
14.6399997398257 450
14.6599997393787 414
14.6799997389317 457
14.6999997384846 455
14.7199997380376 443
14.7399997375906 454
14.7599997371435 438
14.7799997366965 483
14.7999997362494 472
14.8199997358024 460
14.8399997353554 421
14.8599997349083 460
14.8799997344613 478
14.8999997340143 439
14.9199997335672 465
14.9399997331202 464
14.9599997326732 457
14.9799997322261 456
14.9999997317791 441
15.0199997313321 444
15.039999730885 443
15.059999730438 489
15.079999729991 444
15.0999997295439 474
15.1199997290969 472
15.1399997286499 500
15.1599997282028 439
15.1799997277558 485
15.1999997273088 454
15.2199997268617 447
15.2399997264147 448
15.2599997259676 484
15.2799997255206 506
15.2999997250736 470
15.3199997246265 484
15.3399997241795 462
15.3599997237325 489
15.3799997232854 453
15.3999997228384 456
15.4199997223914 447
15.4399997219443 511
15.4599997214973 470
15.4799997210503 439
15.4999997206032 432
15.5199997201562 454
15.5399997197092 502
15.5599997192621 495
15.5799997188151 480
15.5999997183681 484
15.619999717921 472
15.639999717474 497
15.659999717027 488
15.6799997165799 463
15.6999997161329 495
15.7199997156858 492
15.7399997152388 469
15.7599997147918 493
15.7799997143447 469
15.7999997138977 484
15.8199997134507 444
15.8399997130036 500
15.8599997125566 469
15.8799997121096 484
15.8999997116625 514
15.9199997112155 498
15.9399997107685 474
15.9599997103214 494
15.9799997098744 514
15.9999997094274 491
16.0199997089803 527
16.0399997085333 468
16.0599997080863 499
16.0799997076392 524
16.0999997071922 465
16.1199997067451 471
16.1399997062981 482
16.1599997058511 522
16.179999705404 527
16.199999704957 487
16.21999970451 476
16.2399997040629 516
16.2599997036159 532
16.2799997031689 542
16.2999997027218 520
16.3199997022748 528
16.3399997018278 524
16.3599997013807 495
16.3799997009337 529
16.3999997004867 517
16.4199997000396 532
16.4399996995926 522
16.4599996991456 526
16.4799996986985 542
16.4999996982515 530
16.5199996978045 529
16.5399996973574 484
16.5599996969104 499
16.5799996964633 510
16.5999996960163 517
16.6199996955693 520
16.6399996951222 518
16.6599996946752 548
16.6799996942282 602
16.6999996937811 559
16.7199996933341 552
16.7399996928871 558
16.75999969244 567
16.779999691993 558
16.799999691546 574
16.8199996910989 563
16.8399996906519 618
16.8599996902049 589
16.8799996897578 598
16.8999996893108 646
16.9199996888638 661
16.9399996884167 742
16.9599996879697 805
16.9799996875226 939
16.9999996870756 1108
17.0199996866286 1195
17.0399996861815 1071
17.0599996857345 1056
17.0799996852875 919
17.0999996848404 881
17.1199996843934 863
17.1399996839464 816
17.1599996834993 726
17.1799996830523 656
17.1999996826053 625
17.2199996821582 639
17.2399996817112 570
17.2599996812642 594
17.2799996808171 591
17.2999996803701 615
17.3199996799231 619
17.339999679476 583
17.359999679029 646
17.379999678582 547
17.3999996781349 588
17.4199996776879 585
17.4399996772408 627
17.4599996767938 538
17.4799996763468 577
17.4999996758997 553
17.5199996754527 596
17.5399996750057 638
17.5599996745586 570
17.5799996741116 596
17.5999996736646 630
17.6199996732175 613
17.6399996727705 555
17.6599996723235 574
17.6799996718764 614
17.6999996714294 551
17.7199996709824 612
17.7399996705353 611
17.7599996700883 664
17.7799996696413 585
17.7999996691942 574
17.8199996687472 574
17.8399996683002 554
17.8599996678531 577
17.8799996674061 618
17.899999666959 600
17.919999666512 580
17.939999666065 626
17.9599996656179 598
17.9799996651709 652
17.9999996647239 655
18.0199996642768 581
18.0399996638298 623
18.0599996633828 587
18.0799996629357 641
18.0999996624887 637
18.1199996620417 618
18.1399996615946 612
18.1599996611476 622
18.1799996607006 634
18.1999996602535 622
18.2199996598065 641
18.2399996593595 612
18.2599996589124 614
18.2799996584654 606
18.2999996580184 598
18.3199996575713 625
18.3399996571243 659
18.3599996566772 680
18.3799996562302 613
18.3999996557832 629
18.4199996553361 636
18.4399996548891 666
18.4599996544421 637
18.479999653995 680
18.499999653548 631
18.519999653101 685
18.5399996526539 655
18.5599996522069 603
18.5799996517599 674
18.5999996513128 670
18.6199996508658 698
18.6399996504188 695
18.6599996499717 645
18.6799996495247 614
18.6999996490777 702
18.7199996486306 668
18.7399996481836 679
18.7599996477366 648
18.7799996472895 667
18.7999996468425 641
18.8199996463954 667
18.8399996459484 707
18.8599996455014 685
18.8799996450543 676
18.8999996446073 669
18.9199996441603 690
18.9399996437132 662
18.9599996432662 690
18.9799996428192 648
18.9999996423721 700
19.0199996419251 720
19.0399996414781 679
19.059999641031 681
19.079999640584 642
19.099999640137 687
19.1199996396899 706
19.1399996392429 718
19.1599996387959 717
19.1799996383488 721
19.1999996379018 697
19.2199996374547 704
19.2399996370077 702
19.2599996365607 708
19.2799996361136 701
19.2999996356666 659
19.3199996352196 718
19.3399996347725 697
19.3599996343255 727
19.3799996338785 775
19.3999996334314 690
19.4199996329844 742
19.4399996325374 720
19.4599996320903 738
19.4799996316433 748
19.4999996311963 719
19.5199996307492 726
19.5399996303022 680
19.5599996298552 794
19.5799996294081 735
19.5999996289611 737
19.6199996285141 696
19.639999628067 733
19.65999962762 722
19.6799996271729 759
19.6999996267259 793
19.7199996262789 774
19.7399996258318 733
19.7599996253848 738
19.7799996249378 751
19.7999996244907 806
19.8199996240437 754
19.8399996235967 738
19.8599996231496 763
19.8799996227026 774
19.8999996222556 728
19.9199996218085 704
19.9399996213615 723
19.9599996209145 758
19.9799996204674 735
19.9999996200204 728
