3 2451
3.01999999955297 2337
3.03999999910593 2362
3.0599999986589 2268
3.07999999821186 2221
3.09999999776483 2209
3.11999999731779 2180
3.13999999687076 2125
3.15999999642372 2194
3.17999999597669 2070
3.19999999552965 1958
3.21999999508262 1972
3.23999999463558 1969
3.25999999418855 1915
3.27999999374151 1819
3.29999999329448 1784
3.31999999284744 1888
3.33999999240041 1783
3.35999999195337 1859
3.37999999150634 1763
3.3999999910593 1740
3.41999999061227 1754
3.43999999016523 1771
3.4599999897182 1721
3.47999998927116 1654
3.49999998882413 1639
3.51999998837709 1677
3.53999998793006 1640
3.55999998748302 1635
3.57999998703599 1611
3.59999998658895 1537
3.61999998614192 1511
3.63999998569489 1506
3.65999998524785 1501
3.67999998480082 1492
3.69999998435378 1373
3.71999998390675 1457
3.73999998345971 1415
3.75999998301268 1407
3.77999998256564 1441
3.79999998211861 1376
3.81999998167157 1295
3.83999998122454 1320
3.8599999807775 1282
3.87999998033047 1296
3.89999997988343 1294
3.9199999794364 1334
3.93999997898936 1298
3.95999997854233 1218
3.97999997809529 1203
3.99999997764826 1294
4.01999997720122 1235
4.03999997675419 1247
4.05999997630715 1181
4.07999997586012 1212
4.09999997541308 1152
4.11999997496605 1159
4.13999997451901 1146
4.15999997407198 1196
4.17999997362494 1164
4.19999997317791 1074
4.21999997273087 1171
4.23999997228384 1124
4.25999997183681 1063
4.27999997138977 1040
4.29999997094274 1111
4.3199999704957 1065
4.33999997004867 1083
4.35999996960163 1038
4.3799999691546 1060
4.39999996870756 1058
4.41999996826053 994
4.43999996781349 1035
4.45999996736646 1078
4.47999996691942 1058
4.49999996647239 1010
4.51999996602535 1006
4.53999996557832 990
4.55999996513128 1002
4.57999996468425 998
4.59999996423721 986
4.61999996379018 1005
4.63999996334314 953
4.65999996289611 957
4.67999996244907 984
4.69999996200204 992
4.719999961555 954
4.73999996110797 986
4.75999996066093 1003
4.7799999602139 976
4.79999995976686 982
4.81999995931983 984
4.83999995887279 1039
4.85999995842576 942
4.87999995797873 993
4.89999995753169 990
4.91999995708466 1025
4.93999995663762 999
4.95999995619059 1008
4.97999995574355 992
4.99999995529652 989
5.01999995484948 967
5.03999995440245 996
5.05999995395541 982
5.07999995350838 1022
5.09999995306134 1035
5.11999995261431 1099
5.13999995216727 1111
5.15999995172024 1156
5.1799999512732 1186
5.19999995082617 1155
5.21999995037913 1197
5.2399999499321 1326
5.25999994948506 1338
5.27999994903803 1369
5.29999994859099 1376
5.31999994814396 1502
5.33999994769692 1583
5.35999994724989 1706
5.37999994680285 1932
5.39999994635582 2152
5.41999994590878 2381
5.43999994546175 2562
5.45999994501471 2266
5.47999994456768 1891
5.49999994412065 1418
5.51999994367361 1246
5.53999994322658 1171
5.55999994277954 1037
5.57999994233251 1006
5.59999994188547 1018
5.61999994143844 949
5.6399999409914 911
5.65999994054437 889
5.67999994009733 950
5.6999999396503 852
5.71999993920326 811
5.73999993875623 828
5.75999993830919 827
5.77999993786216 888
5.79999993741512 805
5.81999993696809 795
5.83999993652105 822
5.85999993607402 760
5.87999993562698 783
5.89999993517995 733
5.91999993473291 742
5.93999993428588 748
5.95999993383884 759
5.97999993339181 740
5.99999993294477 718
6.01999993249774 709
6.0399999320507 719
6.05999993160367 701
6.07999993115663 742
6.0999999307096 705
6.11999993026257 682
6.13999992981553 674
6.1599999293685 678
6.17999992892146 683
6.19999992847443 671
6.21999992802739 648
6.23999992758036 677
6.25999992713332 676
6.27999992668629 692
6.29999992623925 699
6.31999992579222 620
6.33999992534518 669
6.35999992489815 649
6.37999992445111 636
6.39999992400408 647
6.41999992355704 625
6.43999992311001 663
6.45999992266297 612
6.47999992221594 628
6.4999999217689 644
6.51999992132187 631
6.53999992087483 671
6.5599999204278 672
6.57999991998076 637
6.59999991953373 645
6.61999991908669 619
6.63999991863966 624
6.65999991819262 692
6.67999991774559 641
6.69999991729855 604
6.71999991685152 610
6.73999991640449 632
6.75999991595745 649
6.77999991551042 622
6.79999991506338 626
6.81999991461635 620
6.83999991416931 635
6.85999991372228 655
6.87999991327524 596
6.89999991282821 587
6.91999991238117 612
6.93999991193414 607
6.9599999114871 609
6.97999991104007 560
6.99999991059303 575
7.019999910146 626
7.03999990969896 641
7.05999990925193 622
7.07999990880489 575
7.09999990835786 592
7.11999990791082 640
7.13999990746379 611
7.15999990701675 637
7.17999990656972 611
7.19999990612268 585
7.21999990567565 576
7.23999990522861 607
7.25999990478158 629
7.27999990433454 597
7.29999990388751 565
7.31999990344047 607
7.33999990299344 598
7.35999990254641 568
7.37999990209937 570
7.39999990165234 561
7.4199999012053 543
7.43999990075827 575
7.45999990031123 612
7.4799998998642 607
7.49999989941716 590
7.51999989897013 578
7.53999989852309 571
7.55999989807606 594
7.57999989762902 581
7.59999989718199 552
7.61999989673495 586
7.63999989628792 582
7.65999989584088 568
7.67999989539385 584
7.69999989494681 548
7.71999989449978 512
7.73999989405274 563
7.75999989360571 547
7.77999989315867 528
7.79999989271164 542
7.8199998922646 528
7.83999989181757 572
7.85999989137053 581
7.8799998909235 524
7.89999989047646 584
7.91999989002943 591
7.9399998895824 571
7.95999988913536 537
7.97999988868833 557
7.99999988824129 570
8.01999988779426 545
8.03999988734722 547
8.05999988690019 499
8.07999988645315 557
8.09999988600612 557
8.11999988555908 580
8.13999988511205 572
8.15999988466501 553
8.17999988421798 513
8.19999988377094 547
8.21999988332391 552
8.23999988287687 539
8.25999988242984 571
8.2799998819828 535
8.29999988153577 571
8.31999988108873 530
8.3399998806417 549
8.35999988019466 546
8.37999987974763 512
8.39999987930059 499
8.41999987885356 557
8.43999987840652 559
8.45999987795949 510
8.47999987751245 558
8.49999987706542 516
8.51999987661839 540
8.53999987617135 583
8.55999987572432 510
8.57999987527728 546
8.59999987483025 493
8.61999987438321 506
8.63999987393618 565
8.65999987348914 547
8.67999987304211 543
8.69999987259507 521
8.71999987214804 510
8.739999871701 516
8.75999987125397 535
8.77999987080693 503
8.7999998703599 535
8.81999986991286 472
8.83999986946583 550
8.85999986901879 531
8.87999986857176 578
8.89999986812472 503
8.91999986767769 539
8.93999986723065 547
8.95999986678362 516
8.97999986633658 539
8.99999986588955 572
9.01999986544251 586
9.03999986499548 569
9.05999986454844 578
9.07999986410141 522
9.09999986365438 577
9.11999986320734 600
9.13999986276031 573
9.15999986231327 588
9.17999986186624 634
9.1999998614192 691
9.21999986097217 657
9.23999986052513 651
9.2599998600781 748
9.27999985963106 808
9.29999985918403 829
9.31999985873699 898
9.33999985828996 965
9.35999985784292 1037
9.37999985739589 953
9.39999985694885 724
9.41999985650182 676
9.43999985605478 616
9.45999985560775 571
9.47999985516071 568
9.49999985471368 478
9.51999985426664 527
9.53999985381961 520
9.55999985337257 547
9.57999985292554 506
9.5999998524785 564
9.61999985203147 503
9.63999985158443 512
9.6599998511374 545
9.67999985069037 508
9.69999985024333 487
9.7199998497963 544
9.73999984934926 560
9.75999984890223 509
9.77999984845519 526
9.79999984800816 489
9.81999984756112 487
9.83999984711409 480
9.85999984666705 499
9.87999984622002 510
9.89999984577298 519
9.91999984532595 531
9.93999984487891 547
9.95999984443188 513
9.97999984398484 508
9.99999984353781 538
10.0199998430908 491
10.0399998426437 514
10.0599998421967 503
10.0799998417497 473
10.0999998413026 509
10.1199998408556 481
10.1399998404086 485
10.1599998399615 506
10.1799998395145 546
10.1999998390675 506
10.2199998386204 494
10.2399998381734 492
10.2599998377264 485
10.2799998372793 534
10.2999998368323 523
10.3199998363853 559
10.3399998359382 528
10.3599998354912 506
10.3799998350441 519
10.3999998345971 502
10.4199998341501 531
10.439999833703 535
10.459999833256 502
10.479999832809 548
10.4999998323619 531
10.5199998319149 551
10.5399998314679 514
10.5599998310208 533
10.5799998305738 563
10.5999998301268 590
10.6199998296797 547
10.6399998292327 583
10.6599998287857 553
10.6799998283386 595
10.6999998278916 637
10.7199998274446 689
10.7399998269975 674
10.7599998265505 728
10.7799998261034 831
10.7999998256564 790
10.8199998252094 728
10.8399998247623 685
10.8599998243153 579
10.8799998238683 602
10.8999998234212 533
10.9199998229742 536
10.9399998225272 601
10.9599998220801 552
10.9799998216331 534
10.9999998211861 555
11.019999820739 525
11.039999820292 519
11.059999819845 524
11.0799998193979 495
11.0999998189509 519
11.1199998185039 526
11.1399998180568 491
11.1599998176098 485
11.1799998171628 503
11.1999998167157 500
11.2199998162687 477
11.2399998158216 478
11.2599998153746 501
11.2799998149276 527
11.2999998144805 484
11.3199998140335 520
11.3399998135865 510
11.3599998131394 521
11.3799998126924 523
11.3999998122454 506
11.4199998117983 524
11.4399998113513 497
11.4599998109043 496
11.4799998104572 466
11.4999998100102 472
11.5199998095632 463
11.5399998091161 510
11.5599998086691 507
11.5799998082221 504
11.599999807775 493
11.619999807328 521
11.639999806881 466
11.6599998064339 516
11.6799998059869 503
11.6999998055398 500
11.7199998050928 502
11.7399998046458 473
11.7599998041987 496
11.7799998037517 493
11.7999998033047 504
11.8199998028576 527
11.8399998024106 501
11.8599998019636 524
11.8799998015165 474
11.8999998010695 491
11.9199998006225 494
11.9399998001754 517
11.9599997997284 507
11.9799997992814 513
11.9999997988343 488
12.0199997983873 492
12.0399997979403 512
12.0599997974932 503
12.0799997970462 482
12.0999997965992 497
12.1199997961521 502
12.1399997957051 519
12.159999795258 537
12.179999794811 485
12.199999794364 504
12.2199997939169 470
12.2399997934699 544
12.2599997930229 544
12.2799997925758 518
12.2999997921288 514
12.3199997916818 538
12.3399997912347 512
12.3599997907877 532
12.3799997903407 471
12.3999997898936 519
12.4199997894466 500
12.4399997889996 518
12.4599997885525 544
12.4799997881055 555
12.4999997876585 505
12.5199997872114 510
12.5399997867644 517
12.5599997863173 520
12.5799997858703 508
12.5999997854233 484
12.6199997849762 516
12.6399997845292 529
12.6599997840822 528
12.6799997836351 585
12.6999997831881 556
12.7199997827411 500
12.739999782294 546
12.759999781847 529
12.7799997814 524
12.7999997809529 555
12.8199997805059 532
12.8399997800589 494
12.8599997796118 559
12.8799997791648 510
12.8999997787178 532
12.9199997782707 514
12.9399997778237 498
12.9599997773767 514
12.9799997769296 571
12.9999997764826 517
13.0199997760355 497
13.0399997755885 511
13.0599997751415 547
13.0799997746944 569
13.0999997742474 539
13.1199997738004 527
13.1399997733533 501
13.1599997729063 528
13.1799997724593 549
13.1999997720122 564
13.2199997715652 538
13.2399997711182 557
13.2599997706711 555
13.2799997702241 547
13.2999997697771 569
13.31999976933 532
13.339999768883 561
13.359999768436 543
13.3799997679889 560
13.3999997675419 561
13.4199997670949 601
13.4399997666478 544
13.4599997662008 579
13.4799997657537 571
13.4999997653067 559
13.5199997648597 539
13.5399997644126 542
13.5599997639656 553
13.5799997635186 563
13.5999997630715 566
13.6199997626245 575
13.6399997621775 513
13.6599997617304 565
13.6799997612834 577
13.6999997608364 530
13.7199997603893 501
13.7399997599423 541
13.7599997594953 560
13.7799997590482 568
13.7999997586012 601
13.8199997581542 580
13.8399997577071 572
13.8599997572601 588
13.879999756813 588
13.899999756366 567
13.919999755919 599
13.9399997554719 605
13.9599997550249 582
13.9799997545779 575
13.9999997541308 562
14.0199997536838 558
14.0399997532368 554
14.0599997527897 608
14.0799997523427 579
14.0999997518957 560
14.1199997514486 512
14.1399997510016 564
14.1599997505546 584
14.1799997501075 621
14.1999997496605 610
14.2199997492135 611
14.2399997487664 608
14.2599997483194 640
14.2799997478724 612
14.2999997474253 578
14.3199997469783 606
14.3399997465312 601
14.3599997460842 581
14.3799997456372 583
14.3999997451901 640
14.4199997447431 603
14.4399997442961 578
14.459999743849 546
14.479999743402 611
14.499999742955 583
14.5199997425079 607
14.5399997420609 611
14.5599997416139 575
14.5799997411668 624
14.5999997407198 594
14.6199997402728 630
14.6399997398257 552
14.6599997393787 647
14.6799997389317 602
14.6999997384846 600
14.7199997380376 587
14.7399997375906 592
14.7599997371435 555
14.7799997366965 573
14.7999997362494 590
14.8199997358024 615
14.8399997353554 623
14.8599997349083 615
14.8799997344613 667
14.8999997340143 616
14.9199997335672 622
14.9399997331202 590
14.9599997326732 566
14.9799997322261 591
14.9999997317791 626
15.0199997313321 592
15.039999730885 643
15.059999730438 578
15.079999729991 602
15.0999997295439 614
15.1199997290969 628
15.1399997286499 625
15.1599997282028 649
15.1799997277558 632
15.1999997273088 638
15.2199997268617 617
15.2399997264147 605
15.2599997259676 629
15.2799997255206 636
15.2999997250736 618
15.3199997246265 645
15.3399997241795 643
15.3599997237325 631
15.3799997232854 611
15.3999997228384 648
15.4199997223914 638
15.4399997219443 620
15.4599997214973 670
15.4799997210503 692
15.4999997206032 647
15.5199997201562 617
15.5399997197092 629
15.5599997192621 649
15.5799997188151 646
15.5999997183681 645
15.619999717921 730
15.639999717474 668
15.659999717027 641
15.6799997165799 640
15.6999997161329 654
15.7199997156858 637
15.7399997152388 653
15.7599997147918 713
15.7799997143447 671
15.7999997138977 673
15.8199997134507 675
15.8399997130036 683
15.8599997125566 651
15.8799997121096 695
15.8999997116625 653
15.9199997112155 678
15.9399997107685 674
15.9599997103214 676
15.9799997098744 638
15.9999997094274 681
16.0199997089803 722
16.0399997085333 664
16.0599997080863 725
16.0799997076392 702
16.0999997071922 642
16.1199997067451 665
16.1399997062981 736
16.1599997058511 750
16.179999705404 747
16.199999704957 709
16.21999970451 719
16.2399997040629 675
16.2599997036159 667
16.2799997031689 711
16.2999997027218 722
16.3199997022748 719
16.3399997018278 699
16.3599997013807 761
16.3799997009337 705
16.3999997004867 737
16.4199997000396 748
16.4399996995926 732
16.4599996991456 735
16.4799996986985 706
16.4999996982515 752
16.5199996978045 733
16.5399996973574 763
16.5599996969104 783
16.5799996964633 723
16.5999996960163 784
16.6199996955693 751
16.6399996951222 739
16.6599996946752 797
16.6799996942282 835
16.6999996937811 818
16.7199996933341 758
16.7399996928871 801
16.75999969244 830
16.779999691993 791
16.799999691546 826
16.8199996910989 814
16.8399996906519 806
16.8599996902049 847
16.8799996897578 838
16.8999996893108 883
16.9199996888638 861
16.9399996884167 968
16.9599996879697 1051
16.9799996875226 1093
16.9999996870756 1149
17.0199996866286 1171
17.0399996861815 1269
17.0599996857345 1169
17.0799996852875 1032
17.0999996848404 929
17.1199996843934 863
17.1399996839464 855
17.1599996834993 829
17.1799996830523 822
17.1999996826053 849
17.2199996821582 838
17.2399996817112 835
17.2599996812642 882
17.2799996808171 857
17.2999996803701 892
17.3199996799231 833
17.339999679476 910
17.359999679029 842
17.379999678582 823
17.3999996781349 833
17.4199996776879 844
17.4399996772408 838
17.4599996767938 875
17.4799996763468 857
17.4999996758997 916
17.5199996754527 874
17.5399996750057 876
17.5599996745586 917
17.5799996741116 838
17.5999996736646 911
17.6199996732175 856
17.6399996727705 869
17.6599996723235 863
17.6799996718764 840
17.6999996714294 900
17.7199996709824 868
17.7399996705353 901
17.7599996700883 905
17.7799996696413 898
17.7999996691942 903
17.8199996687472 827
17.8399996683002 844
17.8599996678531 900
17.8799996674061 913
17.899999666959 921
17.919999666512 914
17.939999666065 912
17.9599996656179 920
17.9799996651709 885
17.9999996647239 949
18.0199996642768 917
18.0399996638298 891
18.0599996633828 901
18.0799996629357 875
18.0999996624887 897
18.1199996620417 943
18.1399996615946 916
18.1599996611476 906
18.1799996607006 973
18.1999996602535 917
18.2199996598065 969
18.2399996593595 947
18.2599996589124 944
18.2799996584654 956
18.2999996580184 980
18.3199996575713 950
18.3399996571243 989
18.3599996566772 982
18.3799996562302 939
18.3999996557832 986
18.4199996553361 912
18.4399996548891 950
18.4599996544421 972
18.479999653995 1005
18.499999653548 967
18.519999653101 981
18.5399996526539 1023
18.5599996522069 932
18.5799996517599 961
18.5999996513128 940
18.6199996508658 1012
18.6399996504188 995
18.6599996499717 1006
18.6799996495247 1032
18.6999996490777 1023
18.7199996486306 1039
18.7399996481836 1058
18.7599996477366 1049
18.7799996472895 1062
18.7999996468425 1009
18.8199996463954 997
18.8399996459484 1003
18.8599996455014 981
18.8799996450543 995
18.8999996446073 1016
18.9199996441603 1018
18.9399996437132 1022
18.9599996432662 980
18.9799996428192 1009
18.9999996423721 1004
19.0199996419251 1065
19.0399996414781 1032
19.059999641031 1045
19.079999640584 998
19.099999640137 1027
19.1199996396899 1052
19.1399996392429 1081
19.1599996387959 1044
19.1799996383488 1070
19.1999996379018 1101
19.2199996374547 1062
19.2399996370077 1068
19.2599996365607 1160
19.2799996361136 1134
19.2999996356666 1100
19.3199996352196 1071
19.3399996347725 1102
19.3599996343255 1139
19.3799996338785 1147
19.3999996334314 1174
19.4199996329844 1213
19.4399996325374 1188
19.4599996320903 1206
19.4799996316433 1157
19.4999996311963 1219
19.5199996307492 1213
19.5399996303022 1093
19.5599996298552 1134
19.5799996294081 1111
19.5999996289611 1141
19.6199996285141 1142
19.639999628067 1149
19.65999962762 1131
19.6799996271729 1225
19.6999996267259 1146
19.7199996262789 1202
19.7399996258318 1131
19.7599996253848 1153
19.7799996249378 1172
19.7999996244907 1133
19.8199996240437 1186
19.8399996235967 1117
19.8599996231496 1135
19.8799996227026 1163
19.8999996222556 1130
19.9199996218085 1152
19.9399996213615 1192
19.9599996209145 1155
19.9799996204674 1147
19.9999996200204 1096
