3 1183
3.01999999955297 1173
3.03999999910593 1088
3.0599999986589 1074
3.07999999821186 1027
3.09999999776483 1058
3.11999999731779 1029
3.13999999687076 966
3.15999999642372 1021
3.17999999597669 1073
3.19999999552965 982
3.21999999508262 1009
3.23999999463558 1010
3.25999999418855 970
3.27999999374151 1001
3.29999999329448 961
3.31999999284744 947
3.33999999240041 925
3.35999999195337 908
3.37999999150634 906
3.3999999910593 892
3.41999999061227 922
3.43999999016523 913
3.4599999897182 932
3.47999998927116 858
3.49999998882413 872
3.51999998837709 897
3.53999998793006 860
3.55999998748302 837
3.57999998703599 841
3.59999998658895 861
3.61999998614192 857
3.63999998569489 836
3.65999998524785 874
3.67999998480082 824
3.69999998435378 859
3.71999998390675 852
3.73999998345971 776
3.75999998301268 803
3.77999998256564 769
3.79999998211861 811
3.81999998167157 820
3.83999998122454 868
3.8599999807775 804
3.87999998033047 785
3.89999997988343 793
3.9199999794364 835
3.93999997898936 743
3.95999997854233 794
3.97999997809529 715
3.99999997764826 774
4.01999997720122 763
4.03999997675419 758
4.05999997630715 769
4.07999997586012 787
4.09999997541308 784
4.11999997496605 733
4.13999997451901 747
4.15999997407198 702
4.17999997362494 710
4.19999997317791 731
4.21999997273087 728
4.23999997228384 759
4.25999997183681 752
4.27999997138977 687
4.29999997094274 713
4.3199999704957 716
4.33999997004867 749
4.35999996960163 713
4.3799999691546 685
4.39999996870756 721
4.41999996826053 737
4.43999996781349 686
4.45999996736646 684
4.47999996691942 681
4.49999996647239 673
4.51999996602535 683
4.53999996557832 734
4.55999996513128 711
4.57999996468425 676
4.59999996423721 661
4.61999996379018 669
4.63999996334314 675
4.65999996289611 710
4.67999996244907 695
4.69999996200204 709
4.719999961555 653
4.73999996110797 676
4.75999996066093 640
4.7799999602139 708
4.79999995976686 681
4.81999995931983 643
4.83999995887279 618
4.85999995842576 663
4.87999995797873 700
4.89999995753169 632
4.91999995708466 690
4.93999995663762 703
4.95999995619059 709
4.97999995574355 674
4.99999995529652 732
5.01999995484948 673
5.03999995440245 691
5.05999995395541 718
5.07999995350838 730
5.09999995306134 677
5.11999995261431 704
5.13999995216727 749
5.15999995172024 669
5.1799999512732 760
5.19999995082617 729
5.21999995037913 732
5.2399999499321 727
5.25999994948506 817
5.27999994903803 815
5.29999994859099 797
5.31999994814396 843
5.33999994769692 910
5.35999994724989 949
5.37999994680285 920
5.39999994635582 965
5.41999994590878 1042
5.43999994546175 1072
5.45999994501471 1177
5.47999994456768 1166
5.49999994412065 1316
5.51999994367361 1451
5.53999994322658 1439
5.55999994277954 1522
5.57999994233251 1572
5.59999994188547 1503
5.61999994143844 1194
5.6399999409914 973
5.65999994054437 868
5.67999994009733 830
5.6999999396503 745
5.71999993920326 774
5.73999993875623 707
5.75999993830919 749
5.77999993786216 700
5.79999993741512 757
5.81999993696809 658
5.83999993652105 658
5.85999993607402 632
5.87999993562698 640
5.89999993517995 584
5.91999993473291 620
5.93999993428588 585
5.95999993383884 578
5.97999993339181 603
5.99999993294477 534
6.01999993249774 584
6.0399999320507 542
6.05999993160367 531
6.07999993115663 532
6.0999999307096 555
6.11999993026257 563
6.13999992981553 526
6.1599999293685 488
6.17999992892146 530
6.19999992847443 514
6.21999992802739 536
6.23999992758036 514
6.25999992713332 484
6.27999992668629 484
6.29999992623925 505
6.31999992579222 481
6.33999992534518 491
6.35999992489815 512
6.37999992445111 488
6.39999992400408 493
6.41999992355704 482
6.43999992311001 460
6.45999992266297 452
6.47999992221594 492
6.4999999217689 506
6.51999992132187 464
6.53999992087483 495
6.5599999204278 518
6.57999991998076 475
6.59999991953373 495
6.61999991908669 444
6.63999991863966 465
6.65999991819262 499
6.67999991774559 449
6.69999991729855 406
6.71999991685152 474
6.73999991640449 463
6.75999991595745 506
6.77999991551042 496
6.79999991506338 436
6.81999991461635 456
6.83999991416931 456
6.85999991372228 447
6.87999991327524 440
6.89999991282821 444
6.91999991238117 456
6.93999991193414 478
6.9599999114871 403
6.97999991104007 445
6.99999991059303 450
7.019999910146 428
7.03999990969896 450
7.05999990925193 437
7.07999990880489 451
7.09999990835786 412
7.11999990791082 463
7.13999990746379 413
7.15999990701675 427
7.17999990656972 445
7.19999990612268 417
7.21999990567565 450
7.23999990522861 451
7.25999990478158 466
7.27999990433454 384
7.29999990388751 411
7.31999990344047 427
7.33999990299344 419
7.35999990254641 438
7.37999990209937 402
7.39999990165234 426
7.4199999012053 416
7.43999990075827 436
7.45999990031123 453
7.4799998998642 425
7.49999989941716 446
7.51999989897013 421
7.53999989852309 421
7.55999989807606 426
7.57999989762902 444
7.59999989718199 420
7.61999989673495 405
7.63999989628792 404
7.65999989584088 413
7.67999989539385 409
7.69999989494681 419
7.71999989449978 435
7.73999989405274 448
7.75999989360571 414
7.77999989315867 403
7.79999989271164 420
7.8199998922646 426
7.83999989181757 434
7.85999989137053 415
7.8799998909235 420
7.89999989047646 417
7.91999989002943 425
7.9399998895824 387
7.95999988913536 379
7.97999988868833 404
7.99999988824129 407
8.01999988779426 427
8.03999988734722 410
8.05999988690019 438
8.07999988645315 390
8.09999988600612 421
8.11999988555908 401
8.13999988511205 406
8.15999988466501 417
8.17999988421798 425
8.19999988377094 443
8.21999988332391 435
8.23999988287687 431
8.25999988242984 431
8.2799998819828 421
8.29999988153577 409
8.31999988108873 413
8.3399998806417 412
8.35999988019466 393
8.37999987974763 423
8.39999987930059 452
8.41999987885356 391
8.43999987840652 375
8.45999987795949 413
8.47999987751245 414
8.49999987706542 402
8.51999987661839 375
8.53999987617135 392
8.55999987572432 403
8.57999987527728 408
8.59999987483025 393
8.61999987438321 388
8.63999987393618 395
8.65999987348914 427
8.67999987304211 393
8.69999987259507 400
8.71999987214804 385
8.739999871701 386
8.75999987125397 394
8.77999987080693 410
8.7999998703599 390
8.81999986991286 406
8.83999986946583 391
8.85999986901879 378
8.87999986857176 388
8.89999986812472 405
8.91999986767769 393
8.93999986723065 402
8.95999986678362 384
8.97999986633658 407
8.99999986588955 394
9.01999986544251 431
9.03999986499548 401
9.05999986454844 426
9.07999986410141 444
9.09999986365438 431
9.11999986320734 426
9.13999986276031 414
9.15999986231327 421
9.17999986186624 472
9.1999998614192 442
9.21999986097217 442
9.23999986052513 447
9.2599998600781 438
9.27999985963106 428
9.29999985918403 444
9.31999985873699 482
9.33999985828996 521
9.35999985784292 514
9.37999985739589 544
9.39999985694885 584
9.41999985650182 601
9.43999985605478 582
9.45999985560775 584
9.47999985516071 641
9.49999985471368 629
9.51999985426664 630
9.53999985381961 563
9.55999985337257 507
9.57999985292554 445
9.5999998524785 443
9.61999985203147 397
9.63999985158443 428
9.6599998511374 390
9.67999985069037 402
9.69999985024333 404
9.7199998497963 423
9.73999984934926 361
9.75999984890223 421
9.77999984845519 401
9.79999984800816 418
9.81999984756112 371
9.83999984711409 363
9.85999984666705 381
9.87999984622002 359
9.89999984577298 399
9.91999984532595 400
9.93999984487891 358
9.95999984443188 372
9.97999984398484 373
9.99999984353781 416
10.0199998430908 398
10.0399998426437 380
10.0599998421967 396
10.0799998417497 381
10.0999998413026 379
10.1199998408556 347
10.1399998404086 389
10.1599998399615 387
10.1799998395145 352
10.1999998390675 377
10.2199998386204 381
10.2399998381734 410
10.2599998377264 394
10.2799998372793 433
10.2999998368323 391
10.3199998363853 369
10.3399998359382 394
10.3599998354912 385
10.3799998350441 383
10.3999998345971 375
10.4199998341501 363
10.439999833703 388
10.459999833256 383
10.479999832809 395
10.4999998323619 411
10.5199998319149 413
10.5399998314679 420
10.5599998310208 408
10.5799998305738 387
10.5999998301268 366
10.6199998296797 373
10.6399998292327 391
10.6599998287857 411
10.6799998283386 417
10.6999998278916 425
10.7199998274446 405
10.7399998269975 417
10.7599998265505 426
10.7799998261034 421
10.7999998256564 410
10.8199998252094 421
10.8399998247623 439
10.8599998243153 494
10.8799998238683 469
10.8999998234212 521
10.9199998229742 525
10.9399998225272 506
10.9599998220801 578
10.9799998216331 520
10.9999998211861 461
11.019999820739 425
11.039999820292 404
11.059999819845 417
11.0799998193979 421
11.0999998189509 429
11.1199998185039 391
11.1399998180568 396
11.1599998176098 432
11.1799998171628 395
11.1999998167157 389
11.2199998162687 394
11.2399998158216 434
11.2599998153746 398
11.2799998149276 403
11.2999998144805 361
11.3199998140335 389
11.3399998135865 362
11.3599998131394 365
11.3799998126924 373
11.3999998122454 342
11.4199998117983 377
11.4399998113513 378
11.4599998109043 362
11.4799998104572 341
11.4999998100102 371
11.5199998095632 342
11.5399998091161 389
11.5599998086691 357
11.5799998082221 402
11.599999807775 385
11.619999807328 383
11.639999806881 390
11.6599998064339 387
11.6799998059869 385
11.6999998055398 354
11.7199998050928 379
11.7399998046458 377
11.7599998041987 384
11.7799998037517 369
11.7999998033047 387
11.8199998028576 361
11.8399998024106 406
11.8599998019636 399
11.8799998015165 367
11.8999998010695 374
11.9199998006225 374
11.9399998001754 417
11.9599997997284 363
11.9799997992814 394
11.9999997988343 394
12.0199997983873 388
12.0399997979403 381
12.0599997974932 362
12.0799997970462 381
12.0999997965992 407
12.1199997961521 389
12.1399997957051 372
12.159999795258 390
12.179999794811 389
12.199999794364 365
12.2199997939169 392
12.2399997934699 400
12.2599997930229 390
12.2799997925758 371
12.2999997921288 394
12.3199997916818 373
12.3399997912347 381
12.3599997907877 387
12.3799997903407 412
12.3999997898936 367
12.4199997894466 398
12.4399997889996 388
12.4599997885525 407
12.4799997881055 374
12.4999997876585 413
12.5199997872114 394
12.5399997867644 383
12.5599997863173 438
12.5799997858703 375
12.5999997854233 373
12.6199997849762 366
12.6399997845292 390
12.6599997840822 364
12.6799997836351 376
12.6999997831881 395
12.7199997827411 392
12.739999782294 400
12.759999781847 405
12.7799997814 360
12.7999997809529 396
12.8199997805059 408
12.8399997800589 415
12.8599997796118 383
12.8799997791648 410
12.8999997787178 381
12.9199997782707 373
12.9399997778237 401
12.9599997773767 395
12.9799997769296 385
12.9999997764826 362
13.0199997760355 402
13.0399997755885 389
13.0599997751415 388
13.0799997746944 401
13.0999997742474 393
13.1199997738004 380
13.1399997733533 368
13.1599997729063 423
13.1799997724593 391
13.1999997720122 402
13.2199997715652 391
13.2399997711182 388
13.2599997706711 404
13.2799997702241 389
13.2999997697771 362
13.31999976933 403
13.339999768883 400
13.359999768436 435
13.3799997679889 400
13.3999997675419 434
13.4199997670949 398
13.4399997666478 392
13.4599997662008 431
13.4799997657537 430
13.4999997653067 422
13.5199997648597 425
13.5399997644126 405
13.5599997639656 434
13.5799997635186 393
13.5999997630715 414
13.6199997626245 434
13.6399997621775 431
13.6599997617304 425
13.6799997612834 410
13.6999997608364 406
13.7199997603893 404
13.7399997599423 399
13.7599997594953 418
13.7799997590482 429
13.7999997586012 391
13.8199997581542 410
13.8399997577071 407
13.8599997572601 407
13.879999756813 416
13.899999756366 405
13.919999755919 425
13.9399997554719 411
13.9599997550249 368
13.9799997545779 387
13.9999997541308 423
14.0199997536838 393
14.0399997532368 448
14.0599997527897 411
14.0799997523427 387
14.0999997518957 435
14.1199997514486 396
14.1399997510016 438
14.1599997505546 453
14.1799997501075 382
14.1999997496605 416
14.2199997492135 420
14.2399997487664 424
14.2599997483194 440
14.2799997478724 436
14.2999997474253 446
14.3199997469783 419
14.3399997465312 455
14.3599997460842 430
14.3799997456372 439
14.3999997451901 463
14.4199997447431 468
14.4399997442961 436
14.459999743849 422
14.479999743402 433
14.499999742955 472
14.5199997425079 417
14.5399997420609 432
14.5599997416139 467
14.5799997411668 441
14.5999997407198 475
14.6199997402728 480
14.6399997398257 445
14.6599997393787 436
14.6799997389317 454
14.6999997384846 462
14.7199997380376 467
14.7399997375906 497
14.7599997371435 432
14.7799997366965 416
14.7999997362494 427
14.8199997358024 453
14.8399997353554 423
14.8599997349083 436
14.8799997344613 439
14.8999997340143 454
14.9199997335672 476
14.9399997331202 457
14.9599997326732 444
14.9799997322261 451
14.9999997317791 441
15.0199997313321 433
15.039999730885 465
15.059999730438 470
15.079999729991 449
15.0999997295439 491
15.1199997290969 454
15.1399997286499 446
15.1599997282028 429
15.1799997277558 447
15.1999997273088 433
15.2199997268617 457
15.2399997264147 448
15.2599997259676 470
15.2799997255206 470
15.2999997250736 461
15.3199997246265 443
15.3399997241795 485
15.3599997237325 455
15.3799997232854 441
15.3999997228384 473
15.4199997223914 478
15.4399997219443 473
15.4599997214973 459
15.4799997210503 490
15.4999997206032 499
15.5199997201562 482
15.5399997197092 482
15.5599997192621 454
15.5799997188151 454
15.5999997183681 446
15.619999717921 509
15.639999717474 464
15.659999717027 478
15.6799997165799 499
15.6999997161329 501
15.7199997156858 463
15.7399997152388 491
15.7599997147918 518
15.7799997143447 473
15.7999997138977 467
15.8199997134507 484
15.8399997130036 486
15.8599997125566 515
15.8799997121096 503
15.8999997116625 468
15.9199997112155 528
15.9399997107685 494
15.9599997103214 521
15.9799997098744 521
15.9999997094274 510
16.0199997089803 494
16.0399997085333 523
16.0599997080863 503
16.0799997076392 519
16.0999997071922 531
16.1199997067451 489
16.1399997062981 516
16.1599997058511 493
16.179999705404 528
16.199999704957 522
16.21999970451 510
16.2399997040629 521
16.2599997036159 525
16.2799997031689 530
16.2999997027218 484
16.3199997022748 534
16.3399997018278 546
16.3599997013807 517
16.3799997009337 512
16.3999997004867 525
16.4199997000396 504
16.4399996995926 496
16.4599996991456 535
16.4799996986985 575
16.4999996982515 486
16.5199996978045 587
16.5399996973574 530
16.5599996969104 556
16.5799996964633 549
16.5999996960163 542
16.6199996955693 509
16.6399996951222 548
16.6599996946752 582
16.6799996942282 532
16.6999996937811 544
16.7199996933341 565
16.7399996928871 542
16.75999969244 561
16.779999691993 551
16.799999691546 608
16.8199996910989 562
16.8399996906519 577
16.8599996902049 627
16.8799996897578 618
16.8999996893108 523
16.9199996888638 569
16.9399996884167 594
16.9599996879697 618
16.9799996875226 579
16.9999996870756 677
17.0199996866286 669
17.0399996861815 678
17.0599996857345 678
17.0799996852875 729
17.0999996848404 749
17.1199996843934 731
17.1399996839464 868
17.1599996834993 872
17.1799996830523 858
17.1999996826053 863
17.2199996821582 719
17.2399996817112 678
17.2599996812642 650
17.2799996808171 612
17.2999996803701 620
17.3199996799231 609
17.339999679476 639
17.359999679029 614
17.379999678582 586
17.3999996781349 656
17.4199996776879 599
17.4399996772408 621
17.4599996767938 578
17.4799996763468 648
17.4999996758997 658
17.5199996754527 620
17.5399996750057 636
17.5599996745586 640
17.5799996741116 642
17.5999996736646 616
17.6199996732175 593
17.6399996727705 670
17.6599996723235 631
17.6799996718764 622
17.6999996714294 637
17.7199996709824 634
17.7399996705353 632
17.7599996700883 647
17.7799996696413 631
17.7999996691942 625
17.8199996687472 651
17.8399996683002 636
17.8599996678531 623
17.8799996674061 656
17.899999666959 622
17.919999666512 620
17.939999666065 659
17.9599996656179 640
17.9799996651709 657
17.9999996647239 686
18.0199996642768 673
18.0399996638298 636
18.0599996633828 679
18.0799996629357 703
18.0999996624887 674
18.1199996620417 657
18.1399996615946 699
18.1599996611476 675
18.1799996607006 680
18.1999996602535 634
18.2199996598065 715
18.2399996593595 700
18.2599996589124 708
18.2799996584654 646
18.2999996580184 668
18.3199996575713 646
18.3399996571243 742
18.3599996566772 688
18.3799996562302 659
18.3999996557832 672
18.4199996553361 709
18.4399996548891 708
18.4599996544421 692
18.479999653995 694
18.499999653548 677
18.519999653101 656
18.5399996526539 744
18.5599996522069 667
18.5799996517599 760
18.5999996513128 667
18.6199996508658 724
18.6399996504188 740
18.6599996499717 747
18.6799996495247 724
18.6999996490777 713
18.7199996486306 733
18.7399996481836 742
18.7599996477366 742
18.7799996472895 752
18.7999996468425 718
18.8199996463954 749
18.8399996459484 766
18.8599996455014 751
18.8799996450543 746
18.8999996446073 776
18.9199996441603 749
18.9399996437132 747
18.9599996432662 793
18.9799996428192 730
18.9999996423721 739
19.0199996419251 778
19.0399996414781 734
19.059999641031 757
19.079999640584 744
19.099999640137 767
19.1199996396899 747
19.1399996392429 756
19.1599996387959 788
19.1799996383488 727
19.1999996379018 779
19.2199996374547 751
19.2399996370077 751
19.2599996365607 748
19.2799996361136 754
19.2999996356666 858
19.3199996352196 800
19.3399996347725 820
19.3599996343255 789
19.3799996338785 835
19.3999996334314 769
19.4199996329844 812
19.4399996325374 806
19.4599996320903 784
19.4799996316433 837
19.4999996311963 856
19.5199996307492 887
19.5399996303022 848
19.5599996298552 881
19.5799996294081 887
19.5999996289611 869
19.6199996285141 892
19.639999628067 889
19.65999962762 851
19.6799996271729 847
19.6999996267259 839
19.7199996262789 837
19.7399996258318 835
19.7599996253848 822
19.7799996249378 867
19.7999996244907 813
19.8199996240437 820
19.8399996235967 858
19.8599996231496 884
19.8799996227026 876
19.8999996222556 853
19.9199996218085 892
19.9399996213615 819
19.9599996209145 883
19.9799996204674 884
19.9999996200204 846
