3 2274
3.01999999955297 2202
3.03999999910593 2229
3.0599999986589 2022
3.07999999821186 1932
3.09999999776483 1916
3.11999999731779 1758
3.13999999687076 1771
3.15999999642372 1770
3.17999999597669 1675
3.19999999552965 1700
3.21999999508262 1720
3.23999999463558 1715
3.25999999418855 1695
3.27999999374151 1676
3.29999999329448 1630
3.31999999284744 1623
3.33999999240041 1557
3.35999999195337 1556
3.37999999150634 1519
3.3999999910593 1502
3.41999999061227 1461
3.43999999016523 1515
3.4599999897182 1486
3.47999998927116 1426
3.49999998882413 1388
3.51999998837709 1446
3.53999998793006 1420
3.55999998748302 1369
3.57999998703599 1382
3.59999998658895 1453
3.61999998614192 1354
3.63999998569489 1275
3.65999998524785 1344
3.67999998480082 1374
3.69999998435378 1294
3.71999998390675 1303
3.73999998345971 1234
3.75999998301268 1275
3.77999998256564 1244
3.79999998211861 1174
3.81999998167157 1221
3.83999998122454 1272
3.8599999807775 1181
3.87999998033047 1199
3.89999997988343 1148
3.9199999794364 1257
3.93999997898936 1133
3.95999997854233 1134
3.97999997809529 1063
3.99999997764826 1159
4.01999997720122 1061
4.03999997675419 1118
4.05999997630715 1139
4.07999997586012 1139
4.09999997541308 1157
4.11999997496605 1092
4.13999997451901 1052
4.15999997407198 1041
4.17999997362494 1087
4.19999997317791 1077
4.21999997273087 1113
4.23999997228384 1042
4.25999997183681 1041
4.27999997138977 989
4.29999997094274 1040
4.3199999704957 1063
4.33999997004867 1025
4.35999996960163 980
4.3799999691546 1002
4.39999996870756 962
4.41999996826053 977
4.43999996781349 969
4.45999996736646 989
4.47999996691942 1016
4.49999996647239 973
4.51999996602535 960
4.53999996557832 976
4.55999996513128 987
4.57999996468425 956
4.59999996423721 935
4.61999996379018 927
4.63999996334314 958
4.65999996289611 866
4.67999996244907 885
4.69999996200204 940
4.719999961555 891
4.73999996110797 885
4.75999996066093 880
4.7799999602139 862
4.79999995976686 917
4.81999995931983 907
4.83999995887279 819
4.85999995842576 867
4.87999995797873 891
4.89999995753169 862
4.91999995708466 774
4.93999995663762 831
4.95999995619059 858
4.97999995574355 816
4.99999995529652 838
5.01999995484948 850
5.03999995440245 820
5.05999995395541 838
5.07999995350838 829
5.09999995306134 825
5.11999995261431 796
5.13999995216727 847
5.15999995172024 794
5.1799999512732 724
5.19999995082617 782
5.21999995037913 761
5.2399999499321 774
5.25999994948506 738
5.27999994903803 765
5.29999994859099 732
5.31999994814396 718
5.33999994769692 725
5.35999994724989 779
5.37999994680285 773
5.39999994635582 733
5.41999994590878 739
5.43999994546175 741
5.45999994501471 757
5.47999994456768 736
5.49999994412065 763
5.51999994367361 773
5.53999994322658 732
5.55999994277954 762
5.57999994233251 745
5.59999994188547 701
5.61999994143844 732
5.6399999409914 716
5.65999994054437 699
5.67999994009733 657
5.6999999396503 733
5.71999993920326 689
5.73999993875623 750
5.75999993830919 735
5.77999993786216 708
5.79999993741512 741
5.81999993696809 702
5.83999993652105 724
5.85999993607402 717
5.87999993562698 676
5.89999993517995 736
5.91999993473291 650
5.93999993428588 702
5.95999993383884 692
5.97999993339181 698
5.99999993294477 675
6.01999993249774 724
6.0399999320507 679
6.05999993160367 675
6.07999993115663 705
6.0999999307096 644
6.11999993026257 663
6.13999992981553 650
6.1599999293685 693
6.17999992892146 690
6.19999992847443 639
6.21999992802739 685
6.23999992758036 659
6.25999992713332 710
6.27999992668629 688
6.29999992623925 699
6.31999992579222 713
6.33999992534518 634
6.35999992489815 628
6.37999992445111 674
6.39999992400408 647
6.41999992355704 661
6.43999992311001 650
6.45999992266297 657
6.47999992221594 670
6.4999999217689 647
6.51999992132187 696
6.53999992087483 652
6.5599999204278 662
6.57999991998076 678
6.59999991953373 607
6.61999991908669 682
6.63999991863966 627
6.65999991819262 612
6.67999991774559 647
6.69999991729855 577
6.71999991685152 678
6.73999991640449 646
6.75999991595745 616
6.77999991551042 633
6.79999991506338 662
6.81999991461635 641
6.83999991416931 647
6.85999991372228 723
6.87999991327524 619
6.89999991282821 613
6.91999991238117 634
6.93999991193414 610
6.9599999114871 636
6.97999991104007 662
6.99999991059303 618
7.019999910146 642
7.03999990969896 611
7.05999990925193 604
7.07999990880489 605
7.09999990835786 630
7.11999990791082 601
7.13999990746379 650
7.15999990701675 587
7.17999990656972 605
7.19999990612268 606
7.21999990567565 653
7.23999990522861 632
7.25999990478158 618
7.27999990433454 610
7.29999990388751 609
7.31999990344047 612
7.33999990299344 624
7.35999990254641 627
7.37999990209937 632
7.39999990165234 639
7.4199999012053 592
7.43999990075827 612
7.45999990031123 640
7.4799998998642 594
7.49999989941716 648
7.51999989897013 635
7.53999989852309 613
7.55999989807606 580
7.57999989762902 595
7.59999989718199 600
7.61999989673495 607
7.63999989628792 592
7.65999989584088 596
7.67999989539385 601
7.69999989494681 634
7.71999989449978 632
7.73999989405274 607
7.75999989360571 580
7.77999989315867 554
7.79999989271164 621
7.8199998922646 617
7.83999989181757 579
7.85999989137053 604
7.8799998909235 641
7.89999989047646 599
7.91999989002943 554
7.9399998895824 569
7.95999988913536 610
7.97999988868833 604
7.99999988824129 663
8.01999988779426 592
8.03999988734722 590
8.05999988690019 614
8.07999988645315 534
8.09999988600612 615
8.11999988555908 628
8.13999988511205 602
8.15999988466501 594
8.17999988421798 566
8.19999988377094 614
8.21999988332391 585
8.23999988287687 612
8.25999988242984 593
8.2799998819828 585
8.29999988153577 579
8.31999988108873 592
8.3399998806417 605
8.35999988019466 579
8.37999987974763 580
8.39999987930059 574
8.41999987885356 608
8.43999987840652 571
8.45999987795949 580
8.47999987751245 633
8.49999987706542 559
8.51999987661839 584
8.53999987617135 598
8.55999987572432 594
8.57999987527728 592
8.59999987483025 555
8.61999987438321 604
8.63999987393618 565
8.65999987348914 579
8.67999987304211 602
8.69999987259507 581
8.71999987214804 569
8.739999871701 577
8.75999987125397 616
8.77999987080693 610
8.7999998703599 541
8.81999986991286 588
8.83999986946583 585
8.85999986901879 586
8.87999986857176 560
8.89999986812472 550
8.91999986767769 602
8.93999986723065 570
8.95999986678362 542
8.97999986633658 590
8.99999986588955 598
9.01999986544251 566
9.03999986499548 556
9.05999986454844 558
9.07999986410141 579
9.09999986365438 596
9.11999986320734 592
9.13999986276031 546
9.15999986231327 583
9.17999986186624 569
9.1999998614192 573
9.21999986097217 601
9.23999986052513 572
9.2599998600781 565
9.27999985963106 556
9.29999985918403 599
9.31999985873699 590
9.33999985828996 594
9.35999985784292 586
9.37999985739589 549
9.39999985694885 575
9.41999985650182 590
9.43999985605478 603
9.45999985560775 531
9.47999985516071 591
9.49999985471368 596
9.51999985426664 556
9.53999985381961 571
9.55999985337257 597
9.57999985292554 573
9.5999998524785 589
9.61999985203147 563
9.63999985158443 571
9.6599998511374 578
9.67999985069037 552
9.69999985024333 580
9.7199998497963 574
9.73999984934926 588
9.75999984890223 568
9.77999984845519 543
9.79999984800816 535
9.81999984756112 537
9.83999984711409 603
9.85999984666705 531
9.87999984622002 542
9.89999984577298 554
9.91999984532595 557
9.93999984487891 593
9.95999984443188 556
9.97999984398484 571
9.99999984353781 537
10.0199998430908 526
10.0399998426437 558
10.0599998421967 547
10.0799998417497 587
10.0999998413026 582
10.1199998408556 564
10.1399998404086 567
10.1599998399615 587
10.1799998395145 563
10.1999998390675 528
10.2199998386204 549
10.2399998381734 558
10.2599998377264 576
10.2799998372793 566
10.2999998368323 596
10.3199998363853 563
10.3399998359382 579
10.3599998354912 581
10.3799998350441 543
10.3999998345971 566
10.4199998341501 589
10.439999833703 537
10.459999833256 539
10.479999832809 552
10.4999998323619 551
10.5199998319149 598
10.5399998314679 547
10.5599998310208 543
10.5799998305738 585
10.5999998301268 552
10.6199998296797 560
10.6399998292327 548
10.6599998287857 595
10.6799998283386 520
10.6999998278916 545
10.7199998274446 534
10.7399998269975 584
10.7599998265505 568
10.7799998261034 524
10.7999998256564 538
10.8199998252094 593
10.8399998247623 559
10.8599998243153 532
10.8799998238683 546
10.8999998234212 607
10.9199998229742 570
10.9399998225272 609
10.9599998220801 620
10.9799998216331 571
10.9999998211861 606
11.019999820739 592
11.039999820292 573
11.059999819845 574
11.0799998193979 567
11.0999998189509 584
11.1199998185039 566
11.1399998180568 558
11.1599998176098 555
11.1799998171628 565
11.1999998167157 577
11.2199998162687 589
11.2399998158216 582
11.2599998153746 590
11.2799998149276 543
11.2999998144805 593
11.3199998140335 565
11.3399998135865 592
11.3599998131394 587
11.3799998126924 590
11.3999998122454 558
11.4199998117983 553
11.4399998113513 571
11.4599998109043 591
11.4799998104572 583
11.4999998100102 542
11.5199998095632 558
11.5399998091161 567
11.5599998086691 564
11.5799998082221 563
11.599999807775 572
11.619999807328 551
11.639999806881 551
11.6599998064339 553
11.6799998059869 609
11.6999998055398 538
11.7199998050928 533
11.7399998046458 574
11.7599998041987 614
11.7799998037517 537
11.7999998033047 570
11.8199998028576 565
11.8399998024106 550
11.8599998019636 577
11.8799998015165 579
11.8999998010695 554
11.9199998006225 584
11.9399998001754 565
11.9599997997284 609
11.9799997992814 598
11.9999997988343 528
12.0199997983873 544
12.0399997979403 561
12.0599997974932 574
12.0799997970462 604
12.0999997965992 550
12.1199997961521 587
12.1399997957051 624
12.159999795258 547
12.179999794811 567
12.199999794364 566
12.2199997939169 640
12.2399997934699 567
12.2599997930229 566
12.2799997925758 547
12.2999997921288 604
12.3199997916818 602
12.3399997912347 572
12.3599997907877 569
12.3799997903407 601
12.3999997898936 619
12.4199997894466 558
12.4399997889996 575
12.4599997885525 593
12.4799997881055 578
12.4999997876585 499
12.5199997872114 554
12.5399997867644 580
12.5599997863173 569
12.5799997858703 555
12.5999997854233 588
12.6199997849762 623
12.6399997845292 585
12.6599997840822 573
12.6799997836351 578
12.6999997831881 605
12.7199997827411 599
12.739999782294 593
12.759999781847 541
12.7799997814 599
12.7999997809529 575
12.8199997805059 604
12.8399997800589 568
12.8599997796118 580
12.8799997791648 581
12.8999997787178 593
12.9199997782707 602
12.9399997778237 607
12.9599997773767 622
12.9799997769296 596
12.9999997764826 612
13.0199997760355 539
13.0399997755885 637
13.0599997751415 565
13.0799997746944 593
13.0999997742474 588
13.1199997738004 611
13.1399997733533 577
13.1599997729063 578
13.1799997724593 591
13.1999997720122 548
13.2199997715652 603
13.2399997711182 663
13.2599997706711 619
13.2799997702241 605
13.2999997697771 628
13.31999976933 619
13.339999768883 640
13.359999768436 605
13.3799997679889 586
13.3999997675419 652
13.4199997670949 575
13.4399997666478 641
13.4599997662008 581
13.4799997657537 614
13.4999997653067 586
13.5199997648597 598
13.5399997644126 625
13.5599997639656 627
13.5799997635186 650
13.5999997630715 585
13.6199997626245 582
13.6399997621775 646
13.6599997617304 634
13.6799997612834 605
13.6999997608364 641
13.7199997603893 622
13.7399997599423 620
13.7599997594953 577
13.7799997590482 603
13.7999997586012 607
13.8199997581542 618
13.8399997577071 658
13.8599997572601 649
13.879999756813 606
13.899999756366 646
13.919999755919 665
13.9399997554719 584
13.9599997550249 658
13.9799997545779 651
13.9999997541308 640
14.0199997536838 659
14.0399997532368 637
14.0599997527897 621
14.0799997523427 606
14.0999997518957 622
14.1199997514486 620
14.1399997510016 607
14.1599997505546 712
14.1799997501075 653
14.1999997496605 673
14.2199997492135 680
14.2399997487664 605
14.2599997483194 660
14.2799997478724 642
14.2999997474253 640
14.3199997469783 657
14.3399997465312 671
14.3599997460842 661
14.3799997456372 621
14.3999997451901 655
14.4199997447431 609
14.4399997442961 664
14.459999743849 694
14.479999743402 712
14.499999742955 659
14.5199997425079 713
14.5399997420609 669
14.5599997416139 656
14.5799997411668 648
14.5999997407198 689
14.6199997402728 689
14.6399997398257 690
14.6599997393787 679
14.6799997389317 679
14.6999997384846 695
14.7199997380376 674
14.7399997375906 667
14.7599997371435 675
14.7799997366965 727
14.7999997362494 702
14.8199997358024 684
14.8399997353554 708
14.8599997349083 683
14.8799997344613 679
14.8999997340143 675
14.9199997335672 678
14.9399997331202 734
14.9599997326732 731
14.9799997322261 746
14.9999997317791 673
15.0199997313321 710
15.039999730885 737
15.059999730438 711
15.079999729991 726
15.0999997295439 687
15.1199997290969 706
15.1399997286499 698
15.1599997282028 714
15.1799997277558 701
15.1999997273088 678
15.2199997268617 695
15.2399997264147 728
15.2599997259676 773
15.2799997255206 731
15.2999997250736 735
15.3199997246265 758
15.3399997241795 711
15.3599997237325 705
15.3799997232854 748
15.3999997228384 796
15.4199997223914 729
15.4399997219443 821
15.4599997214973 721
15.4799997210503 757
15.4999997206032 779
15.5199997201562 757
15.5399997197092 720
15.5599997192621 714
15.5799997188151 768
15.5999997183681 781
15.619999717921 777
15.639999717474 737
15.659999717027 697
15.6799997165799 740
15.6999997161329 735
15.7199997156858 784
15.7399997152388 791
15.7599997147918 712
15.7799997143447 763
15.7999997138977 739
15.8199997134507 755
15.8399997130036 734
15.8599997125566 775
15.8799997121096 742
15.8999997116625 755
15.9199997112155 760
15.9399997107685 759
15.9599997103214 776
15.9799997098744 743
15.9999997094274 743
16.0199997089803 822
16.0399997085333 803
16.0599997080863 791
16.0799997076392 779
16.0999997071922 816
16.1199997067451 798
16.1399997062981 812
16.1599997058511 800
16.179999705404 748
16.199999704957 823
16.21999970451 787
16.2399997040629 796
16.2599997036159 813
16.2799997031689 801
16.2999997027218 809
16.3199997022748 817
16.3399997018278 803
16.3599997013807 776
16.3799997009337 797
16.3999997004867 815
16.4199997000396 783
16.4399996995926 812
16.4599996991456 850
16.4799996986985 890
16.4999996982515 815
16.5199996978045 861
16.5399996973574 849
16.5599996969104 831
16.5799996964633 872
16.5999996960163 906
16.6199996955693 888
16.6399996951222 879
16.6599996946752 892
16.6799996942282 918
16.6999996937811 859
16.7199996933341 873
16.7399996928871 909
16.75999969244 888
16.779999691993 879
16.799999691546 916
16.8199996910989 947
16.8399996906519 970
16.8599996902049 950
16.8799996897578 1036
16.8999996893108 1037
16.9199996888638 1116
16.9399996884167 1107
16.9599996879697 1260
16.9799996875226 1306
16.9999996870756 1406
17.0199996866286 1489
17.0399996861815 1474
17.0599996857345 1339
17.0799996852875 1211
17.0999996848404 1073
17.1199996843934 1035
17.1399996839464 968
17.1599996834993 941
17.1799996830523 986
17.1999996826053 970
17.2199996821582 940
17.2399996817112 984
17.2599996812642 899
17.2799996808171 938
17.2999996803701 931
17.3199996799231 983
17.339999679476 904
17.359999679029 893
17.379999678582 948
17.3999996781349 927
17.4199996776879 933
17.4399996772408 936
17.4599996767938 933
17.4799996763468 964
17.4999996758997 966
17.5199996754527 977
17.5399996750057 957
17.5599996745586 1022
17.5799996741116 938
17.5999996736646 983
17.6199996732175 958
17.6399996727705 998
17.6599996723235 998
17.6799996718764 993
17.6999996714294 1020
17.7199996709824 999
17.7399996705353 1012
17.7599996700883 976
17.7799996696413 971
17.7999996691942 994
17.8199996687472 991
17.8399996683002 1012
17.8599996678531 995
17.8799996674061 984
17.899999666959 1028
17.919999666512 1007
17.939999666065 1032
17.9599996656179 984
17.9799996651709 1047
17.9999996647239 1054
18.0199996642768 1045
18.0399996638298 1017
18.0599996633828 1069
18.0799996629357 1059
18.0999996624887 996
18.1199996620417 1004
18.1399996615946 1024
18.1599996611476 1057
18.1799996607006 993
18.1999996602535 1075
18.2199996598065 1031
18.2399996593595 1107
18.2599996589124 1085
18.2799996584654 1035
18.2999996580184 1127
18.3199996575713 1073
18.3399996571243 1102
18.3599996566772 1121
18.3799996562302 1058
18.3999996557832 1078
18.4199996553361 1116
18.4399996548891 1109
18.4599996544421 1107
18.479999653995 1116
18.499999653548 1067
18.519999653101 1134
18.5399996526539 1139
18.5599996522069 1101
18.5799996517599 1110
18.5999996513128 1024
18.6199996508658 1165
18.6399996504188 1213
18.6599996499717 1130
18.6799996495247 1138
18.6999996490777 1097
18.7199996486306 1115
18.7399996481836 1162
18.7599996477366 1150
18.7799996472895 1142
18.7999996468425 1109
18.8199996463954 1201
18.8399996459484 1128
18.8599996455014 1095
18.8799996450543 1136
18.8999996446073 1203
18.9199996441603 1196
18.9399996437132 1184
18.9599996432662 1237
18.9799996428192 1199
18.9999996423721 1235
19.0199996419251 1151
19.0399996414781 1224
19.059999641031 1139
19.079999640584 1150
19.099999640137 1171
19.1199996396899 1183
19.1399996392429 1157
19.1599996387959 1160
19.1799996383488 1183
19.1999996379018 1174
19.2199996374547 1212
19.2399996370077 1240
19.2599996365607 1213
19.2799996361136 1228
19.2999996356666 1252
19.3199996352196 1224
19.3399996347725 1269
19.3599996343255 1239
19.3799996338785 1263
19.3999996334314 1253
19.4199996329844 1233
19.4399996325374 1259
19.4599996320903 1275
19.4799996316433 1253
19.4999996311963 1290
19.5199996307492 1252
19.5399996303022 1306
19.5599996298552 1219
19.5799996294081 1204
19.5999996289611 1263
19.6199996285141 1188
19.639999628067 1324
19.65999962762 1233
19.6799996271729 1330
19.6999996267259 1239
19.7199996262789 1290
19.7399996258318 1243
19.7599996253848 1196
19.7799996249378 1319
19.7999996244907 1385
19.8199996240437 1377
19.8399996235967 1376
19.8599996231496 1301
19.8799996227026 1286
19.8999996222556 1311
19.9199996218085 1343
19.9399996213615 1365
19.9599996209145 1328
19.9799996204674 1335
19.9999996200204 1368
