3 2946
3.01999999955297 2673
3.03999999910593 2631
3.0599999986589 2455
3.07999999821186 2510
3.09999999776483 2378
3.11999999731779 2311
3.13999999687076 2294
3.15999999642372 2273
3.17999999597669 2302
3.19999999552965 2161
3.21999999508262 2206
3.23999999463558 2195
3.25999999418855 2191
3.27999999374151 2015
3.29999999329448 2049
3.31999999284744 2003
3.33999999240041 2017
3.35999999195337 2077
3.37999999150634 1966
3.3999999910593 1950
3.41999999061227 1848
3.43999999016523 1859
3.4599999897182 1866
3.47999998927116 1869
3.49999998882413 1825
3.51999998837709 1752
3.53999998793006 1726
3.55999998748302 1766
3.57999998703599 1765
3.59999998658895 1709
3.61999998614192 1683
3.63999998569489 1635
3.65999998524785 1646
3.67999998480082 1670
3.69999998435378 1655
3.71999998390675 1651
3.73999998345971 1633
3.75999998301268 1584
3.77999998256564 1588
3.79999998211861 1583
3.81999998167157 1548
3.83999998122454 1598
3.8599999807775 1553
3.87999998033047 1579
3.89999997988343 1577
3.9199999794364 1486
3.93999997898936 1583
3.95999997854233 1498
3.97999997809529 1440
3.99999997764826 1480
4.01999997720122 1441
4.03999997675419 1546
4.05999997630715 1498
4.07999997586012 1450
4.09999997541308 1435
4.11999997496605 1350
4.13999997451901 1364
4.15999997407198 1340
4.17999997362494 1389
4.19999997317791 1273
4.21999997273087 1252
4.23999997228384 1239
4.25999997183681 1265
4.27999997138977 1235
4.29999997094274 1105
4.3199999704957 1225
4.33999997004867 1156
4.35999996960163 1122
4.3799999691546 1103
4.39999996870756 1136
4.41999996826053 1082
4.43999996781349 1092
4.45999996736646 1094
4.47999996691942 1118
4.49999996647239 1064
4.51999996602535 1053
4.53999996557832 1078
4.55999996513128 1020
4.57999996468425 1021
4.59999996423721 1032
4.61999996379018 1056
4.63999996334314 1058
4.65999996289611 978
4.67999996244907 982
4.69999996200204 1015
4.719999961555 1024
4.73999996110797 966
4.75999996066093 969
4.7799999602139 995
4.79999995976686 983
4.81999995931983 966
4.83999995887279 950
4.85999995842576 942
4.87999995797873 942
4.89999995753169 966
4.91999995708466 946
4.93999995663762 937
4.95999995619059 938
4.97999995574355 958
4.99999995529652 973
5.01999995484948 1041
5.03999995440245 1027
5.05999995395541 1023
5.07999995350838 980
5.09999995306134 1063
5.11999995261431 1004
5.13999995216727 1106
5.15999995172024 1071
5.1799999512732 1092
5.19999995082617 1187
5.21999995037913 1151
5.2399999499321 1194
5.25999994948506 1280
5.27999994903803 1264
5.29999994859099 1350
5.31999994814396 1530
5.33999994769692 1495
5.35999994724989 1666
5.37999994680285 1789
5.39999994635582 1841
5.41999994590878 1767
5.43999994546175 1678
5.45999994501471 1594
5.47999994456768 1468
5.49999994412065 1396
5.51999994367361 1472
5.53999994322658 1526
5.55999994277954 1446
5.57999994233251 1543
5.59999994188547 1583
5.61999994143844 1700
5.6399999409914 1722
5.65999994054437 1862
5.67999994009733 1897
5.6999999396503 2034
5.71999993920326 2159
5.73999993875623 2343
5.75999993830919 2291
5.77999993786216 2025
5.79999993741512 1822
5.81999993696809 1542
5.83999993652105 1276
5.85999993607402 1110
5.87999993562698 977
5.89999993517995 894
5.91999993473291 860
5.93999993428588 877
5.95999993383884 766
5.97999993339181 877
5.99999993294477 821
6.01999993249774 758
6.0399999320507 733
6.05999993160367 732
6.07999993115663 707
6.0999999307096 760
6.11999993026257 746
6.13999992981553 679
6.1599999293685 691
6.17999992892146 727
6.19999992847443 662
6.21999992802739 700
6.23999992758036 733
6.25999992713332 679
6.27999992668629 715
6.29999992623925 730
6.31999992579222 663
6.33999992534518 654
6.35999992489815 645
6.37999992445111 683
6.39999992400408 709
6.41999992355704 687
6.43999992311001 638
6.45999992266297 699
6.47999992221594 661
6.4999999217689 658
6.51999992132187 668
6.53999992087483 643
6.5599999204278 702
6.57999991998076 708
6.59999991953373 717
6.61999991908669 737
6.63999991863966 712
6.65999991819262 698
6.67999991774559 732
6.69999991729855 764
6.71999991685152 746
6.73999991640449 737
6.75999991595745 724
6.77999991551042 746
6.79999991506338 701
6.81999991461635 672
6.83999991416931 646
6.85999991372228 698
6.87999991327524 647
6.89999991282821 604
6.91999991238117 605
6.93999991193414 560
6.9599999114871 618
6.97999991104007 618
6.99999991059303 613
7.019999910146 575
7.03999990969896 615
7.05999990925193 595
7.07999990880489 577
7.09999990835786 634
7.11999990791082 616
7.13999990746379 567
7.15999990701675 597
7.17999990656972 573
7.19999990612268 613
7.21999990567565 551
7.23999990522861 553
7.25999990478158 598
7.27999990433454 533
7.29999990388751 607
7.31999990344047 591
7.33999990299344 571
7.35999990254641 606
7.37999990209937 599
7.39999990165234 559
7.4199999012053 583
7.43999990075827 545
7.45999990031123 643
7.4799998998642 553
7.49999989941716 591
7.51999989897013 563
7.53999989852309 568
7.55999989807606 559
7.57999989762902 586
7.59999989718199 526
7.61999989673495 545
7.63999989628792 584
7.65999989584088 569
7.67999989539385 540
7.69999989494681 531
7.71999989449978 593
7.73999989405274 553
7.75999989360571 557
7.77999989315867 612
7.79999989271164 602
7.8199998922646 558
7.83999989181757 542
7.85999989137053 557
7.8799998909235 575
7.89999989047646 604
7.91999989002943 597
7.9399998895824 534
7.95999988913536 572
7.97999988868833 589
7.99999988824129 544
8.01999988779426 548
8.03999988734722 535
8.05999988690019 587
8.07999988645315 545
8.09999988600612 529
8.11999988555908 556
8.13999988511205 577
8.15999988466501 574
8.17999988421798 580
8.19999988377094 548
8.21999988332391 558
8.23999988287687 540
8.25999988242984 522
8.2799998819828 549
8.29999988153577 541
8.31999988108873 522
8.3399998806417 508
8.35999988019466 538
8.37999987974763 512
8.39999987930059 543
8.41999987885356 505
8.43999987840652 536
8.45999987795949 512
8.47999987751245 556
8.49999987706542 516
8.51999987661839 506
8.53999987617135 517
8.55999987572432 521
8.57999987527728 525
8.59999987483025 530
8.61999987438321 553
8.63999987393618 538
8.65999987348914 529
8.67999987304211 514
8.69999987259507 527
8.71999987214804 513
8.739999871701 494
8.75999987125397 498
8.77999987080693 496
8.7999998703599 528
8.81999986991286 505
8.83999986946583 517
8.85999986901879 534
8.87999986857176 573
8.89999986812472 557
8.91999986767769 573
8.93999986723065 613
8.95999986678362 588
8.97999986633658 574
8.99999986588955 602
9.01999986544251 600
9.03999986499548 585
9.05999986454844 616
9.07999986410141 549
9.09999986365438 613
9.11999986320734 640
9.13999986276031 714
9.15999986231327 717
9.17999986186624 745
9.1999998614192 794
9.21999986097217 805
9.23999986052513 880
9.2599998600781 920
9.27999985963106 1073
9.29999985918403 1226
9.31999985873699 1165
9.33999985828996 1061
9.35999985784292 881
9.37999985739589 786
9.39999985694885 696
9.41999985650182 692
9.43999985605478 606
9.45999985560775 580
9.47999985516071 569
9.49999985471368 583
9.51999985426664 542
9.53999985381961 548
9.55999985337257 523
9.57999985292554 546
9.5999998524785 502
9.61999985203147 541
9.63999985158443 501
9.6599998511374 526
9.67999985069037 557
9.69999985024333 554
9.7199998497963 533
9.73999984934926 560
9.75999984890223 541
9.77999984845519 513
9.79999984800816 519
9.81999984756112 512
9.83999984711409 532
9.85999984666705 509
9.87999984622002 557
9.89999984577298 550
9.91999984532595 571
9.93999984487891 539
9.95999984443188 552
9.97999984398484 536
9.99999984353781 591
10.0199998430908 577
10.0399998426437 591
10.0599998421967 607
10.0799998417497 618
10.0999998413026 650
10.1199998408556 641
10.1399998404086 663
10.1599998399615 654
10.1799998395145 688
10.1999998390675 581
10.2199998386204 615
10.2399998381734 582
10.2599998377264 494
10.2799998372793 533
10.2999998368323 541
10.3199998363853 517
10.3399998359382 539
10.3599998354912 482
10.3799998350441 501
10.3999998345971 530
10.4199998341501 519
10.439999833703 495
10.459999833256 517
10.479999832809 519
10.4999998323619 520
10.5199998319149 498
10.5399998314679 541
10.5599998310208 539
10.5799998305738 539
10.5999998301268 529
10.6199998296797 584
10.6399998292327 587
10.6599998287857 580
10.6799998283386 632
10.6999998278916 656
10.7199998274446 710
10.7399998269975 724
10.7599998265505 745
10.7799998261034 776
10.7999998256564 755
10.8199998252094 735
10.8399998247623 715
10.8599998243153 735
10.8799998238683 782
10.8999998234212 860
10.9199998229742 865
10.9399998225272 881
10.9599998220801 865
10.9799998216331 706
10.9999998211861 632
11.019999820739 588
11.039999820292 574
11.059999819845 561
11.0799998193979 525
11.0999998189509 517
11.1199998185039 513
11.1399998180568 530
11.1599998176098 525
11.1799998171628 525
11.1999998167157 500
11.2199998162687 533
11.2399998158216 524
11.2599998153746 502
11.2799998149276 500
11.2999998144805 530
11.3199998140335 577
11.3399998135865 567
11.3599998131394 569
11.3799998126924 575
11.3999998122454 566
11.4199998117983 591
11.4399998113513 631
11.4599998109043 639
11.4799998104572 601
11.4999998100102 574
11.5199998095632 565
11.5399998091161 512
11.5599998086691 511
11.5799998082221 544
11.599999807775 521
11.619999807328 527
11.639999806881 458
11.6599998064339 485
11.6799998059869 471
11.6999998055398 472
11.7199998050928 467
11.7399998046458 532
11.7599998041987 531
11.7799998037517 509
11.7999998033047 502
11.8199998028576 512
11.8399998024106 505
11.8599998019636 508
11.8799998015165 486
11.8999998010695 514
11.9199998006225 542
11.9399998001754 505
11.9599997997284 497
11.9799997992814 510
11.9999997988343 504
12.0199997983873 502
12.0399997979403 528
12.0599997974932 538
12.0799997970462 522
12.0999997965992 557
12.1199997961521 519
12.1399997957051 510
12.159999795258 541
12.179999794811 565
12.199999794364 574
12.2199997939169 545
12.2399997934699 517
12.2599997930229 525
12.2799997925758 546
12.2999997921288 521
12.3199997916818 514
12.3399997912347 538
12.3599997907877 552
12.3799997903407 480
12.3999997898936 496
12.4199997894466 473
12.4399997889996 463
12.4599997885525 451
12.4799997881055 483
12.4999997876585 504
12.5199997872114 495
12.5399997867644 510
12.5599997863173 491
12.5799997858703 503
12.5999997854233 493
12.6199997849762 510
12.6399997845292 503
12.6599997840822 495
12.6799997836351 487
12.6999997831881 492
12.7199997827411 506
12.739999782294 521
12.759999781847 504
12.7799997814 502
12.7999997809529 500
12.8199997805059 495
12.8399997800589 485
12.8599997796118 487
12.8799997791648 492
12.8999997787178 495
12.9199997782707 551
12.9399997778237 509
12.9599997773767 453
12.9799997769296 504
12.9999997764826 528
13.0199997760355 521
13.0399997755885 497
13.0599997751415 477
13.0799997746944 501
13.0999997742474 481
13.1199997738004 511
13.1399997733533 517
13.1599997729063 543
13.1799997724593 514
13.1999997720122 542
13.2199997715652 533
13.2399997711182 528
13.2599997706711 565
13.2799997702241 541
13.2999997697771 494
13.31999976933 596
13.339999768883 544
13.359999768436 532
13.3799997679889 578
13.3999997675419 531
13.4199997670949 521
13.4399997666478 559
13.4599997662008 518
13.4799997657537 526
13.4999997653067 512
13.5199997648597 522
13.5399997644126 543
13.5599997639656 472
13.5799997635186 548
13.5999997630715 513
13.6199997626245 538
13.6399997621775 502
13.6599997617304 464
13.6799997612834 557
13.6999997608364 533
13.7199997603893 480
13.7399997599423 551
13.7599997594953 495
13.7799997590482 518
13.7999997586012 478
13.8199997581542 520
13.8399997577071 533
13.8599997572601 530
13.879999756813 496
13.899999756366 528
13.919999755919 520
13.9399997554719 541
13.9599997550249 478
13.9799997545779 512
13.9999997541308 521
14.0199997536838 498
14.0399997532368 515
14.0599997527897 552
14.0799997523427 594
14.0999997518957 529
14.1199997514486 533
14.1399997510016 523
14.1599997505546 566
14.1799997501075 527
14.1999997496605 551
14.2199997492135 603
14.2399997487664 618
14.2599997483194 556
14.2799997478724 529
14.2999997474253 564
14.3199997469783 573
14.3399997465312 565
14.3599997460842 595
14.3799997456372 581
14.3999997451901 558
14.4199997447431 609
14.4399997442961 553
14.459999743849 564
14.479999743402 553
14.499999742955 562
14.5199997425079 557
14.5399997420609 553
14.5599997416139 542
14.5799997411668 597
14.5999997407198 528
14.6199997402728 591
14.6399997398257 591
14.6599997393787 550
14.6799997389317 560
14.6999997384846 580
14.7199997380376 580
14.7399997375906 618
14.7599997371435 626
14.7799997366965 618
14.7999997362494 606
14.8199997358024 618
14.8399997353554 619
14.8599997349083 600
14.8799997344613 560
14.8999997340143 598
14.9199997335672 575
14.9399997331202 608
14.9599997326732 568
14.9799997322261 579
14.9999997317791 568
15.0199997313321 586
15.039999730885 562
15.059999730438 600
15.079999729991 578
15.0999997295439 555
15.1199997290969 586
15.1399997286499 577
15.1599997282028 560
15.1799997277558 600
15.1999997273088 595
15.2199997268617 620
15.2399997264147 618
15.2599997259676 597
15.2799997255206 595
15.2999997250736 584
15.3199997246265 590
15.3399997241795 617
15.3599997237325 604
15.3799997232854 556
15.3999997228384 594
15.4199997223914 588
15.4399997219443 586
15.4599997214973 646
15.4799997210503 608
15.4999997206032 588
15.5199997201562 610
15.5399997197092 585
15.5599997192621 562
15.5799997188151 644
15.5999997183681 568
15.619999717921 602
15.639999717474 595
15.659999717027 614
15.6799997165799 599
15.6999997161329 567
15.7199997156858 613
15.7399997152388 563
15.7599997147918 587
15.7799997143447 611
15.7999997138977 612
15.8199997134507 623
15.8399997130036 560
15.8599997125566 583
15.8799997121096 642
15.8999997116625 671
15.9199997112155 616
15.9399997107685 623
15.9599997103214 615
15.9799997098744 611
15.9999997094274 617
16.0199997089803 645
16.0399997085333 662
16.0599997080863 659
16.0799997076392 629
16.0999997071922 704
16.1199997067451 698
16.1399997062981 669
16.1599997058511 686
16.179999705404 634
16.199999704957 725
16.21999970451 696
16.2399997040629 669
16.2599997036159 704
16.2799997031689 696
16.2999997027218 684
16.3199997022748 710
16.3399997018278 711
16.3599997013807 698
16.3799997009337 692
16.3999997004867 655
16.4199997000396 671
16.4399996995926 678
16.4599996991456 683
16.4799996986985 651
16.4999996982515 673
16.5199996978045 688
16.5399996973574 708
16.5599996969104 664
16.5799996964633 677
16.5999996960163 640
16.6199996955693 711
16.6399996951222 742
16.6599996946752 705
16.6799996942282 637
16.6999996937811 682
16.7199996933341 720
16.7399996928871 692
16.75999969244 685
16.779999691993 716
16.799999691546 718
16.8199996910989 810
16.8399996906519 769
16.8599996902049 797
16.8799996897578 894
16.8999996893108 946
16.9199996888638 1043
16.9399996884167 1292
16.9599996879697 1435
16.9799996875226 1392
16.9999996870756 1286
17.0199996866286 1147
17.0399996861815 1069
17.0599996857345 914
17.0799996852875 825
17.0999996848404 819
17.1199996843934 757
17.1399996839464 746
17.1599996834993 740
17.1799996830523 729
17.1999996826053 784
17.2199996821582 837
17.2399996817112 747
17.2599996812642 765
17.2799996808171 765
17.2999996803701 747
17.3199996799231 758
17.339999679476 763
17.359999679029 800
17.379999678582 764
17.3999996781349 742
17.4199996776879 725
17.4399996772408 792
17.4599996767938 813
17.4799996763468 799
17.4999996758997 786
17.5199996754527 765
17.5399996750057 826
17.5599996745586 792
17.5799996741116 762
17.5999996736646 869
17.6199996732175 738
17.6399996727705 767
17.6599996723235 857
17.6799996718764 842
17.6999996714294 798
17.7199996709824 743
17.7399996705353 777
17.7599996700883 789
17.7799996696413 817
17.7999996691942 812
17.8199996687472 831
17.8399996683002 829
17.8599996678531 819
17.8799996674061 840
17.899999666959 845
17.919999666512 804
17.939999666065 818
17.9599996656179 817
17.9799996651709 780
17.9999996647239 821
18.0199996642768 818
18.0399996638298 766
18.0599996633828 798
18.0799996629357 843
18.0999996624887 810
18.1199996620417 777
18.1399996615946 874
18.1599996611476 820
18.1799996607006 806
18.1999996602535 809
18.2199996598065 827
18.2399996593595 852
18.2599996589124 866
18.2799996584654 824
18.2999996580184 897
18.3199996575713 879
18.3399996571243 815
18.3599996566772 868
18.3799996562302 843
18.3999996557832 893
18.4199996553361 849
18.4399996548891 883
18.4599996544421 942
18.479999653995 837
18.499999653548 823
18.519999653101 862
18.5399996526539 974
18.5599996522069 892
18.5799996517599 872
18.5999996513128 956
18.6199996508658 932
18.6399996504188 881
18.6599996499717 947
18.6799996495247 948
18.6999996490777 970
18.7199996486306 916
18.7399996481836 961
18.7599996477366 957
18.7799996472895 960
18.7999996468425 882
18.8199996463954 951
18.8399996459484 920
18.8599996455014 888
18.8799996450543 984
18.8999996446073 978
18.9199996441603 949
18.9399996437132 985
18.9599996432662 1049
18.9799996428192 949
18.9999996423721 964
19.0199996419251 1032
19.0399996414781 1006
19.059999641031 1053
19.079999640584 1094
19.099999640137 1081
19.1199996396899 1075
19.1399996392429 1063
19.1599996387959 1018
19.1799996383488 1035
19.1999996379018 1048
19.2199996374547 915
19.2399996370077 994
19.2599996365607 923
19.2799996361136 1047
19.2999996356666 1015
19.3199996352196 1026
19.3399996347725 1090
19.3599996343255 1116
19.3799996338785 1095
19.3999996334314 1132
19.4199996329844 1115
19.4399996325374 1208
19.4599996320903 1137
19.4799996316433 1166
19.4999996311963 1160
19.5199996307492 1135
19.5399996303022 1159
19.5599996298552 1170
19.5799996294081 1073
19.5999996289611 1041
19.6199996285141 1054
19.639999628067 1037
19.65999962762 1005
19.6799996271729 999
19.6999996267259 1023
19.7199996262789 1000
19.7399996258318 995
19.7599996253848 1054
19.7799996249378 1029
19.7999996244907 1050
19.8199996240437 1056
19.8399996235967 1045
19.8599996231496 1088
19.8799996227026 1097
19.8999996222556 1047
19.9199996218085 1040
19.9399996213615 1023
19.9599996209145 1088
19.9799996204674 1019
19.9999996200204 1064
