3 2361
3.01999999955297 2164
3.03999999910593 2054
3.0599999986589 2007
3.07999999821186 1888
3.09999999776483 1847
3.11999999731779 1795
3.13999999687076 1816
3.15999999642372 1834
3.17999999597669 1792
3.19999999552965 1749
3.21999999508262 1693
3.23999999463558 1686
3.25999999418855 1657
3.27999999374151 1724
3.29999999329448 1646
3.31999999284744 1744
3.33999999240041 1721
3.35999999195337 1677
3.37999999150634 1722
3.3999999910593 1625
3.41999999061227 1634
3.43999999016523 1605
3.4599999897182 1618
3.47999998927116 1582
3.49999998882413 1562
3.51999998837709 1583
3.53999998793006 1569
3.55999998748302 1529
3.57999998703599 1551
3.59999998658895 1522
3.61999998614192 1615
3.63999998569489 1480
3.65999998524785 1488
3.67999998480082 1467
3.69999998435378 1499
3.71999998390675 1554
3.73999998345971 1496
3.75999998301268 1496
3.77999998256564 1550
3.79999998211861 1515
3.81999998167157 1533
3.83999998122454 1483
3.8599999807775 1509
3.87999998033047 1526
3.89999997988343 1497
3.9199999794364 1446
3.93999997898936 1424
3.95999997854233 1466
3.97999997809529 1449
3.99999997764826 1448
4.01999997720122 1423
4.03999997675419 1410
4.05999997630715 1419
4.07999997586012 1495
4.09999997541308 1382
4.11999997496605 1400
4.13999997451901 1380
4.15999997407198 1389
4.17999997362494 1388
4.19999997317791 1352
4.21999997273087 1373
4.23999997228384 1430
4.25999997183681 1329
4.27999997138977 1333
4.29999997094274 1326
4.3199999704957 1390
4.33999997004867 1372
4.35999996960163 1378
4.3799999691546 1357
4.39999996870756 1357
4.41999996826053 1328
4.43999996781349 1392
4.45999996736646 1340
4.47999996691942 1292
4.49999996647239 1308
4.51999996602535 1287
4.53999996557832 1276
4.55999996513128 1286
4.57999996468425 1372
4.59999996423721 1261
4.61999996379018 1273
4.63999996334314 1263
4.65999996289611 1303
4.67999996244907 1280
4.69999996200204 1238
4.719999961555 1305
4.73999996110797 1225
4.75999996066093 1285
4.7799999602139 1249
4.79999995976686 1303
4.81999995931983 1281
4.83999995887279 1255
4.85999995842576 1226
4.87999995797873 1253
4.89999995753169 1217
4.91999995708466 1210
4.93999995663762 1260
4.95999995619059 1234
4.97999995574355 1271
4.99999995529652 1230
5.01999995484948 1213
5.03999995440245 1254
5.05999995395541 1241
5.07999995350838 1238
5.09999995306134 1210
5.11999995261431 1178
5.13999995216727 1252
5.15999995172024 1154
5.1799999512732 1192
5.19999995082617 1320
5.21999995037913 1262
5.2399999499321 1268
5.25999994948506 1283
5.27999994903803 1235
5.29999994859099 1311
5.31999994814396 1326
5.33999994769692 1298
5.35999994724989 1248
5.37999994680285 1325
5.39999994635582 1332
5.41999994590878 1322
5.43999994546175 1373
5.45999994501471 1288
5.47999994456768 1263
5.49999994412065 1273
5.51999994367361 1189
5.53999994322658 1161
5.55999994277954 1135
5.57999994233251 1142
5.59999994188547 1103
5.61999994143844 1082
5.6399999409914 1014
5.65999994054437 1024
5.67999994009733 1049
5.6999999396503 975
5.71999993920326 949
5.73999993875623 950
5.75999993830919 963
5.77999993786216 939
5.79999993741512 921
5.81999993696809 910
5.83999993652105 945
5.85999993607402 941
5.87999993562698 894
5.89999993517995 911
5.91999993473291 882
5.93999993428588 894
5.95999993383884 935
5.97999993339181 895
5.99999993294477 855
6.01999993249774 866
6.0399999320507 799
6.05999993160367 789
6.07999993115663 852
6.0999999307096 830
6.11999993026257 851
6.13999992981553 798
6.1599999293685 729
6.17999992892146 819
6.19999992847443 822
6.21999992802739 864
6.23999992758036 806
6.25999992713332 766
6.27999992668629 797
6.29999992623925 725
6.31999992579222 800
6.33999992534518 801
6.35999992489815 720
6.37999992445111 823
6.39999992400408 771
6.41999992355704 816
6.43999992311001 750
6.45999992266297 736
6.47999992221594 809
6.4999999217689 803
6.51999992132187 750
6.53999992087483 754
6.5599999204278 702
6.57999991998076 757
6.59999991953373 741
6.61999991908669 675
6.63999991863966 732
6.65999991819262 725
6.67999991774559 695
6.69999991729855 737
6.71999991685152 715
6.73999991640449 744
6.75999991595745 706
6.77999991551042 724
6.79999991506338 698
6.81999991461635 710
6.83999991416931 689
6.85999991372228 720
6.87999991327524 704
6.89999991282821 665
6.91999991238117 684
6.93999991193414 645
6.9599999114871 689
6.97999991104007 704
6.99999991059303 702
7.019999910146 676
7.03999990969896 698
7.05999990925193 623
7.07999990880489 698
7.09999990835786 680
7.11999990791082 631
7.13999990746379 669
7.15999990701675 645
7.17999990656972 608
7.19999990612268 662
7.21999990567565 666
7.23999990522861 615
7.25999990478158 640
7.27999990433454 639
7.29999990388751 661
7.31999990344047 637
7.33999990299344 644
7.35999990254641 660
7.37999990209937 675
7.39999990165234 660
7.4199999012053 595
7.43999990075827 650
7.45999990031123 639
7.4799998998642 618
7.49999989941716 650
7.51999989897013 649
7.53999989852309 665
7.55999989807606 653
7.57999989762902 623
7.59999989718199 658
7.61999989673495 621
7.63999989628792 595
7.65999989584088 604
7.67999989539385 633
7.69999989494681 643
7.71999989449978 638
7.73999989405274 603
7.75999989360571 600
7.77999989315867 623
7.79999989271164 651
7.8199998922646 594
7.83999989181757 579
7.85999989137053 624
7.8799998909235 602
7.89999989047646 610
7.91999989002943 645
7.9399998895824 569
7.95999988913536 593
7.97999988868833 612
7.99999988824129 655
8.01999988779426 616
8.03999988734722 602
8.05999988690019 563
8.07999988645315 623
8.09999988600612 607
8.11999988555908 587
8.13999988511205 623
8.15999988466501 611
8.17999988421798 586
8.19999988377094 577
8.21999988332391 619
8.23999988287687 559
8.25999988242984 602
8.2799998819828 634
8.29999988153577 618
8.31999988108873 559
8.3399998806417 590
8.35999988019466 609
8.37999987974763 598
8.39999987930059 571
8.41999987885356 573
8.43999987840652 576
8.45999987795949 599
8.47999987751245 584
8.49999987706542 611
8.51999987661839 567
8.53999987617135 588
8.55999987572432 587
8.57999987527728 566
8.59999987483025 582
8.61999987438321 588
8.63999987393618 610
8.65999987348914 543
8.67999987304211 594
8.69999987259507 566
8.71999987214804 580
8.739999871701 519
8.75999987125397 651
8.77999987080693 600
8.7999998703599 601
8.81999986991286 567
8.83999986946583 580
8.85999986901879 575
8.87999986857176 613
8.89999986812472 582
8.91999986767769 575
8.93999986723065 577
8.95999986678362 540
8.97999986633658 574
8.99999986588955 583
9.01999986544251 539
9.03999986499548 616
9.05999986454844 579
9.07999986410141 548
9.09999986365438 546
9.11999986320734 586
9.13999986276031 582
9.15999986231327 616
9.17999986186624 625
9.1999998614192 619
9.21999986097217 566
9.23999986052513 561
9.2599998600781 592
9.27999985963106 602
9.29999985918403 626
9.31999985873699 605
9.33999985828996 655
9.35999985784292 626
9.37999985739589 652
9.39999985694885 612
9.41999985650182 613
9.43999985605478 614
9.45999985560775 575
9.47999985516071 580
9.49999985471368 581
9.51999985426664 590
9.53999985381961 570
9.55999985337257 563
9.57999985292554 591
9.5999998524785 606
9.61999985203147 560
9.63999985158443 565
9.6599998511374 536
9.67999985069037 541
9.69999985024333 566
9.7199998497963 576
9.73999984934926 514
9.75999984890223 539
9.77999984845519 577
9.79999984800816 606
9.81999984756112 547
9.83999984711409 559
9.85999984666705 552
9.87999984622002 541
9.89999984577298 548
9.91999984532595 574
9.93999984487891 545
9.95999984443188 529
9.97999984398484 526
9.99999984353781 531
10.0199998430908 542
10.0399998426437 552
10.0599998421967 538
10.0799998417497 525
10.0999998413026 543
10.1199998408556 510
10.1399998404086 520
10.1599998399615 551
10.1799998395145 507
10.1999998390675 487
10.2199998386204 509
10.2399998381734 556
10.2599998377264 546
10.2799998372793 521
10.2999998368323 518
10.3199998363853 534
10.3399998359382 503
10.3599998354912 498
10.3799998350441 538
10.3999998345971 527
10.4199998341501 531
10.439999833703 511
10.459999833256 542
10.479999832809 526
10.4999998323619 508
10.5199998319149 492
10.5399998314679 558
10.5599998310208 533
10.5799998305738 517
10.5999998301268 548
10.6199998296797 516
10.6399998292327 534
10.6599998287857 496
10.6799998283386 525
10.6999998278916 520
10.7199998274446 546
10.7399998269975 504
10.7599998265505 530
10.7799998261034 556
10.7999998256564 530
10.8199998252094 551
10.8399998247623 526
10.8599998243153 561
10.8799998238683 523
10.8999998234212 543
10.9199998229742 569
10.9399998225272 536
10.9599998220801 536
10.9799998216331 527
10.9999998211861 530
11.019999820739 507
11.039999820292 526
11.059999819845 488
11.0799998193979 529
11.0999998189509 506
11.1199998185039 548
11.1399998180568 509
11.1599998176098 503
11.1799998171628 524
11.1999998167157 478
11.2199998162687 511
11.2399998158216 498
11.2599998153746 525
11.2799998149276 471
11.2999998144805 518
11.3199998140335 526
11.3399998135865 552
11.3599998131394 502
11.3799998126924 532
11.3999998122454 500
11.4199998117983 485
11.4399998113513 490
11.4599998109043 463
11.4799998104572 505
11.4999998100102 491
11.5199998095632 498
11.5399998091161 471
11.5599998086691 500
11.5799998082221 492
11.599999807775 506
11.619999807328 505
11.639999806881 536
11.6599998064339 508
11.6799998059869 511
11.6999998055398 519
11.7199998050928 495
11.7399998046458 460
11.7599998041987 496
11.7799998037517 550
11.7999998033047 515
11.8199998028576 502
11.8399998024106 479
11.8599998019636 508
11.8799998015165 481
11.8999998010695 505
11.9199998006225 485
11.9399998001754 483
11.9599997997284 508
11.9799997992814 513
11.9999997988343 506
12.0199997983873 491
12.0399997979403 519
12.0599997974932 471
12.0799997970462 478
12.0999997965992 501
12.1199997961521 519
12.1399997957051 507
12.159999795258 485
12.179999794811 485
12.199999794364 485
12.2199997939169 489
12.2399997934699 493
12.2599997930229 510
12.2799997925758 519
12.2999997921288 486
12.3199997916818 529
12.3399997912347 492
12.3599997907877 504
12.3799997903407 499
12.3999997898936 451
12.4199997894466 479
12.4399997889996 503
12.4599997885525 495
12.4799997881055 532
12.4999997876585 527
12.5199997872114 528
12.5399997867644 499
12.5599997863173 555
12.5799997858703 516
12.5999997854233 504
12.6199997849762 520
12.6399997845292 530
12.6599997840822 493
12.6799997836351 479
12.6999997831881 538
12.7199997827411 525
12.739999782294 497
12.759999781847 485
12.7799997814 500
12.7999997809529 512
12.8199997805059 536
12.8399997800589 499
12.8599997796118 491
12.8799997791648 505
12.8999997787178 496
12.9199997782707 520
12.9399997778237 514
12.9599997773767 527
12.9799997769296 521
12.9999997764826 517
13.0199997760355 520
13.0399997755885 537
13.0599997751415 530
13.0799997746944 491
13.0999997742474 521
13.1199997738004 522
13.1399997733533 526
13.1599997729063 530
13.1799997724593 570
13.1999997720122 528
13.2199997715652 555
13.2399997711182 532
13.2599997706711 494
13.2799997702241 535
13.2999997697771 548
13.31999976933 501
13.339999768883 515
13.359999768436 495
13.3799997679889 513
13.3999997675419 527
13.4199997670949 532
13.4399997666478 490
13.4599997662008 489
13.4799997657537 549
13.4999997653067 494
13.5199997648597 528
13.5399997644126 528
13.5599997639656 508
13.5799997635186 541
13.5999997630715 508
13.6199997626245 509
13.6399997621775 556
13.6599997617304 489
13.6799997612834 506
13.6999997608364 497
13.7199997603893 549
13.7399997599423 487
13.7599997594953 570
13.7799997590482 521
13.7999997586012 561
13.8199997581542 535
13.8399997577071 544
13.8599997572601 538
13.879999756813 534
13.899999756366 548
13.919999755919 502
13.9399997554719 571
13.9599997550249 551
13.9799997545779 544
13.9999997541308 523
14.0199997536838 568
14.0399997532368 547
14.0599997527897 566
14.0799997523427 560
14.0999997518957 579
14.1199997514486 538
14.1399997510016 512
14.1599997505546 523
14.1799997501075 553
14.1999997496605 527
14.2199997492135 552
14.2399997487664 530
14.2599997483194 524
14.2799997478724 530
14.2999997474253 513
14.3199997469783 568
14.3399997465312 529
14.3599997460842 544
14.3799997456372 556
14.3999997451901 588
14.4199997447431 549
14.4399997442961 563
14.459999743849 535
14.479999743402 542
14.499999742955 548
14.5199997425079 568
14.5399997420609 541
14.5599997416139 507
14.5799997411668 552
14.5999997407198 508
14.6199997402728 543
14.6399997398257 589
14.6599997393787 540
14.6799997389317 554
14.6999997384846 573
14.7199997380376 533
14.7399997375906 550
14.7599997371435 562
14.7799997366965 634
14.7999997362494 553
14.8199997358024 537
14.8399997353554 559
14.8599997349083 586
14.8799997344613 548
14.8999997340143 564
14.9199997335672 581
14.9399997331202 590
14.9599997326732 614
14.9799997322261 605
14.9999997317791 571
15.0199997313321 548
15.039999730885 568
15.059999730438 572
15.079999729991 569
15.0999997295439 596
15.1199997290969 533
15.1399997286499 564
15.1599997282028 538
15.1799997277558 568
15.1999997273088 618
15.2199997268617 569
15.2399997264147 566
15.2599997259676 563
15.2799997255206 594
15.2999997250736 617
15.3199997246265 632
15.3399997241795 582
15.3599997237325 569
15.3799997232854 606
15.3999997228384 642
15.4199997223914 598
15.4399997219443 593
15.4599997214973 563
15.4799997210503 552
15.4999997206032 587
15.5199997201562 578
15.5399997197092 617
15.5599997192621 589
15.5799997188151 595
15.5999997183681 572
15.619999717921 639
15.639999717474 601
15.659999717027 610
15.6799997165799 606
15.6999997161329 557
15.7199997156858 553
15.7399997152388 566
15.7599997147918 622
15.7799997143447 576
15.7999997138977 590
15.8199997134507 626
15.8399997130036 634
15.8599997125566 636
15.8799997121096 580
15.8999997116625 623
15.9199997112155 662
15.9399997107685 601
15.9599997103214 632
15.9799997098744 619
15.9999997094274 590
16.0199997089803 604
16.0399997085333 631
16.0599997080863 621
16.0799997076392 623
16.0999997071922 630
16.1199997067451 614
16.1399997062981 664
16.1599997058511 670
16.179999705404 657
16.199999704957 669
16.21999970451 638
16.2399997040629 621
16.2599997036159 657
16.2799997031689 620
16.2999997027218 612
16.3199997022748 634
16.3399997018278 665
16.3599997013807 638
16.3799997009337 686
16.3999997004867 653
16.4199997000396 617
16.4399996995926 640
16.4599996991456 617
16.4799996986985 661
16.4999996982515 674
16.5199996978045 621
16.5399996973574 687
16.5599996969104 645
16.5799996964633 645
16.5999996960163 696
16.6199996955693 647
16.6399996951222 672
16.6599996946752 689
16.6799996942282 678
16.6999996937811 688
16.7199996933341 702
16.7399996928871 706
16.75999969244 711
16.779999691993 726
16.799999691546 759
16.8199996910989 805
16.8399996906519 794
16.8599996902049 857
16.8799996897578 853
16.8999996893108 955
16.9199996888638 988
16.9399996884167 1207
16.9599996879697 1299
16.9799996875226 1611
16.9999996870756 2124
17.0199996866286 2674
17.0399996861815 2492
17.0599996857345 2047
17.0799996852875 1616
17.0999996848404 1199
17.1199996843934 979
17.1399996839464 855
17.1599996834993 765
17.1799996830523 758
17.1999996826053 761
17.2199996821582 729
17.2399996817112 756
17.2599996812642 685
17.2799996808171 753
17.2999996803701 734
17.3199996799231 796
17.339999679476 740
17.359999679029 755
17.379999678582 725
17.3999996781349 727
17.4199996776879 761
17.4399996772408 709
17.4599996767938 740
17.4799996763468 716
17.4999996758997 748
17.5199996754527 742
17.5399996750057 699
17.5599996745586 725
17.5799996741116 764
17.5999996736646 784
17.6199996732175 767
17.6399996727705 736
17.6599996723235 772
17.6799996718764 747
17.6999996714294 701
17.7199996709824 767
17.7399996705353 747
17.7599996700883 766
17.7799996696413 754
17.7999996691942 772
17.8199996687472 762
17.8399996683002 721
17.8599996678531 749
17.8799996674061 796
17.899999666959 787
17.919999666512 759
17.939999666065 840
17.9599996656179 740
17.9799996651709 745
17.9999996647239 747
18.0199996642768 785
18.0399996638298 765
18.0599996633828 775
18.0799996629357 795
18.0999996624887 740
18.1199996620417 808
18.1399996615946 805
18.1599996611476 757
18.1799996607006 771
18.1999996602535 797
18.2199996598065 833
18.2399996593595 799
18.2599996589124 812
18.2799996584654 802
18.2999996580184 774
18.3199996575713 744
18.3399996571243 791
18.3599996566772 813
18.3799996562302 810
18.3999996557832 823
18.4199996553361 797
18.4399996548891 776
18.4599996544421 758
18.479999653995 798
18.499999653548 813
18.519999653101 825
18.5399996526539 833
18.5599996522069 886
18.5799996517599 856
18.5999996513128 868
18.6199996508658 885
18.6399996504188 786
18.6599996499717 907
18.6799996495247 775
18.6999996490777 837
18.7199996486306 829
18.7399996481836 827
18.7599996477366 815
18.7799996472895 874
18.7999996468425 824
18.8199996463954 873
18.8399996459484 837
18.8599996455014 843
18.8799996450543 911
18.8999996446073 861
18.9199996441603 877
18.9399996437132 878
18.9599996432662 847
18.9799996428192 867
18.9999996423721 842
19.0199996419251 853
19.0399996414781 827
19.059999641031 890
19.079999640584 901
19.099999640137 884
19.1199996396899 867
19.1399996392429 858
19.1599996387959 895
19.1799996383488 866
19.1999996379018 889
19.2199996374547 923
19.2399996370077 909
19.2599996365607 872
19.2799996361136 883
19.2999996356666 907
19.3199996352196 865
19.3399996347725 882
19.3599996343255 864
19.3799996338785 855
19.3999996334314 895
19.4199996329844 945
19.4399996325374 879
19.4599996320903 920
19.4799996316433 840
19.4999996311963 891
19.5199996307492 859
19.5399996303022 933
19.5599996298552 908
19.5799996294081 902
19.5999996289611 909
19.6199996285141 937
19.639999628067 918
19.65999962762 839
19.6799996271729 915
19.6999996267259 893
19.7199996262789 930
19.7399996258318 958
19.7599996253848 954
19.7799996249378 895
19.7999996244907 959
19.8199996240437 951
19.8399996235967 954
19.8599996231496 894
19.8799996227026 943
19.8999996222556 920
19.9199996218085 987
19.9399996213615 960
19.9599996209145 1020
19.9799996204674 945
19.9999996200204 1005
