3 2913
3.01999999955297 2611
3.03999999910593 2550
3.0599999986589 2509
3.07999999821186 2363
3.09999999776483 2375
3.11999999731779 2318
3.13999999687076 2180
3.15999999642372 2215
3.17999999597669 2204
3.19999999552965 2174
3.21999999508262 2137
3.23999999463558 2185
3.25999999418855 2073
3.27999999374151 2121
3.29999999329448 2160
3.31999999284744 2018
3.33999999240041 2018
3.35999999195337 1969
3.37999999150634 2065
3.3999999910593 2011
3.41999999061227 1966
3.43999999016523 1935
3.4599999897182 1925
3.47999998927116 1939
3.49999998882413 1884
3.51999998837709 1821
3.53999998793006 1791
3.55999998748302 1840
3.57999998703599 1809
3.59999998658895 1731
3.61999998614192 1753
3.63999998569489 1765
3.65999998524785 1758
3.67999998480082 1682
3.69999998435378 1629
3.71999998390675 1699
3.73999998345971 1620
3.75999998301268 1644
3.77999998256564 1570
3.79999998211861 1676
3.81999998167157 1568
3.83999998122454 1581
3.8599999807775 1596
3.87999998033047 1495
3.89999997988343 1453
3.9199999794364 1445
3.93999997898936 1461
3.95999997854233 1440
3.97999997809529 1450
3.99999997764826 1448
4.01999997720122 1405
4.03999997675419 1419
4.05999997630715 1365
4.07999997586012 1355
4.09999997541308 1313
4.11999997496605 1293
4.13999997451901 1271
4.15999997407198 1265
4.17999997362494 1289
4.19999997317791 1292
4.21999997273087 1226
4.23999997228384 1223
4.25999997183681 1177
4.27999997138977 1165
4.29999997094274 1196
4.3199999704957 1096
4.33999997004867 1136
4.35999996960163 1141
4.3799999691546 1148
4.39999996870756 1112
4.41999996826053 1061
4.43999996781349 1083
4.45999996736646 1073
4.47999996691942 1062
4.49999996647239 1037
4.51999996602535 1017
4.53999996557832 1072
4.55999996513128 1011
4.57999996468425 954
4.59999996423721 1013
4.61999996379018 980
4.63999996334314 956
4.65999996289611 951
4.67999996244907 910
4.69999996200204 954
4.719999961555 908
4.73999996110797 897
4.75999996066093 831
4.7799999602139 870
4.79999995976686 918
4.81999995931983 876
4.83999995887279 862
4.85999995842576 837
4.87999995797873 820
4.89999995753169 861
4.91999995708466 838
4.93999995663762 859
4.95999995619059 799
4.97999995574355 796
4.99999995529652 816
5.01999995484948 774
5.03999995440245 774
5.05999995395541 754
5.07999995350838 780
5.09999995306134 744
5.11999995261431 733
5.13999995216727 727
5.15999995172024 756
5.1799999512732 781
5.19999995082617 733
5.21999995037913 699
5.2399999499321 741
5.25999994948506 724
5.27999994903803 710
5.29999994859099 711
5.31999994814396 753
5.33999994769692 731
5.35999994724989 754
5.37999994680285 694
5.39999994635582 695
5.41999994590878 686
5.43999994546175 668
5.45999994501471 704
5.47999994456768 677
5.49999994412065 652
5.51999994367361 650
5.53999994322658 668
5.55999994277954 683
5.57999994233251 679
5.59999994188547 663
5.61999994143844 673
5.6399999409914 630
5.65999994054437 693
5.67999994009733 678
5.6999999396503 656
5.71999993920326 669
5.73999993875623 657
5.75999993830919 656
5.77999993786216 637
5.79999993741512 624
5.81999993696809 618
5.83999993652105 616
5.85999993607402 619
5.87999993562698 622
5.89999993517995 683
5.91999993473291 636
5.93999993428588 616
5.95999993383884 645
5.97999993339181 614
5.99999993294477 584
6.01999993249774 609
6.0399999320507 605
6.05999993160367 572
6.07999993115663 642
6.0999999307096 640
6.11999993026257 598
6.13999992981553 613
6.1599999293685 594
6.17999992892146 610
6.19999992847443 624
6.21999992802739 601
6.23999992758036 603
6.25999992713332 611
6.27999992668629 591
6.29999992623925 647
6.31999992579222 614
6.33999992534518 584
6.35999992489815 606
6.37999992445111 611
6.39999992400408 578
6.41999992355704 601
6.43999992311001 583
6.45999992266297 612
6.47999992221594 680
6.4999999217689 620
6.51999992132187 636
6.53999992087483 564
6.5599999204278 552
6.57999991998076 634
6.59999991953373 603
6.61999991908669 583
6.63999991863966 639
6.65999991819262 606
6.67999991774559 571
6.69999991729855 594
6.71999991685152 569
6.73999991640449 523
6.75999991595745 574
6.77999991551042 597
6.79999991506338 550
6.81999991461635 579
6.83999991416931 589
6.85999991372228 579
6.87999991327524 582
6.89999991282821 573
6.91999991238117 604
6.93999991193414 568
6.9599999114871 571
6.97999991104007 560
6.99999991059303 595
7.019999910146 552
7.03999990969896 523
7.05999990925193 571
7.07999990880489 601
7.09999990835786 575
7.11999990791082 584
7.13999990746379 560
7.15999990701675 546
7.17999990656972 537
7.19999990612268 584
7.21999990567565 568
7.23999990522861 576
7.25999990478158 551
7.27999990433454 584
7.29999990388751 549
7.31999990344047 581
7.33999990299344 577
7.35999990254641 564
7.37999990209937 491
7.39999990165234 590
7.4199999012053 577
7.43999990075827 551
7.45999990031123 580
7.4799998998642 559
7.49999989941716 542
7.51999989897013 523
7.53999989852309 541
7.55999989807606 557
7.57999989762902 585
7.59999989718199 559
7.61999989673495 565
7.63999989628792 531
7.65999989584088 599
7.67999989539385 571
7.69999989494681 577
7.71999989449978 564
7.73999989405274 555
7.75999989360571 530
7.77999989315867 534
7.79999989271164 534
7.8199998922646 507
7.83999989181757 506
7.85999989137053 559
7.8799998909235 562
7.89999989047646 594
7.91999989002943 488
7.9399998895824 503
7.95999988913536 555
7.97999988868833 509
7.99999988824129 564
8.01999988779426 512
8.03999988734722 471
8.05999988690019 537
8.07999988645315 556
8.09999988600612 542
8.11999988555908 545
8.13999988511205 497
8.15999988466501 533
8.17999988421798 561
8.19999988377094 544
8.21999988332391 518
8.23999988287687 495
8.25999988242984 519
8.2799998819828 521
8.29999988153577 523
8.31999988108873 535
8.3399998806417 527
8.35999988019466 508
8.37999987974763 497
8.39999987930059 507
8.41999987885356 552
8.43999987840652 528
8.45999987795949 506
8.47999987751245 504
8.49999987706542 525
8.51999987661839 537
8.53999987617135 559
8.55999987572432 519
8.57999987527728 524
8.59999987483025 555
8.61999987438321 556
8.63999987393618 606
8.65999987348914 596
8.67999987304211 554
8.69999987259507 585
8.71999987214804 631
8.739999871701 670
8.75999987125397 717
8.77999987080693 693
8.7999998703599 676
8.81999986991286 741
8.83999986946583 734
8.85999986901879 790
8.87999986857176 870
8.89999986812472 1006
8.91999986767769 1103
8.93999986723065 1318
8.95999986678362 1552
8.97999986633658 1570
8.99999986588955 1412
9.01999986544251 1190
9.03999986499548 1148
9.05999986454844 1047
9.07999986410141 931
9.09999986365438 885
9.11999986320734 804
9.13999986276031 682
9.15999986231327 624
9.17999986186624 554
9.1999998614192 483
9.21999986097217 445
9.23999986052513 499
9.2599998600781 475
9.27999985963106 463
9.29999985918403 495
9.31999985873699 490
9.33999985828996 517
9.35999985784292 492
9.37999985739589 483
9.39999985694885 488
9.41999985650182 492
9.43999985605478 469
9.45999985560775 479
9.47999985516071 474
9.49999985471368 506
9.51999985426664 517
9.53999985381961 494
9.55999985337257 473
9.57999985292554 507
9.5999998524785 503
9.61999985203147 485
9.63999985158443 509
9.6599998511374 491
9.67999985069037 475
9.69999985024333 495
9.7199998497963 518
9.73999984934926 504
9.75999984890223 523
9.77999984845519 572
9.79999984800816 513
9.81999984756112 540
9.83999984711409 570
9.85999984666705 603
9.87999984622002 600
9.89999984577298 683
9.91999984532595 651
9.93999984487891 635
9.95999984443188 606
9.97999984398484 652
9.99999984353781 585
10.0199998430908 559
10.0399998426437 540
10.0599998421967 577
10.0799998417497 501
10.0999998413026 498
10.1199998408556 488
10.1399998404086 488
10.1599998399615 478
10.1799998395145 464
10.1999998390675 460
10.2199998386204 446
10.2399998381734 459
10.2599998377264 475
10.2799998372793 455
10.2999998368323 430
10.3199998363853 476
10.3399998359382 454
10.3599998354912 478
10.3799998350441 440
10.3999998345971 461
10.4199998341501 437
10.439999833703 463
10.459999833256 463
10.479999832809 436
10.4999998323619 436
10.5199998319149 465
10.5399998314679 497
10.5599998310208 463
10.5799998305738 464
10.5999998301268 429
10.6199998296797 429
10.6399998292327 433
10.6599998287857 449
10.6799998283386 456
10.6999998278916 444
10.7199998274446 461
10.7399998269975 452
10.7599998265505 444
10.7799998261034 441
10.7999998256564 476
10.8199998252094 435
10.8399998247623 458
10.8599998243153 474
10.8799998238683 434
10.8999998234212 443
10.9199998229742 463
10.9399998225272 463
10.9599998220801 489
10.9799998216331 414
10.9999998211861 434
11.019999820739 453
11.039999820292 444
11.059999819845 431
11.0799998193979 460
11.0999998189509 441
11.1199998185039 423
11.1399998180568 434
11.1599998176098 422
11.1799998171628 456
11.1999998167157 445
11.2199998162687 470
11.2399998158216 433
11.2599998153746 480
11.2799998149276 448
11.2999998144805 432
11.3199998140335 434
11.3399998135865 454
11.3599998131394 435
11.3799998126924 462
11.3999998122454 480
11.4199998117983 425
11.4399998113513 455
11.4599998109043 458
11.4799998104572 464
11.4999998100102 414
11.5199998095632 473
11.5399998091161 461
11.5599998086691 438
11.5799998082221 472
11.599999807775 444
11.619999807328 396
11.639999806881 429
11.6599998064339 442
11.6799998059869 435
11.6999998055398 429
11.7199998050928 459
11.7399998046458 455
11.7599998041987 428
11.7799998037517 464
11.7999998033047 423
11.8199998028576 444
11.8399998024106 440
11.8599998019636 483
11.8799998015165 429
11.8999998010695 420
11.9199998006225 441
11.9399998001754 451
11.9599997997284 431
11.9799997992814 442
11.9999997988343 453
12.0199997983873 408
12.0399997979403 445
12.0599997974932 434
12.0799997970462 431
12.0999997965992 417
12.1199997961521 459
12.1399997957051 428
12.159999795258 465
12.179999794811 425
12.199999794364 439
12.2199997939169 447
12.2399997934699 445
12.2599997930229 448
12.2799997925758 457
12.2999997921288 470
12.3199997916818 485
12.3399997912347 443
12.3599997907877 435
12.3799997903407 437
12.3999997898936 489
12.4199997894466 450
12.4399997889996 443
12.4599997885525 481
12.4799997881055 467
12.4999997876585 475
12.5199997872114 480
12.5399997867644 472
12.5599997863173 465
12.5799997858703 497
12.5999997854233 550
12.6199997849762 468
12.6399997845292 497
12.6599997840822 538
12.6799997836351 562
12.6999997831881 579
12.7199997827411 532
12.739999782294 514
12.759999781847 543
12.7799997814 510
12.7999997809529 447
12.8199997805059 486
12.8399997800589 472
12.8599997796118 487
12.8799997791648 500
12.8999997787178 471
12.9199997782707 459
12.9399997778237 443
12.9599997773767 430
12.9799997769296 427
12.9999997764826 484
13.0199997760355 446
13.0399997755885 475
13.0599997751415 455
13.0799997746944 469
13.0999997742474 482
13.1199997738004 472
13.1399997733533 469
13.1599997729063 509
13.1799997724593 491
13.1999997720122 452
13.2199997715652 466
13.2399997711182 502
13.2599997706711 509
13.2799997702241 555
13.2999997697771 529
13.31999976933 524
13.339999768883 527
13.359999768436 601
13.3799997679889 540
13.3999997675419 588
13.4199997670949 545
13.4399997666478 537
13.4599997662008 549
13.4799997657537 497
13.4999997653067 528
13.5199997648597 492
13.5399997644126 472
13.5599997639656 459
13.5799997635186 472
13.5999997630715 444
13.6199997626245 478
13.6399997621775 472
13.6599997617304 448
13.6799997612834 510
13.6999997608364 460
13.7199997603893 473
13.7399997599423 464
13.7599997594953 447
13.7799997590482 491
13.7999997586012 451
13.8199997581542 466
13.8399997577071 458
13.8599997572601 440
13.879999756813 452
13.899999756366 488
13.919999755919 471
13.9399997554719 465
13.9599997550249 468
13.9799997545779 488
13.9999997541308 493
14.0199997536838 428
14.0399997532368 476
14.0599997527897 438
14.0799997523427 437
14.0999997518957 472
14.1199997514486 485
14.1399997510016 508
14.1599997505546 479
14.1799997501075 514
14.1999997496605 500
14.2199997492135 504
14.2399997487664 502
14.2599997483194 505
14.2799997478724 458
14.2999997474253 475
14.3199997469783 455
14.3399997465312 472
14.3599997460842 495
14.3799997456372 501
14.3999997451901 458
14.4199997447431 498
14.4399997442961 474
14.459999743849 458
14.479999743402 474
14.499999742955 477
14.5199997425079 467
14.5399997420609 486
14.5599997416139 485
14.5799997411668 471
14.5999997407198 472
14.6199997402728 472
14.6399997398257 454
14.6599997393787 495
14.6799997389317 518
14.6999997384846 458
14.7199997380376 467
14.7399997375906 529
14.7599997371435 506
14.7799997366965 487
14.7999997362494 457
14.8199997358024 472
14.8399997353554 515
14.8599997349083 522
14.8799997344613 514
14.8999997340143 489
14.9199997335672 492
14.9399997331202 521
14.9599997326732 499
14.9799997322261 527
14.9999997317791 534
15.0199997313321 498
15.039999730885 507
15.059999730438 512
15.079999729991 467
15.0999997295439 520
15.1199997290969 472
15.1399997286499 525
15.1599997282028 541
15.1799997277558 491
15.1999997273088 533
15.2199997268617 492
15.2399997264147 542
15.2599997259676 527
15.2799997255206 531
15.2999997250736 523
15.3199997246265 509
15.3399997241795 529
15.3599997237325 547
15.3799997232854 496
15.3999997228384 505
15.4199997223914 514
15.4399997219443 509
15.4599997214973 571
15.4799997210503 533
15.4999997206032 556
15.5199997201562 566
15.5399997197092 518
15.5599997192621 506
15.5799997188151 505
15.5999997183681 521
15.619999717921 535
15.639999717474 544
15.659999717027 511
15.6799997165799 537
15.6999997161329 483
15.7199997156858 498
15.7399997152388 546
15.7599997147918 533
15.7799997143447 541
15.7999997138977 536
15.8199997134507 513
15.8399997130036 512
15.8599997125566 532
15.8799997121096 540
15.8999997116625 516
15.9199997112155 504
15.9399997107685 538
15.9599997103214 575
15.9799997098744 546
15.9999997094274 537
16.0199997089803 552
16.0399997085333 523
16.0599997080863 548
16.0799997076392 543
16.0999997071922 508
16.1199997067451 530
16.1399997062981 543
16.1599997058511 514
16.179999705404 519
16.199999704957 542
16.21999970451 573
16.2399997040629 565
16.2599997036159 523
16.2799997031689 544
16.2999997027218 537
16.3199997022748 595
16.3399997018278 591
16.3599997013807 557
16.3799997009337 574
16.3999997004867 584
16.4199997000396 582
16.4399996995926 591
16.4599996991456 617
16.4799996986985 579
16.4999996982515 587
16.5199996978045 576
16.5399996973574 625
16.5599996969104 631
16.5799996964633 625
16.5999996960163 641
16.6199996955693 593
16.6399996951222 629
16.6599996946752 636
16.6799996942282 633
16.6999996937811 664
16.7199996933341 644
16.7399996928871 741
16.75999969244 773
16.779999691993 747
16.799999691546 881
16.8199996910989 841
16.8399996906519 955
16.8599996902049 1040
16.8799996897578 1189
16.8999996893108 1371
16.9199996888638 1487
16.9399996884167 1713
16.9599996879697 1694
16.9799996875226 1689
16.9999996870756 1519
17.0199996866286 1331
17.0399996861815 1074
17.0599996857345 1013
17.0799996852875 863
17.0999996848404 814
17.1199996843934 778
17.1399996839464 753
17.1599996834993 691
17.1799996830523 664
17.1999996826053 681
17.2199996821582 655
17.2399996817112 605
17.2599996812642 689
17.2799996808171 651
17.2999996803701 676
17.3199996799231 664
17.339999679476 645
17.359999679029 668
17.379999678582 636
17.3999996781349 622
17.4199996776879 640
17.4399996772408 680
17.4599996767938 647
17.4799996763468 608
17.4999996758997 645
17.5199996754527 670
17.5399996750057 644
17.5599996745586 652
17.5799996741116 650
17.5999996736646 632
17.6199996732175 674
17.6399996727705 649
17.6599996723235 657
17.6799996718764 672
17.6999996714294 686
17.7199996709824 637
17.7399996705353 671
17.7599996700883 673
17.7799996696413 688
17.7999996691942 659
17.8199996687472 702
17.8399996683002 689
17.8599996678531 719
17.8799996674061 694
17.899999666959 702
17.919999666512 744
17.939999666065 719
17.9599996656179 677
17.9799996651709 725
17.9999996647239 749
18.0199996642768 763
18.0399996638298 701
18.0599996633828 760
18.0799996629357 726
18.0999996624887 707
18.1199996620417 731
18.1399996615946 728
18.1599996611476 697
18.1799996607006 693
18.1999996602535 672
18.2199996598065 703
18.2399996593595 741
18.2599996589124 742
18.2799996584654 745
18.2999996580184 729
18.3199996575713 697
18.3399996571243 725
18.3599996566772 723
18.3799996562302 757
18.3999996557832 706
18.4199996553361 706
18.4399996548891 725
18.4599996544421 748
18.479999653995 772
18.499999653548 762
18.519999653101 838
18.5399996526539 746
18.5599996522069 764
18.5799996517599 759
18.5999996513128 796
18.6199996508658 775
18.6399996504188 802
18.6599996499717 786
18.6799996495247 727
18.6999996490777 783
18.7199996486306 759
18.7399996481836 777
18.7599996477366 742
18.7799996472895 733
18.7999996468425 783
18.8199996463954 776
18.8399996459484 742
18.8599996455014 802
18.8799996450543 771
18.8999996446073 807
18.9199996441603 804
18.9399996437132 786
18.9599996432662 762
18.9799996428192 771
18.9999996423721 757
19.0199996419251 749
19.0399996414781 774
19.059999641031 792
19.079999640584 794
19.099999640137 798
19.1199996396899 771
19.1399996392429 758
19.1599996387959 805
19.1799996383488 735
19.1999996379018 777
19.2199996374547 769
19.2399996370077 824
19.2599996365607 779
19.2799996361136 751
19.2999996356666 775
19.3199996352196 720
19.3399996347725 774
19.3599996343255 803
19.3799996338785 738
19.3999996334314 789
19.4199996329844 824
19.4399996325374 791
19.4599996320903 764
19.4799996316433 825
19.4999996311963 806
19.5199996307492 847
19.5399996303022 803
19.5599996298552 807
19.5799996294081 804
19.5999996289611 798
19.6199996285141 799
19.639999628067 854
19.65999962762 896
19.6799996271729 827
19.6999996267259 812
19.7199996262789 836
19.7399996258318 838
19.7599996253848 809
19.7799996249378 846
19.7999996244907 875
19.8199996240437 912
19.8399996235967 868
19.8599996231496 890
19.8799996227026 913
19.8999996222556 944
19.9199996218085 904
19.9399996213615 868
19.9599996209145 917
19.9799996204674 865
19.9999996200204 885
