3 2492
3.01999999955297 2284
3.03999999910593 2158
3.0599999986589 2009
3.07999999821186 1930
3.09999999776483 1857
3.11999999731779 1802
3.13999999687076 1846
3.15999999642372 1757
3.17999999597669 1704
3.19999999552965 1719
3.21999999508262 1737
3.23999999463558 1707
3.25999999418855 1612
3.27999999374151 1655
3.29999999329448 1604
3.31999999284744 1549
3.33999999240041 1542
3.35999999195337 1575
3.37999999150634 1488
3.3999999910593 1572
3.41999999061227 1569
3.43999999016523 1536
3.4599999897182 1504
3.47999998927116 1475
3.49999998882413 1460
3.51999998837709 1467
3.53999998793006 1475
3.55999998748302 1406
3.57999998703599 1439
3.59999998658895 1443
3.61999998614192 1473
3.63999998569489 1344
3.65999998524785 1409
3.67999998480082 1349
3.69999998435378 1409
3.71999998390675 1310
3.73999998345971 1355
3.75999998301268 1373
3.77999998256564 1342
3.79999998211861 1360
3.81999998167157 1334
3.83999998122454 1287
3.8599999807775 1292
3.87999998033047 1314
3.89999997988343 1267
3.9199999794364 1280
3.93999997898936 1256
3.95999997854233 1298
3.97999997809529 1312
3.99999997764826 1238
4.01999997720122 1277
4.03999997675419 1171
4.05999997630715 1208
4.07999997586012 1191
4.09999997541308 1200
4.11999997496605 1175
4.13999997451901 1177
4.15999997407198 1259
4.17999997362494 1269
4.19999997317791 1168
4.21999997273087 1232
4.23999997228384 1189
4.25999997183681 1241
4.27999997138977 1182
4.29999997094274 1189
4.3199999704957 1173
4.33999997004867 1126
4.35999996960163 1124
4.3799999691546 1128
4.39999996870756 1131
4.41999996826053 1147
4.43999996781349 1144
4.45999996736646 1129
4.47999996691942 1138
4.49999996647239 1166
4.51999996602535 1104
4.53999996557832 1096
4.55999996513128 1105
4.57999996468425 1113
4.59999996423721 1066
4.61999996379018 1062
4.63999996334314 1099
4.65999996289611 1135
4.67999996244907 1151
4.69999996200204 1008
4.719999961555 1017
4.73999996110797 1026
4.75999996066093 1053
4.7799999602139 1019
4.79999995976686 1074
4.81999995931983 1072
4.83999995887279 1076
4.85999995842576 1096
4.87999995797873 1107
4.89999995753169 1038
4.91999995708466 1004
4.93999995663762 1123
4.95999995619059 1060
4.97999995574355 1051
4.99999995529652 1022
5.01999995484948 1027
5.03999995440245 1117
5.05999995395541 1037
5.07999995350838 1056
5.09999995306134 1077
5.11999995261431 1058
5.13999995216727 1055
5.15999995172024 1055
5.1799999512732 1073
5.19999995082617 1127
5.21999995037913 1156
5.2399999499321 1082
5.25999994948506 1138
5.27999994903803 1118
5.29999994859099 1178
5.31999994814396 1175
5.33999994769692 1190
5.35999994724989 1186
5.37999994680285 1174
5.39999994635582 1202
5.41999994590878 1279
5.43999994546175 1222
5.45999994501471 1172
5.47999994456768 1167
5.49999994412065 1143
5.51999994367361 1052
5.53999994322658 1062
5.55999994277954 1031
5.57999994233251 1027
5.59999994188547 956
5.61999994143844 985
5.6399999409914 991
5.65999994054437 963
5.67999994009733 979
5.6999999396503 942
5.71999993920326 923
5.73999993875623 926
5.75999993830919 982
5.77999993786216 895
5.79999993741512 927
5.81999993696809 873
5.83999993652105 917
5.85999993607402 909
5.87999993562698 887
5.89999993517995 885
5.91999993473291 894
5.93999993428588 894
5.95999993383884 851
5.97999993339181 840
5.99999993294477 822
6.01999993249774 835
6.0399999320507 827
6.05999993160367 854
6.07999993115663 806
6.0999999307096 836
6.11999993026257 877
6.13999992981553 855
6.1599999293685 807
6.17999992892146 836
6.19999992847443 788
6.21999992802739 788
6.23999992758036 826
6.25999992713332 811
6.27999992668629 818
6.29999992623925 774
6.31999992579222 824
6.33999992534518 797
6.35999992489815 778
6.37999992445111 835
6.39999992400408 781
6.41999992355704 769
6.43999992311001 775
6.45999992266297 815
6.47999992221594 764
6.4999999217689 732
6.51999992132187 689
6.53999992087483 738
6.5599999204278 755
6.57999991998076 774
6.59999991953373 723
6.61999991908669 771
6.63999991863966 775
6.65999991819262 679
6.67999991774559 714
6.69999991729855 712
6.71999991685152 718
6.73999991640449 747
6.75999991595745 723
6.77999991551042 759
6.79999991506338 728
6.81999991461635 725
6.83999991416931 712
6.85999991372228 708
6.87999991327524 738
6.89999991282821 725
6.91999991238117 693
6.93999991193414 719
6.9599999114871 724
6.97999991104007 687
6.99999991059303 706
7.019999910146 673
7.03999990969896 712
7.05999990925193 706
7.07999990880489 696
7.09999990835786 707
7.11999990791082 619
7.13999990746379 695
7.15999990701675 673
7.17999990656972 721
7.19999990612268 688
7.21999990567565 674
7.23999990522861 638
7.25999990478158 683
7.27999990433454 672
7.29999990388751 711
7.31999990344047 701
7.33999990299344 699
7.35999990254641 662
7.37999990209937 688
7.39999990165234 640
7.4199999012053 662
7.43999990075827 654
7.45999990031123 721
7.4799998998642 642
7.49999989941716 690
7.51999989897013 691
7.53999989852309 693
7.55999989807606 737
7.57999989762902 650
7.59999989718199 683
7.61999989673495 652
7.63999989628792 677
7.65999989584088 647
7.67999989539385 677
7.69999989494681 609
7.71999989449978 648
7.73999989405274 657
7.75999989360571 690
7.77999989315867 663
7.79999989271164 623
7.8199998922646 624
7.83999989181757 610
7.85999989137053 663
7.8799998909235 665
7.89999989047646 658
7.91999989002943 632
7.9399998895824 653
7.95999988913536 594
7.97999988868833 617
7.99999988824129 685
8.01999988779426 670
8.03999988734722 640
8.05999988690019 648
8.07999988645315 644
8.09999988600612 654
8.11999988555908 642
8.13999988511205 593
8.15999988466501 622
8.17999988421798 632
8.19999988377094 655
8.21999988332391 639
8.23999988287687 673
8.25999988242984 625
8.2799998819828 642
8.29999988153577 600
8.31999988108873 677
8.3399998806417 583
8.35999988019466 614
8.37999987974763 661
8.39999987930059 610
8.41999987885356 627
8.43999987840652 615
8.45999987795949 612
8.47999987751245 638
8.49999987706542 643
8.51999987661839 599
8.53999987617135 651
8.55999987572432 632
8.57999987527728 637
8.59999987483025 650
8.61999987438321 630
8.63999987393618 628
8.65999987348914 643
8.67999987304211 618
8.69999987259507 610
8.71999987214804 553
8.739999871701 665
8.75999987125397 607
8.77999987080693 602
8.7999998703599 596
8.81999986991286 638
8.83999986946583 646
8.85999986901879 625
8.87999986857176 659
8.89999986812472 568
8.91999986767769 644
8.93999986723065 626
8.95999986678362 585
8.97999986633658 593
8.99999986588955 615
9.01999986544251 588
9.03999986499548 611
9.05999986454844 639
9.07999986410141 648
9.09999986365438 621
9.11999986320734 641
9.13999986276031 673
9.15999986231327 673
9.17999986186624 646
9.1999998614192 661
9.21999986097217 648
9.23999986052513 675
9.2599998600781 688
9.27999985963106 696
9.29999985918403 727
9.31999985873699 709
9.33999985828996 740
9.35999985784292 738
9.37999985739589 702
9.39999985694885 803
9.41999985650182 696
9.43999985605478 738
9.45999985560775 709
9.47999985516071 711
9.49999985471368 665
9.51999985426664 678
9.53999985381961 653
9.55999985337257 650
9.57999985292554 655
9.5999998524785 660
9.61999985203147 646
9.63999985158443 597
9.6599998511374 621
9.67999985069037 638
9.69999985024333 637
9.7199998497963 668
9.73999984934926 628
9.75999984890223 639
9.77999984845519 610
9.79999984800816 648
9.81999984756112 609
9.83999984711409 629
9.85999984666705 604
9.87999984622002 630
9.89999984577298 607
9.91999984532595 619
9.93999984487891 598
9.95999984443188 615
9.97999984398484 606
9.99999984353781 582
10.0199998430908 602
10.0399998426437 595
10.0599998421967 578
10.0799998417497 623
10.0999998413026 603
10.1199998408556 608
10.1399998404086 604
10.1599998399615 610
10.1799998395145 548
10.1999998390675 578
10.2199998386204 620
10.2399998381734 605
10.2599998377264 590
10.2799998372793 601
10.2999998368323 604
10.3199998363853 575
10.3399998359382 597
10.3599998354912 600
10.3799998350441 574
10.3999998345971 588
10.4199998341501 596
10.439999833703 600
10.459999833256 603
10.479999832809 612
10.4999998323619 584
10.5199998319149 598
10.5399998314679 591
10.5599998310208 573
10.5799998305738 569
10.5999998301268 617
10.6199998296797 596
10.6399998292327 604
10.6599998287857 604
10.6799998283386 589
10.6999998278916 623
10.7199998274446 598
10.7399998269975 547
10.7599998265505 598
10.7799998261034 633
10.7999998256564 610
10.8199998252094 608
10.8399998247623 622
10.8599998243153 629
10.8799998238683 598
10.8999998234212 606
10.9199998229742 546
10.9399998225272 598
10.9599998220801 608
10.9799998216331 568
10.9999998211861 548
11.019999820739 574
11.039999820292 572
11.059999819845 576
11.0799998193979 584
11.0999998189509 621
11.1199998185039 610
11.1399998180568 595
11.1599998176098 595
11.1799998171628 573
11.1999998167157 598
11.2199998162687 582
11.2399998158216 592
11.2599998153746 583
11.2799998149276 596
11.2999998144805 568
11.3199998140335 552
11.3399998135865 552
11.3599998131394 591
11.3799998126924 570
11.3999998122454 567
11.4199998117983 604
11.4399998113513 576
11.4599998109043 574
11.4799998104572 554
11.4999998100102 550
11.5199998095632 570
11.5399998091161 542
11.5599998086691 600
11.5799998082221 599
11.599999807775 586
11.619999807328 616
11.639999806881 587
11.6599998064339 575
11.6799998059869 615
11.6999998055398 587
11.7199998050928 551
11.7399998046458 578
11.7599998041987 612
11.7799998037517 592
11.7999998033047 557
11.8199998028576 634
11.8399998024106 550
11.8599998019636 580
11.8799998015165 612
11.8999998010695 599
11.9199998006225 609
11.9399998001754 538
11.9599997997284 607
11.9799997992814 622
11.9999997988343 580
12.0199997983873 554
12.0399997979403 545
12.0599997974932 582
12.0799997970462 594
12.0999997965992 575
12.1199997961521 578
12.1399997957051 569
12.159999795258 590
12.179999794811 534
12.199999794364 616
12.2199997939169 584
12.2399997934699 574
12.2599997930229 527
12.2799997925758 599
12.2999997921288 662
12.3199997916818 595
12.3399997912347 557
12.3599997907877 574
12.3799997903407 579
12.3999997898936 601
12.4199997894466 601
12.4399997889996 579
12.4599997885525 558
12.4799997881055 589
12.4999997876585 616
12.5199997872114 573
12.5399997867644 631
12.5599997863173 581
12.5799997858703 605
12.5999997854233 589
12.6199997849762 593
12.6399997845292 589
12.6599997840822 612
12.6799997836351 591
12.6999997831881 583
12.7199997827411 585
12.739999782294 608
12.759999781847 590
12.7799997814 586
12.7999997809529 560
12.8199997805059 644
12.8399997800589 554
12.8599997796118 573
12.8799997791648 586
12.8999997787178 620
12.9199997782707 588
12.9399997778237 572
12.9599997773767 602
12.9799997769296 620
12.9999997764826 593
13.0199997760355 594
13.0399997755885 622
13.0599997751415 624
13.0799997746944 627
13.0999997742474 618
13.1199997738004 602
13.1399997733533 600
13.1599997729063 607
13.1799997724593 619
13.1999997720122 592
13.2199997715652 605
13.2399997711182 614
13.2599997706711 612
13.2799997702241 640
13.2999997697771 593
13.31999976933 595
13.339999768883 615
13.359999768436 603
13.3799997679889 613
13.3999997675419 617
13.4199997670949 618
13.4399997666478 644
13.4599997662008 645
13.4799997657537 591
13.4999997653067 662
13.5199997648597 601
13.5399997644126 590
13.5599997639656 646
13.5799997635186 612
13.5999997630715 572
13.6199997626245 589
13.6399997621775 656
13.6599997617304 617
13.6799997612834 636
13.6999997608364 686
13.7199997603893 632
13.7399997599423 642
13.7599997594953 581
13.7799997590482 634
13.7999997586012 630
13.8199997581542 643
13.8399997577071 629
13.8599997572601 618
13.879999756813 668
13.899999756366 611
13.919999755919 635
13.9399997554719 630
13.9599997550249 667
13.9799997545779 688
13.9999997541308 624
14.0199997536838 671
14.0399997532368 639
14.0599997527897 682
14.0799997523427 608
14.0999997518957 678
14.1199997514486 639
14.1399997510016 693
14.1599997505546 621
14.1799997501075 600
14.1999997496605 662
14.2199997492135 674
14.2399997487664 636
14.2599997483194 634
14.2799997478724 637
14.2999997474253 681
14.3199997469783 670
14.3399997465312 700
14.3599997460842 690
14.3799997456372 674
14.3999997451901 688
14.4199997447431 627
14.4399997442961 709
14.459999743849 654
14.479999743402 629
14.499999742955 639
14.5199997425079 675
14.5399997420609 644
14.5599997416139 694
14.5799997411668 678
14.5999997407198 642
14.6199997402728 714
14.6399997398257 656
14.6599997393787 666
14.6799997389317 670
14.6999997384846 646
14.7199997380376 633
14.7399997375906 665
14.7599997371435 727
14.7799997366965 669
14.7999997362494 697
14.8199997358024 688
14.8399997353554 705
14.8599997349083 705
14.8799997344613 698
14.8999997340143 684
14.9199997335672 668
14.9399997331202 728
14.9599997326732 676
14.9799997322261 655
14.9999997317791 663
15.0199997313321 676
15.039999730885 682
15.059999730438 697
15.079999729991 671
15.0999997295439 664
15.1199997290969 725
15.1399997286499 698
15.1599997282028 683
15.1799997277558 739
15.1999997273088 703
15.2199997268617 706
15.2399997264147 684
15.2599997259676 734
15.2799997255206 700
15.2999997250736 689
15.3199997246265 743
15.3399997241795 684
15.3599997237325 717
15.3799997232854 706
15.3999997228384 710
15.4199997223914 693
15.4399997219443 707
15.4599997214973 685
15.4799997210503 688
15.4999997206032 693
15.5199997201562 741
15.5399997197092 786
15.5599997192621 691
15.5799997188151 679
15.5999997183681 735
15.619999717921 752
15.639999717474 710
15.659999717027 706
15.6799997165799 721
15.6999997161329 725
15.7199997156858 719
15.7399997152388 737
15.7599997147918 742
15.7799997143447 769
15.7999997138977 741
15.8199997134507 767
15.8399997130036 712
15.8599997125566 760
15.8799997121096 750
15.8999997116625 718
15.9199997112155 788
15.9399997107685 805
15.9599997103214 749
15.9799997098744 777
15.9999997094274 735
16.0199997089803 722
16.0399997085333 729
16.0599997080863 747
16.0799997076392 744
16.0999997071922 741
16.1199997067451 760
16.1399997062981 714
16.1599997058511 775
16.179999705404 780
16.199999704957 780
16.21999970451 783
16.2399997040629 783
16.2599997036159 771
16.2799997031689 821
16.2999997027218 762
16.3199997022748 761
16.3399997018278 800
16.3599997013807 777
16.3799997009337 767
16.3999997004867 756
16.4199997000396 787
16.4399996995926 747
16.4599996991456 816
16.4799996986985 809
16.4999996982515 779
16.5199996978045 798
16.5399996973574 771
16.5599996969104 807
16.5799996964633 822
16.5999996960163 812
16.6199996955693 838
16.6399996951222 830
16.6599996946752 827
16.6799996942282 814
16.6999996937811 838
16.7199996933341 825
16.7399996928871 875
16.75999969244 855
16.779999691993 870
16.799999691546 908
16.8199996910989 873
16.8399996906519 932
16.8599996902049 975
16.8799996897578 1013
16.8999996893108 1103
16.9199996888638 1145
16.9399996884167 1218
16.9599996879697 1297
16.9799996875226 1405
16.9999996870756 1333
17.0199996866286 1163
17.0399996861815 1032
17.0599996857345 958
17.0799996852875 941
17.0999996848404 891
17.1199996843934 898
17.1399996839464 886
17.1599996834993 871
17.1799996830523 886
17.1999996826053 905
17.2199996821582 939
17.2399996817112 845
17.2599996812642 878
17.2799996808171 884
17.2999996803701 917
17.3199996799231 877
17.339999679476 911
17.359999679029 876
17.379999678582 819
17.3999996781349 922
17.4199996776879 904
17.4399996772408 899
17.4599996767938 916
17.4799996763468 944
17.4999996758997 891
17.5199996754527 872
17.5399996750057 877
17.5599996745586 931
17.5799996741116 874
17.5999996736646 947
17.6199996732175 924
17.6399996727705 927
17.6599996723235 868
17.6799996718764 926
17.6999996714294 922
17.7199996709824 964
17.7399996705353 938
17.7599996700883 924
17.7799996696413 936
17.7999996691942 946
17.8199996687472 912
17.8399996683002 903
17.8599996678531 932
17.8799996674061 998
17.899999666959 931
17.919999666512 939
17.939999666065 946
17.9599996656179 964
17.9799996651709 971
17.9999996647239 924
18.0199996642768 974
18.0399996638298 937
18.0599996633828 953
18.0799996629357 931
18.0999996624887 911
18.1199996620417 969
18.1399996615946 973
18.1599996611476 978
18.1799996607006 984
18.1999996602535 984
18.2199996598065 1046
18.2399996593595 986
18.2599996589124 918
18.2799996584654 988
18.2999996580184 1031
18.3199996575713 1017
18.3399996571243 1000
18.3599996566772 935
18.3799996562302 1006
18.3999996557832 998
18.4199996553361 1050
18.4399996548891 981
18.4599996544421 963
18.479999653995 1004
18.499999653548 1029
18.519999653101 1067
18.5399996526539 950
18.5599996522069 1020
18.5799996517599 984
18.5999996513128 1002
18.6199996508658 992
18.6399996504188 1059
18.6599996499717 1013
18.6799996495247 1041
18.6999996490777 1050
18.7199996486306 1066
18.7399996481836 1061
18.7599996477366 1066
18.7799996472895 1088
18.7999996468425 1033
18.8199996463954 1055
18.8399996459484 1086
18.8599996455014 1087
18.8799996450543 1048
18.8999996446073 1054
18.9199996441603 1081
18.9399996437132 1068
18.9599996432662 1082
18.9799996428192 978
18.9999996423721 1101
19.0199996419251 1105
19.0399996414781 1122
19.059999641031 1105
19.079999640584 1084
19.099999640137 1139
19.1199996396899 1135
19.1399996392429 1036
19.1599996387959 1091
19.1799996383488 1076
19.1999996379018 1115
19.2199996374547 1118
19.2399996370077 1064
19.2599996365607 1075
19.2799996361136 1151
19.2999996356666 1100
19.3199996352196 1119
19.3399996347725 1079
19.3599996343255 1128
19.3799996338785 1134
19.3999996334314 1097
19.4199996329844 1144
19.4399996325374 1141
19.4599996320903 1135
19.4799996316433 1163
19.4999996311963 1138
19.5199996307492 1153
19.5399996303022 1126
19.5599996298552 1141
19.5799996294081 1113
19.5999996289611 1171
19.6199996285141 1251
19.639999628067 1151
19.65999962762 1158
19.6799996271729 1173
19.6999996267259 1161
19.7199996262789 1206
19.7399996258318 1183
19.7599996253848 1181
19.7799996249378 1165
19.7999996244907 1209
19.8199996240437 1165
19.8399996235967 1175
19.8599996231496 1128
19.8799996227026 1212
19.8999996222556 1215
19.9199996218085 1205
19.9399996213615 1221
19.9599996209145 1156
19.9799996204674 1155
19.9999996200204 1190
