3 1961
3.01999999955297 1853
3.03999999910593 1797
3.0599999986589 1642
3.07999999821186 1561
3.09999999776483 1492
3.11999999731779 1509
3.13999999687076 1429
3.15999999642372 1379
3.17999999597669 1397
3.19999999552965 1359
3.21999999508262 1332
3.23999999463558 1290
3.25999999418855 1313
3.27999999374151 1286
3.29999999329448 1279
3.31999999284744 1286
3.33999999240041 1258
3.35999999195337 1247
3.37999999150634 1225
3.3999999910593 1220
3.41999999061227 1252
3.43999999016523 1204
3.4599999897182 1175
3.47999998927116 1175
3.49999998882413 1089
3.51999998837709 1172
3.53999998793006 1108
3.55999998748302 1153
3.57999998703599 1122
3.59999998658895 1065
3.61999998614192 1123
3.63999998569489 1031
3.65999998524785 983
3.67999998480082 1004
3.69999998435378 1020
3.71999998390675 1028
3.73999998345971 981
3.75999998301268 1067
3.77999998256564 932
3.79999998211861 966
3.81999998167157 996
3.83999998122454 994
3.8599999807775 912
3.87999998033047 940
3.89999997988343 960
3.9199999794364 928
3.93999997898936 951
3.95999997854233 936
3.97999997809529 913
3.99999997764826 856
4.01999997720122 930
4.03999997675419 875
4.05999997630715 915
4.07999997586012 853
4.09999997541308 850
4.11999997496605 882
4.13999997451901 808
4.15999997407198 778
4.17999997362494 853
4.19999997317791 873
4.21999997273087 815
4.23999997228384 766
4.25999997183681 760
4.27999997138977 771
4.29999997094274 765
4.3199999704957 702
4.33999997004867 759
4.35999996960163 766
4.3799999691546 750
4.39999996870756 725
4.41999996826053 753
4.43999996781349 741
4.45999996736646 710
4.47999996691942 741
4.49999996647239 745
4.51999996602535 679
4.53999996557832 663
4.55999996513128 712
4.57999996468425 667
4.59999996423721 666
4.61999996379018 684
4.63999996334314 723
4.65999996289611 675
4.67999996244907 717
4.69999996200204 697
4.719999961555 646
4.73999996110797 648
4.75999996066093 648
4.7799999602139 661
4.79999995976686 678
4.81999995931983 675
4.83999995887279 673
4.85999995842576 714
4.87999995797873 660
4.89999995753169 622
4.91999995708466 576
4.93999995663762 623
4.95999995619059 601
4.97999995574355 572
4.99999995529652 617
5.01999995484948 629
5.03999995440245 626
5.05999995395541 619
5.07999995350838 648
5.09999995306134 587
5.11999995261431 580
5.13999995216727 610
5.15999995172024 630
5.1799999512732 603
5.19999995082617 639
5.21999995037913 587
5.2399999499321 548
5.25999994948506 564
5.27999994903803 600
5.29999994859099 576
5.31999994814396 594
5.33999994769692 595
5.35999994724989 584
5.37999994680285 588
5.39999994635582 601
5.41999994590878 597
5.43999994546175 514
5.45999994501471 577
5.47999994456768 608
5.49999994412065 571
5.51999994367361 575
5.53999994322658 546
5.55999994277954 559
5.57999994233251 627
5.59999994188547 582
5.61999994143844 602
5.6399999409914 617
5.65999994054437 565
5.67999994009733 560
5.6999999396503 591
5.71999993920326 530
5.73999993875623 553
5.75999993830919 598
5.77999993786216 550
5.79999993741512 569
5.81999993696809 575
5.83999993652105 586
5.85999993607402 576
5.87999993562698 544
5.89999993517995 582
5.91999993473291 579
5.93999993428588 554
5.95999993383884 540
5.97999993339181 607
5.99999993294477 574
6.01999993249774 532
6.0399999320507 585
6.05999993160367 574
6.07999993115663 582
6.0999999307096 558
6.11999993026257 530
6.13999992981553 501
6.1599999293685 517
6.17999992892146 560
6.19999992847443 540
6.21999992802739 543
6.23999992758036 545
6.25999992713332 549
6.27999992668629 536
6.29999992623925 570
6.31999992579222 537
6.33999992534518 561
6.35999992489815 542
6.37999992445111 524
6.39999992400408 538
6.41999992355704 551
6.43999992311001 528
6.45999992266297 516
6.47999992221594 576
6.4999999217689 541
6.51999992132187 529
6.53999992087483 506
6.5599999204278 532
6.57999991998076 512
6.59999991953373 536
6.61999991908669 549
6.63999991863966 508
6.65999991819262 523
6.67999991774559 511
6.69999991729855 561
6.71999991685152 535
6.73999991640449 501
6.75999991595745 541
6.77999991551042 514
6.79999991506338 518
6.81999991461635 534
6.83999991416931 534
6.85999991372228 532
6.87999991327524 541
6.89999991282821 520
6.91999991238117 568
6.93999991193414 560
6.9599999114871 497
6.97999991104007 504
6.99999991059303 569
7.019999910146 489
7.03999990969896 554
7.05999990925193 513
7.07999990880489 516
7.09999990835786 515
7.11999990791082 536
7.13999990746379 517
7.15999990701675 540
7.17999990656972 523
7.19999990612268 559
7.21999990567565 515
7.23999990522861 489
7.25999990478158 496
7.27999990433454 535
7.29999990388751 548
7.31999990344047 530
7.33999990299344 495
7.35999990254641 503
7.37999990209937 543
7.39999990165234 527
7.4199999012053 540
7.43999990075827 547
7.45999990031123 523
7.4799998998642 543
7.49999989941716 508
7.51999989897013 552
7.53999989852309 531
7.55999989807606 516
7.57999989762902 494
7.59999989718199 520
7.61999989673495 540
7.63999989628792 555
7.65999989584088 522
7.67999989539385 498
7.69999989494681 553
7.71999989449978 499
7.73999989405274 556
7.75999989360571 515
7.77999989315867 541
7.79999989271164 490
7.8199998922646 507
7.83999989181757 526
7.85999989137053 516
7.8799998909235 527
7.89999989047646 526
7.91999989002943 521
7.9399998895824 517
7.95999988913536 531
7.97999988868833 532
7.99999988824129 519
8.01999988779426 490
8.03999988734722 519
8.05999988690019 524
8.07999988645315 484
8.09999988600612 508
8.11999988555908 526
8.13999988511205 515
8.15999988466501 517
8.17999988421798 494
8.19999988377094 518
8.21999988332391 488
8.23999988287687 521
8.25999988242984 545
8.2799998819828 501
8.29999988153577 504
8.31999988108873 506
8.3399998806417 477
8.35999988019466 534
8.37999987974763 497
8.39999987930059 535
8.41999987885356 523
8.43999987840652 552
8.45999987795949 565
8.47999987751245 533
8.49999987706542 551
8.51999987661839 541
8.53999987617135 546
8.55999987572432 604
8.57999987527728 610
8.59999987483025 532
8.61999987438321 576
8.63999987393618 565
8.65999987348914 612
8.67999987304211 612
8.69999987259507 653
8.71999987214804 677
8.739999871701 703
8.75999987125397 722
8.77999987080693 784
8.7999998703599 717
8.81999986991286 783
8.83999986946583 851
8.85999986901879 889
8.87999986857176 969
8.89999986812472 1062
8.91999986767769 1168
8.93999986723065 1284
8.95999986678362 1486
8.97999986633658 1691
8.99999986588955 1858
9.01999986544251 1958
9.03999986499548 1983
9.05999986454844 1887
9.07999986410141 1716
9.09999986365438 1501
9.11999986320734 1221
9.13999986276031 1033
9.15999986231327 904
9.17999986186624 748
9.1999998614192 621
9.21999986097217 606
9.23999986052513 556
9.2599998600781 558
9.27999985963106 527
9.29999985918403 508
9.31999985873699 498
9.33999985828996 548
9.35999985784292 522
9.37999985739589 514
9.39999985694885 514
9.41999985650182 507
9.43999985605478 531
9.45999985560775 521
9.47999985516071 561
9.49999985471368 582
9.51999985426664 525
9.53999985381961 502
9.55999985337257 526
9.57999985292554 547
9.5999998524785 540
9.61999985203147 555
9.63999985158443 512
9.6599998511374 607
9.67999985069037 587
9.69999985024333 574
9.7199998497963 614
9.73999984934926 642
9.75999984890223 638
9.77999984845519 649
9.79999984800816 703
9.81999984756112 667
9.83999984711409 748
9.85999984666705 823
9.87999984622002 856
9.89999984577298 949
9.91999984532595 1028
9.93999984487891 1137
9.95999984443188 1250
9.97999984398484 1328
9.99999984353781 1238
10.0199998430908 1145
10.0399998426437 1091
10.0599998421967 946
10.0799998417497 840
10.0999998413026 726
10.1199998408556 634
10.1399998404086 572
10.1599998399615 515
10.1799998395145 511
10.1999998390675 511
10.2199998386204 530
10.2399998381734 501
10.2599998377264 488
10.2799998372793 503
10.2999998368323 464
10.3199998363853 495
10.3399998359382 462
10.3599998354912 483
10.3799998350441 466
10.3999998345971 490
10.4199998341501 473
10.439999833703 459
10.459999833256 505
10.479999832809 458
10.4999998323619 458
10.5199998319149 470
10.5399998314679 470
10.5599998310208 476
10.5799998305738 492
10.5999998301268 497
10.6199998296797 467
10.6399998292327 462
10.6599998287857 421
10.6799998283386 496
10.6999998278916 461
10.7199998274446 508
10.7399998269975 473
10.7599998265505 477
10.7799998261034 458
10.7999998256564 511
10.8199998252094 458
10.8399998247623 451
10.8599998243153 476
10.8799998238683 447
10.8999998234212 508
10.9199998229742 481
10.9399998225272 457
10.9599998220801 444
10.9799998216331 502
10.9999998211861 449
11.019999820739 485
11.039999820292 489
11.059999819845 473
11.0799998193979 495
11.0999998189509 459
11.1199998185039 485
11.1399998180568 482
11.1599998176098 478
11.1799998171628 458
11.1999998167157 475
11.2199998162687 492
11.2399998158216 449
11.2599998153746 459
11.2799998149276 461
11.2999998144805 463
11.3199998140335 459
11.3399998135865 470
11.3599998131394 458
11.3799998126924 440
11.3999998122454 459
11.4199998117983 456
11.4399998113513 451
11.4599998109043 458
11.4799998104572 497
11.4999998100102 429
11.5199998095632 470
11.5399998091161 459
11.5599998086691 478
11.5799998082221 433
11.599999807775 491
11.619999807328 492
11.639999806881 479
11.6599998064339 455
11.6799998059869 468
11.6999998055398 440
11.7199998050928 495
11.7399998046458 436
11.7599998041987 468
11.7799998037517 458
11.7999998033047 465
11.8199998028576 461
11.8399998024106 449
11.8599998019636 516
11.8799998015165 451
11.8999998010695 442
11.9199998006225 503
11.9399998001754 454
11.9599997997284 455
11.9799997992814 477
11.9999997988343 486
12.0199997983873 490
12.0399997979403 451
12.0599997974932 447
12.0799997970462 444
12.0999997965992 435
12.1199997961521 436
12.1399997957051 468
12.159999795258 468
12.179999794811 456
12.199999794364 496
12.2199997939169 439
12.2399997934699 444
12.2599997930229 471
12.2799997925758 486
12.2999997921288 470
12.3199997916818 461
12.3399997912347 433
12.3599997907877 500
12.3799997903407 479
12.3999997898936 522
12.4199997894466 483
12.4399997889996 498
12.4599997885525 469
12.4799997881055 477
12.4999997876585 520
12.5199997872114 496
12.5399997867644 516
12.5599997863173 494
12.5799997858703 490
12.5999997854233 530
12.6199997849762 516
12.6399997845292 578
12.6599997840822 567
12.6799997836351 611
12.6999997831881 596
12.7199997827411 679
12.739999782294 647
12.759999781847 647
12.7799997814 628
12.7999997809529 631
12.8199997805059 597
12.8399997800589 578
12.8599997796118 581
12.8799997791648 544
12.8999997787178 492
12.9199997782707 486
12.9399997778237 494
12.9599997773767 528
12.9799997769296 483
12.9999997764826 500
13.0199997760355 513
13.0399997755885 504
13.0599997751415 521
13.0799997746944 503
13.0999997742474 472
13.1199997738004 472
13.1399997733533 513
13.1599997729063 512
13.1799997724593 540
13.1999997720122 556
13.2199997715652 558
13.2399997711182 573
13.2599997706711 580
13.2799997702241 590
13.2999997697771 564
13.31999976933 666
13.339999768883 656
13.359999768436 715
13.3799997679889 788
13.3999997675419 837
13.4199997670949 852
13.4399997666478 902
13.4599997662008 891
13.4799997657537 801
13.4999997653067 817
13.5199997648597 783
13.5399997644126 670
13.5599997639656 601
13.5799997635186 607
13.5999997630715 546
13.6199997626245 563
13.6399997621775 550
13.6599997617304 529
13.6799997612834 495
13.6999997608364 511
13.7199997603893 520
13.7399997599423 515
13.7599997594953 514
13.7799997590482 522
13.7999997586012 464
13.8199997581542 486
13.8399997577071 495
13.8599997572601 508
13.879999756813 502
13.899999756366 505
13.919999755919 511
13.9399997554719 510
13.9599997550249 481
13.9799997545779 475
13.9999997541308 459
14.0199997536838 517
14.0399997532368 504
14.0599997527897 499
14.0799997523427 462
14.0999997518957 497
14.1199997514486 489
14.1399997510016 514
14.1599997505546 458
14.1799997501075 512
14.1999997496605 518
14.2199997492135 510
14.2399997487664 463
14.2599997483194 511
14.2799997478724 507
14.2999997474253 496
14.3199997469783 514
14.3399997465312 520
14.3599997460842 482
14.3799997456372 522
14.3999997451901 485
14.4199997447431 489
14.4399997442961 527
14.459999743849 526
14.479999743402 502
14.499999742955 511
14.5199997425079 511
14.5399997420609 492
14.5599997416139 515
14.5799997411668 517
14.5999997407198 553
14.6199997402728 540
14.6399997398257 562
14.6599997393787 515
14.6799997389317 501
14.6999997384846 521
14.7199997380376 532
14.7399997375906 479
14.7599997371435 493
14.7799997366965 489
14.7999997362494 483
14.8199997358024 525
14.8399997353554 533
14.8599997349083 511
14.8799997344613 491
14.8999997340143 503
14.9199997335672 496
14.9399997331202 524
14.9599997326732 511
14.9799997322261 555
14.9999997317791 515
15.0199997313321 543
15.039999730885 550
15.059999730438 529
15.079999729991 493
15.0999997295439 555
15.1199997290969 568
15.1399997286499 551
15.1599997282028 523
15.1799997277558 532
15.1999997273088 531
15.2199997268617 540
15.2399997264147 511
15.2599997259676 581
15.2799997255206 563
15.2999997250736 524
15.3199997246265 544
15.3399997241795 490
15.3599997237325 553
15.3799997232854 542
15.3999997228384 547
15.4199997223914 548
15.4399997219443 527
15.4599997214973 580
15.4799997210503 531
15.4999997206032 550
15.5199997201562 541
15.5399997197092 568
15.5599997192621 535
15.5799997188151 548
15.5999997183681 566
15.619999717921 508
15.639999717474 521
15.659999717027 563
15.6799997165799 515
15.6999997161329 568
15.7199997156858 555
15.7399997152388 551
15.7599997147918 574
15.7799997143447 563
15.7999997138977 529
15.8199997134507 598
15.8399997130036 575
15.8599997125566 553
15.8799997121096 553
15.8999997116625 529
15.9199997112155 532
15.9399997107685 560
15.9599997103214 581
15.9799997098744 575
15.9999997094274 604
16.0199997089803 575
16.0399997085333 550
16.0599997080863 569
16.0799997076392 576
16.0999997071922 582
16.1199997067451 568
16.1399997062981 594
16.1599997058511 574
16.179999705404 563
16.199999704957 581
16.21999970451 544
16.2399997040629 595
16.2599997036159 571
16.2799997031689 606
16.2999997027218 576
16.3199997022748 558
16.3399997018278 532
16.3599997013807 578
16.3799997009337 597
16.3999997004867 563
16.4199997000396 583
16.4399996995926 594
16.4599996991456 619
16.4799996986985 632
16.4999996982515 589
16.5199996978045 594
16.5399996973574 614
16.5599996969104 611
16.5799996964633 650
16.5999996960163 670
16.6199996955693 629
16.6399996951222 646
16.6599996946752 614
16.6799996942282 598
16.6999996937811 639
16.7199996933341 655
16.7399996928871 631
16.75999969244 683
16.779999691993 720
16.799999691546 712
16.8199996910989 738
16.8399996906519 753
16.8599996902049 723
16.8799996897578 821
16.8999996893108 900
16.9199996888638 924
16.9399996884167 984
16.9599996879697 1120
16.9799996875226 1176
16.9999996870756 1206
17.0199996866286 1192
17.0399996861815 1169
17.0599996857345 1086
17.0799996852875 1041
17.0999996848404 925
17.1199996843934 896
17.1399996839464 787
17.1599996834993 766
17.1799996830523 729
17.1999996826053 730
17.2199996821582 689
17.2399996817112 655
17.2599996812642 666
17.2799996808171 678
17.2999996803701 665
17.3199996799231 655
17.339999679476 660
17.359999679029 673
17.379999678582 702
17.3999996781349 640
17.4199996776879 654
17.4399996772408 642
17.4599996767938 656
17.4799996763468 699
17.4999996758997 626
17.5199996754527 652
17.5399996750057 664
17.5599996745586 689
17.5799996741116 685
17.5999996736646 679
17.6199996732175 703
17.6399996727705 694
17.6599996723235 657
17.6799996718764 694
17.6999996714294 702
17.7199996709824 669
17.7399996705353 657
17.7599996700883 665
17.7799996696413 676
17.7999996691942 682
17.8199996687472 694
17.8399996683002 706
17.8599996678531 748
17.8799996674061 733
17.899999666959 676
17.919999666512 732
17.939999666065 757
17.9599996656179 723
17.9799996651709 765
17.9999996647239 757
18.0199996642768 721
18.0399996638298 769
18.0599996633828 697
18.0799996629357 752
18.0999996624887 735
18.1199996620417 697
18.1399996615946 723
18.1599996611476 733
18.1799996607006 710
18.1999996602535 739
18.2199996598065 731
18.2399996593595 732
18.2599996589124 746
18.2799996584654 723
18.2999996580184 734
18.3199996575713 720
18.3399996571243 708
18.3599996566772 713
18.3799996562302 716
18.3999996557832 722
18.4199996553361 754
18.4399996548891 756
18.4599996544421 781
18.479999653995 793
18.499999653548 793
18.519999653101 804
18.5399996526539 824
18.5599996522069 787
18.5799996517599 799
18.5999996513128 774
18.6199996508658 779
18.6399996504188 719
18.6599996499717 762
18.6799996495247 778
18.6999996490777 766
18.7199996486306 780
18.7399996481836 728
18.7599996477366 764
18.7799996472895 774
18.7999996468425 733
18.8199996463954 740
18.8399996459484 747
18.8599996455014 795
18.8799996450543 760
18.8999996446073 763
18.9199996441603 767
18.9399996437132 760
18.9599996432662 753
18.9799996428192 796
18.9999996423721 771
19.0199996419251 786
19.0399996414781 768
19.059999641031 792
19.079999640584 779
19.099999640137 818
19.1199996396899 817
19.1399996392429 821
19.1599996387959 777
19.1799996383488 791
19.1999996379018 775
19.2199996374547 839
19.2399996370077 811
19.2599996365607 787
19.2799996361136 807
19.2999996356666 835
19.3199996352196 811
19.3399996347725 814
19.3599996343255 774
19.3799996338785 791
19.3999996334314 792
19.4199996329844 851
19.4399996325374 810
19.4599996320903 824
19.4799996316433 808
19.4999996311963 817
19.5199996307492 802
19.5399996303022 776
19.5599996298552 832
19.5799996294081 841
19.5999996289611 864
19.6199996285141 890
19.639999628067 816
19.65999962762 863
19.6799996271729 793
19.6999996267259 832
19.7199996262789 881
19.7399996258318 853
19.7599996253848 849
19.7799996249378 892
19.7999996244907 900
19.8199996240437 896
19.8399996235967 963
19.8599996231496 959
19.8799996227026 975
19.8999996222556 995
19.9199996218085 1052
19.9399996213615 1041
19.9599996209145 1033
19.9799996204674 1071
19.9999996200204 1118
