3 2266
3.01999999955297 2112
3.03999999910593 2022
3.0599999986589 1865
3.07999999821186 1813
3.09999999776483 1718
3.11999999731779 1624
3.13999999687076 1647
3.15999999642372 1644
3.17999999597669 1544
3.19999999552965 1580
3.21999999508262 1530
3.23999999463558 1601
3.25999999418855 1514
3.27999999374151 1527
3.29999999329448 1446
3.31999999284744 1532
3.33999999240041 1447
3.35999999195337 1387
3.37999999150634 1377
3.3999999910593 1411
3.41999999061227 1415
3.43999999016523 1422
3.4599999897182 1432
3.47999998927116 1336
3.49999998882413 1346
3.51999998837709 1299
3.53999998793006 1281
3.55999998748302 1299
3.57999998703599 1287
3.59999998658895 1316
3.61999998614192 1310
3.63999998569489 1246
3.65999998524785 1254
3.67999998480082 1247
3.69999998435378 1213
3.71999998390675 1231
3.73999998345971 1191
3.75999998301268 1167
3.77999998256564 1153
3.79999998211861 1179
3.81999998167157 1237
3.83999998122454 1182
3.8599999807775 1192
3.87999998033047 1124
3.89999997988343 1116
3.9199999794364 1131
3.93999997898936 1078
3.95999997854233 1042
3.97999997809529 1129
3.99999997764826 1107
4.01999997720122 1085
4.03999997675419 1120
4.05999997630715 1024
4.07999997586012 1049
4.09999997541308 1061
4.11999997496605 1055
4.13999997451901 1024
4.15999997407198 1058
4.17999997362494 982
4.19999997317791 1042
4.21999997273087 1014
4.23999997228384 1044
4.25999997183681 989
4.27999997138977 1043
4.29999997094274 962
4.3199999704957 1047
4.33999997004867 997
4.35999996960163 943
4.3799999691546 990
4.39999996870756 953
4.41999996826053 932
4.43999996781349 1007
4.45999996736646 1035
4.47999996691942 1031
4.49999996647239 992
4.51999996602535 986
4.53999996557832 948
4.55999996513128 962
4.57999996468425 924
4.59999996423721 964
4.61999996379018 925
4.63999996334314 945
4.65999996289611 907
4.67999996244907 953
4.69999996200204 936
4.719999961555 893
4.73999996110797 948
4.75999996066093 950
4.7799999602139 934
4.79999995976686 902
4.81999995931983 933
4.83999995887279 962
4.85999995842576 938
4.87999995797873 943
4.89999995753169 955
4.91999995708466 905
4.93999995663762 862
4.95999995619059 922
4.97999995574355 919
4.99999995529652 949
5.01999995484948 954
5.03999995440245 912
5.05999995395541 926
5.07999995350838 869
5.09999995306134 909
5.11999995261431 851
5.13999995216727 880
5.15999995172024 897
5.1799999512732 883
5.19999995082617 974
5.21999995037913 887
5.2399999499321 899
5.25999994948506 867
5.27999994903803 932
5.29999994859099 878
5.31999994814396 907
5.33999994769692 922
5.35999994724989 922
5.37999994680285 976
5.39999994635582 888
5.41999994590878 972
5.43999994546175 998
5.45999994501471 991
5.47999994456768 1015
5.49999994412065 991
5.51999994367361 961
5.53999994322658 914
5.55999994277954 889
5.57999994233251 872
5.59999994188547 919
5.61999994143844 838
5.6399999409914 874
5.65999994054437 787
5.67999994009733 844
5.6999999396503 803
5.71999993920326 821
5.73999993875623 837
5.75999993830919 775
5.77999993786216 770
5.79999993741512 832
5.81999993696809 766
5.83999993652105 731
5.85999993607402 725
5.87999993562698 789
5.89999993517995 767
5.91999993473291 721
5.93999993428588 722
5.95999993383884 761
5.97999993339181 750
5.99999993294477 750
6.01999993249774 760
6.0399999320507 709
6.05999993160367 737
6.07999993115663 761
6.0999999307096 716
6.11999993026257 707
6.13999992981553 737
6.1599999293685 743
6.17999992892146 690
6.19999992847443 678
6.21999992802739 688
6.23999992758036 713
6.25999992713332 716
6.27999992668629 712
6.29999992623925 650
6.31999992579222 650
6.33999992534518 698
6.35999992489815 664
6.37999992445111 657
6.39999992400408 641
6.41999992355704 671
6.43999992311001 677
6.45999992266297 659
6.47999992221594 637
6.4999999217689 646
6.51999992132187 715
6.53999992087483 632
6.5599999204278 699
6.57999991998076 679
6.59999991953373 620
6.61999991908669 633
6.63999991863966 679
6.65999991819262 629
6.67999991774559 694
6.69999991729855 659
6.71999991685152 639
6.73999991640449 678
6.75999991595745 631
6.77999991551042 674
6.79999991506338 682
6.81999991461635 612
6.83999991416931 615
6.85999991372228 618
6.87999991327524 643
6.89999991282821 605
6.91999991238117 701
6.93999991193414 616
6.9599999114871 630
6.97999991104007 643
6.99999991059303 644
7.019999910146 646
7.03999990969896 641
7.05999990925193 579
7.07999990880489 637
7.09999990835786 634
7.11999990791082 617
7.13999990746379 609
7.15999990701675 589
7.17999990656972 652
7.19999990612268 605
7.21999990567565 575
7.23999990522861 629
7.25999990478158 636
7.27999990433454 635
7.29999990388751 637
7.31999990344047 651
7.33999990299344 591
7.35999990254641 668
7.37999990209937 596
7.39999990165234 664
7.4199999012053 590
7.43999990075827 582
7.45999990031123 590
7.4799998998642 601
7.49999989941716 615
7.51999989897013 602
7.53999989852309 632
7.55999989807606 601
7.57999989762902 603
7.59999989718199 610
7.61999989673495 593
7.63999989628792 573
7.65999989584088 589
7.67999989539385 590
7.69999989494681 599
7.71999989449978 582
7.73999989405274 593
7.75999989360571 599
7.77999989315867 588
7.79999989271164 570
7.8199998922646 593
7.83999989181757 622
7.85999989137053 582
7.8799998909235 585
7.89999989047646 581
7.91999989002943 599
7.9399998895824 598
7.95999988913536 617
7.97999988868833 559
7.99999988824129 588
8.01999988779426 547
8.03999988734722 599
8.05999988690019 589
8.07999988645315 585
8.09999988600612 559
8.11999988555908 577
8.13999988511205 583
8.15999988466501 547
8.17999988421798 570
8.19999988377094 582
8.21999988332391 623
8.23999988287687 583
8.25999988242984 564
8.2799998819828 572
8.29999988153577 558
8.31999988108873 592
8.3399998806417 581
8.35999988019466 575
8.37999987974763 554
8.39999987930059 612
8.41999987885356 612
8.43999987840652 561
8.45999987795949 568
8.47999987751245 596
8.49999987706542 572
8.51999987661839 564
8.53999987617135 555
8.55999987572432 563
8.57999987527728 577
8.59999987483025 588
8.61999987438321 605
8.63999987393618 579
8.65999987348914 550
8.67999987304211 557
8.69999987259507 594
8.71999987214804 624
8.739999871701 563
8.75999987125397 558
8.77999987080693 545
8.7999998703599 594
8.81999986991286 628
8.83999986946583 560
8.85999986901879 585
8.87999986857176 578
8.89999986812472 591
8.91999986767769 599
8.93999986723065 551
8.95999986678362 555
8.97999986633658 591
8.99999986588955 580
9.01999986544251 612
9.03999986499548 573
9.05999986454844 596
9.07999986410141 590
9.09999986365438 545
9.11999986320734 573
9.13999986276031 608
9.15999986231327 571
9.17999986186624 560
9.1999998614192 543
9.21999986097217 556
9.23999986052513 582
9.2599998600781 576
9.27999985963106 589
9.29999985918403 593
9.31999985873699 610
9.33999985828996 573
9.35999985784292 605
9.37999985739589 616
9.39999985694885 663
9.41999985650182 675
9.43999985605478 665
9.45999985560775 555
9.47999985516071 587
9.49999985471368 591
9.51999985426664 636
9.53999985381961 581
9.55999985337257 614
9.57999985292554 581
9.5999998524785 567
9.61999985203147 579
9.63999985158443 571
9.6599998511374 568
9.67999985069037 573
9.69999985024333 545
9.7199998497963 573
9.73999984934926 578
9.75999984890223 564
9.77999984845519 574
9.79999984800816 539
9.81999984756112 604
9.83999984711409 564
9.85999984666705 606
9.87999984622002 553
9.89999984577298 575
9.91999984532595 584
9.93999984487891 540
9.95999984443188 496
9.97999984398484 596
9.99999984353781 570
10.0199998430908 548
10.0399998426437 580
10.0599998421967 549
10.0799998417497 543
10.0999998413026 561
10.1199998408556 585
10.1399998404086 573
10.1599998399615 530
10.1799998395145 538
10.1999998390675 523
10.2199998386204 524
10.2399998381734 529
10.2599998377264 553
10.2799998372793 555
10.2999998368323 541
10.3199998363853 525
10.3399998359382 578
10.3599998354912 569
10.3799998350441 551
10.3999998345971 551
10.4199998341501 556
10.439999833703 538
10.459999833256 587
10.479999832809 507
10.4999998323619 523
10.5199998319149 518
10.5399998314679 554
10.5599998310208 542
10.5799998305738 534
10.5999998301268 586
10.6199998296797 519
10.6399998292327 520
10.6599998287857 585
10.6799998283386 537
10.6999998278916 545
10.7199998274446 550
10.7399998269975 550
10.7599998265505 582
10.7799998261034 561
10.7999998256564 623
10.8199998252094 601
10.8399998247623 566
10.8599998243153 559
10.8799998238683 559
10.8999998234212 606
10.9199998229742 539
10.9399998225272 588
10.9599998220801 591
10.9799998216331 545
10.9999998211861 502
11.019999820739 532
11.039999820292 572
11.059999819845 557
11.0799998193979 527
11.0999998189509 531
11.1199998185039 524
11.1399998180568 544
11.1599998176098 514
11.1799998171628 541
11.1999998167157 550
11.2199998162687 550
11.2399998158216 542
11.2599998153746 559
11.2799998149276 528
11.2999998144805 578
11.3199998140335 601
11.3399998135865 550
11.3599998131394 530
11.3799998126924 504
11.3999998122454 527
11.4199998117983 535
11.4399998113513 534
11.4599998109043 529
11.4799998104572 552
11.4999998100102 527
11.5199998095632 514
11.5399998091161 513
11.5599998086691 537
11.5799998082221 527
11.599999807775 532
11.619999807328 524
11.639999806881 560
11.6599998064339 560
11.6799998059869 549
11.6999998055398 561
11.7199998050928 548
11.7399998046458 536
11.7599998041987 524
11.7799998037517 538
11.7999998033047 526
11.8199998028576 564
11.8399998024106 535
11.8599998019636 570
11.8799998015165 565
11.8999998010695 547
11.9199998006225 588
11.9399998001754 557
11.9599997997284 546
11.9799997992814 539
11.9999997988343 559
12.0199997983873 557
12.0399997979403 603
12.0599997974932 536
12.0799997970462 556
12.0999997965992 540
12.1199997961521 572
12.1399997957051 519
12.159999795258 527
12.179999794811 528
12.199999794364 580
12.2199997939169 564
12.2399997934699 542
12.2599997930229 556
12.2799997925758 597
12.2999997921288 590
12.3199997916818 568
12.3399997912347 585
12.3599997907877 559
12.3799997903407 606
12.3999997898936 560
12.4199997894466 580
12.4399997889996 538
12.4599997885525 589
12.4799997881055 572
12.4999997876585 606
12.5199997872114 592
12.5399997867644 580
12.5599997863173 587
12.5799997858703 595
12.5999997854233 598
12.6199997849762 590
12.6399997845292 595
12.6599997840822 573
12.6799997836351 570
12.6999997831881 543
12.7199997827411 582
12.739999782294 587
12.759999781847 557
12.7799997814 525
12.7999997809529 548
12.8199997805059 538
12.8399997800589 586
12.8599997796118 610
12.8799997791648 582
12.8999997787178 561
12.9199997782707 593
12.9399997778237 631
12.9599997773767 572
12.9799997769296 548
12.9999997764826 575
13.0199997760355 576
13.0399997755885 597
13.0599997751415 510
13.0799997746944 589
13.0999997742474 599
13.1199997738004 599
13.1399997733533 577
13.1599997729063 587
13.1799997724593 632
13.1999997720122 608
13.2199997715652 589
13.2399997711182 620
13.2599997706711 590
13.2799997702241 577
13.2999997697771 610
13.31999976933 606
13.339999768883 595
13.359999768436 568
13.3799997679889 610
13.3999997675419 626
13.4199997670949 594
13.4399997666478 563
13.4599997662008 541
13.4799997657537 583
13.4999997653067 575
13.5199997648597 630
13.5399997644126 562
13.5599997639656 603
13.5799997635186 639
13.5999997630715 564
13.6199997626245 633
13.6399997621775 578
13.6599997617304 585
13.6799997612834 657
13.6999997608364 656
13.7199997603893 616
13.7399997599423 592
13.7599997594953 610
13.7799997590482 639
13.7999997586012 593
13.8199997581542 583
13.8399997577071 619
13.8599997572601 612
13.879999756813 597
13.899999756366 594
13.919999755919 622
13.9399997554719 625
13.9599997550249 631
13.9799997545779 607
13.9999997541308 642
14.0199997536838 671
14.0399997532368 620
14.0599997527897 629
14.0799997523427 663
14.0999997518957 634
14.1199997514486 694
14.1399997510016 618
14.1599997505546 624
14.1799997501075 641
14.1999997496605 627
14.2199997492135 666
14.2399997487664 656
14.2599997483194 629
14.2799997478724 671
14.2999997474253 620
14.3199997469783 631
14.3399997465312 641
14.3599997460842 611
14.3799997456372 649
14.3999997451901 671
14.4199997447431 606
14.4399997442961 660
14.459999743849 647
14.479999743402 677
14.499999742955 682
14.5199997425079 629
14.5399997420609 557
14.5599997416139 676
14.5799997411668 650
14.5999997407198 611
14.6199997402728 628
14.6399997398257 677
14.6599997393787 626
14.6799997389317 628
14.6999997384846 651
14.7199997380376 615
14.7399997375906 637
14.7599997371435 673
14.7799997366965 676
14.7999997362494 649
14.8199997358024 685
14.8399997353554 721
14.8599997349083 681
14.8799997344613 669
14.8999997340143 680
14.9199997335672 669
14.9399997331202 639
14.9599997326732 655
14.9799997322261 688
14.9999997317791 708
15.0199997313321 650
15.039999730885 657
15.059999730438 675
15.079999729991 726
15.0999997295439 707
15.1199997290969 716
15.1399997286499 676
15.1599997282028 702
15.1799997277558 705
15.1999997273088 698
15.2199997268617 684
15.2399997264147 736
15.2599997259676 680
15.2799997255206 688
15.2999997250736 719
15.3199997246265 681
15.3399997241795 696
15.3599997237325 732
15.3799997232854 713
15.3999997228384 690
15.4199997223914 704
15.4399997219443 745
15.4599997214973 714
15.4799997210503 743
15.4999997206032 702
15.5199997201562 674
15.5399997197092 705
15.5599997192621 757
15.5799997188151 756
15.5999997183681 733
15.619999717921 725
15.639999717474 716
15.659999717027 726
15.6799997165799 717
15.6999997161329 725
15.7199997156858 687
15.7399997152388 766
15.7599997147918 714
15.7799997143447 713
15.7999997138977 722
15.8199997134507 697
15.8399997130036 736
15.8599997125566 747
15.8799997121096 735
15.8999997116625 803
15.9199997112155 774
15.9399997107685 716
15.9599997103214 726
15.9799997098744 769
15.9999997094274 717
16.0199997089803 770
16.0399997085333 735
16.0599997080863 748
16.0799997076392 794
16.0999997071922 758
16.1199997067451 737
16.1399997062981 754
16.1599997058511 817
16.179999705404 801
16.199999704957 812
16.21999970451 776
16.2399997040629 776
16.2599997036159 833
16.2799997031689 752
16.2999997027218 795
16.3199997022748 782
16.3399997018278 790
16.3599997013807 768
16.3799997009337 837
16.3999997004867 817
16.4199997000396 745
16.4399996995926 826
16.4599996991456 807
16.4799996986985 811
16.4999996982515 798
16.5199996978045 863
16.5399996973574 844
16.5599996969104 784
16.5799996964633 864
16.5999996960163 822
16.6199996955693 836
16.6399996951222 808
16.6599996946752 912
16.6799996942282 864
16.6999996937811 834
16.7199996933341 887
16.7399996928871 873
16.75999969244 837
16.779999691993 890
16.799999691546 888
16.8199996910989 872
16.8399996906519 880
16.8599996902049 961
16.8799996897578 916
16.8999996893108 897
16.9199996888638 890
16.9399996884167 1032
16.9599996879697 1043
16.9799996875226 1138
16.9999996870756 1213
17.0199996866286 1259
17.0399996861815 1308
17.0599996857345 1287
17.0799996852875 1327
17.0999996848404 1196
17.1199996843934 1084
17.1399996839464 953
17.1599996834993 925
17.1799996830523 919
17.1999996826053 952
17.2199996821582 950
17.2399996817112 950
17.2599996812642 879
17.2799996808171 897
17.2999996803701 903
17.3199996799231 869
17.339999679476 960
17.359999679029 874
17.379999678582 858
17.3999996781349 949
17.4199996776879 910
17.4399996772408 950
17.4599996767938 913
17.4799996763468 994
17.4999996758997 899
17.5199996754527 904
17.5399996750057 960
17.5599996745586 940
17.5799996741116 952
17.5999996736646 900
17.6199996732175 967
17.6399996727705 968
17.6599996723235 945
17.6799996718764 920
17.6999996714294 963
17.7199996709824 1009
17.7399996705353 971
17.7599996700883 983
17.7799996696413 990
17.7999996691942 935
17.8199996687472 955
17.8399996683002 974
17.8599996678531 958
17.8799996674061 1000
17.899999666959 988
17.919999666512 1044
17.939999666065 988
17.9599996656179 1010
17.9799996651709 975
17.9999996647239 1002
18.0199996642768 1014
18.0399996638298 1012
18.0599996633828 969
18.0799996629357 1034
18.0999996624887 1002
18.1199996620417 1036
18.1399996615946 1024
18.1599996611476 1011
18.1799996607006 1027
18.1999996602535 994
18.2199996598065 1064
18.2399996593595 1027
18.2599996589124 1047
18.2799996584654 1067
18.2999996580184 1060
18.3199996575713 1035
18.3399996571243 1007
18.3599996566772 1056
18.3799996562302 999
18.3999996557832 1026
18.4199996553361 1004
18.4399996548891 1073
18.4599996544421 1058
18.479999653995 1068
18.499999653548 1070
18.519999653101 1022
18.5399996526539 1062
18.5599996522069 1093
18.5799996517599 1100
18.5999996513128 1116
18.6199996508658 1091
18.6399996504188 1071
18.6599996499717 1085
18.6799996495247 1099
18.6999996490777 1127
18.7199996486306 1104
18.7399996481836 1064
18.7599996477366 1067
18.7799996472895 1200
18.7999996468425 1118
18.8199996463954 1108
18.8399996459484 1119
18.8599996455014 1186
18.8799996450543 1067
18.8999996446073 1092
18.9199996441603 1147
18.9399996437132 1077
18.9599996432662 1128
18.9799996428192 1112
18.9999996423721 1140
19.0199996419251 1137
19.0399996414781 1216
19.059999641031 1158
19.079999640584 1158
19.099999640137 1165
19.1199996396899 1137
19.1399996392429 1173
19.1599996387959 1254
19.1799996383488 1124
19.1999996379018 1145
19.2199996374547 1113
19.2399996370077 1184
19.2599996365607 1204
19.2799996361136 1153
19.2999996356666 1087
19.3199996352196 1222
19.3399996347725 1203
19.3599996343255 1264
19.3799996338785 1184
19.3999996334314 1280
19.4199996329844 1235
19.4399996325374 1225
19.4599996320903 1226
19.4799996316433 1271
19.4999996311963 1344
19.5199996307492 1220
19.5399996303022 1220
19.5599996298552 1231
19.5799996294081 1263
19.5999996289611 1233
19.6199996285141 1252
19.639999628067 1235
19.65999962762 1240
19.6799996271729 1247
19.6999996267259 1238
19.7199996262789 1267
19.7399996258318 1243
19.7599996253848 1246
19.7799996249378 1287
19.7999996244907 1263
19.8199996240437 1205
19.8399996235967 1217
19.8599996231496 1268
19.8799996227026 1337
19.8999996222556 1267
19.9199996218085 1314
19.9399996213615 1298
19.9599996209145 1263
19.9799996204674 1301
19.9999996200204 1242
