3 2400
3.01999999955297 2143
3.03999999910593 2049
3.0599999986589 1973
3.07999999821186 1804
3.09999999776483 1778
3.11999999731779 1742
3.13999999687076 1628
3.15999999642372 1731
3.17999999597669 1636
3.19999999552965 1636
3.21999999508262 1617
3.23999999463558 1639
3.25999999418855 1546
3.27999999374151 1546
3.29999999329448 1588
3.31999999284744 1522
3.33999999240041 1601
3.35999999195337 1518
3.37999999150634 1461
3.3999999910593 1481
3.41999999061227 1400
3.43999999016523 1472
3.4599999897182 1465
3.47999998927116 1472
3.49999998882413 1430
3.51999998837709 1461
3.53999998793006 1406
3.55999998748302 1349
3.57999998703599 1413
3.59999998658895 1370
3.61999998614192 1352
3.63999998569489 1306
3.65999998524785 1370
3.67999998480082 1324
3.69999998435378 1345
3.71999998390675 1338
3.73999998345971 1323
3.75999998301268 1296
3.77999998256564 1253
3.79999998211861 1328
3.81999998167157 1334
3.83999998122454 1340
3.8599999807775 1261
3.87999998033047 1311
3.89999997988343 1298
3.9199999794364 1261
3.93999997898936 1341
3.95999997854233 1324
3.97999997809529 1278
3.99999997764826 1241
4.01999997720122 1290
4.03999997675419 1246
4.05999997630715 1198
4.07999997586012 1199
4.09999997541308 1241
4.11999997496605 1225
4.13999997451901 1184
4.15999997407198 1184
4.17999997362494 1172
4.19999997317791 1175
4.21999997273087 1141
4.23999997228384 1142
4.25999997183681 1241
4.27999997138977 1165
4.29999997094274 1141
4.3199999704957 1150
4.33999997004867 1139
4.35999996960163 1162
4.3799999691546 1160
4.39999996870756 1186
4.41999996826053 1112
4.43999996781349 1106
4.45999996736646 1059
4.47999996691942 1073
4.49999996647239 1208
4.51999996602535 1120
4.53999996557832 1143
4.55999996513128 1118
4.57999996468425 1162
4.59999996423721 1058
4.61999996379018 1117
4.63999996334314 1150
4.65999996289611 1119
4.67999996244907 1081
4.69999996200204 1098
4.719999961555 1045
4.73999996110797 1128
4.75999996066093 1135
4.7799999602139 1083
4.79999995976686 1118
4.81999995931983 1161
4.83999995887279 1064
4.85999995842576 1141
4.87999995797873 1096
4.89999995753169 1061
4.91999995708466 1131
4.93999995663762 1046
4.95999995619059 1108
4.97999995574355 1150
4.99999995529652 1058
5.01999995484948 1089
5.03999995440245 1018
5.05999995395541 1165
5.07999995350838 1088
5.09999995306134 1072
5.11999995261431 1111
5.13999995216727 1082
5.15999995172024 1112
5.1799999512732 1083
5.19999995082617 1092
5.21999995037913 1092
5.2399999499321 1142
5.25999994948506 1180
5.27999994903803 1205
5.29999994859099 1170
5.31999994814396 1226
5.33999994769692 1266
5.35999994724989 1369
5.37999994680285 1435
5.39999994635582 1597
5.41999994590878 1639
5.43999994546175 1406
5.45999994501471 1250
5.47999994456768 1156
5.49999994412065 1140
5.51999994367361 1166
5.53999994322658 1140
5.55999994277954 1141
5.57999994233251 1139
5.59999994188547 1143
5.61999994143844 1172
5.6399999409914 1058
5.65999994054437 1134
5.67999994009733 1183
5.6999999396503 1216
5.71999993920326 1146
5.73999993875623 1187
5.75999993830919 1175
5.77999993786216 1158
5.79999993741512 1006
5.81999993696809 974
5.83999993652105 934
5.85999993607402 869
5.87999993562698 819
5.89999993517995 837
5.91999993473291 795
5.93999993428588 851
5.95999993383884 814
5.97999993339181 769
5.99999993294477 828
6.01999993249774 727
6.0399999320507 791
6.05999993160367 791
6.07999993115663 791
6.0999999307096 814
6.11999993026257 774
6.13999992981553 694
6.1599999293685 768
6.17999992892146 800
6.19999992847443 773
6.21999992802739 686
6.23999992758036 706
6.25999992713332 739
6.27999992668629 723
6.29999992623925 735
6.31999992579222 706
6.33999992534518 681
6.35999992489815 737
6.37999992445111 720
6.39999992400408 682
6.41999992355704 755
6.43999992311001 691
6.45999992266297 715
6.47999992221594 695
6.4999999217689 686
6.51999992132187 720
6.53999992087483 738
6.5599999204278 723
6.57999991998076 737
6.59999991953373 706
6.61999991908669 695
6.63999991863966 687
6.65999991819262 698
6.67999991774559 702
6.69999991729855 712
6.71999991685152 736
6.73999991640449 732
6.75999991595745 697
6.77999991551042 676
6.79999991506338 660
6.81999991461635 650
6.83999991416931 653
6.85999991372228 665
6.87999991327524 644
6.89999991282821 687
6.91999991238117 676
6.93999991193414 664
6.9599999114871 633
6.97999991104007 677
6.99999991059303 648
7.019999910146 651
7.03999990969896 689
7.05999990925193 636
7.07999990880489 598
7.09999990835786 656
7.11999990791082 662
7.13999990746379 622
7.15999990701675 632
7.17999990656972 619
7.19999990612268 673
7.21999990567565 606
7.23999990522861 615
7.25999990478158 636
7.27999990433454 655
7.29999990388751 682
7.31999990344047 626
7.33999990299344 704
7.35999990254641 653
7.37999990209937 638
7.39999990165234 648
7.4199999012053 634
7.43999990075827 622
7.45999990031123 635
7.4799998998642 631
7.49999989941716 629
7.51999989897013 605
7.53999989852309 634
7.55999989807606 635
7.57999989762902 624
7.59999989718199 643
7.61999989673495 675
7.63999989628792 636
7.65999989584088 604
7.67999989539385 630
7.69999989494681 624
7.71999989449978 614
7.73999989405274 601
7.75999989360571 628
7.77999989315867 612
7.79999989271164 601
7.8199998922646 600
7.83999989181757 574
7.85999989137053 628
7.8799998909235 639
7.89999989047646 587
7.91999989002943 576
7.9399998895824 643
7.95999988913536 583
7.97999988868833 594
7.99999988824129 592
8.01999988779426 613
8.03999988734722 576
8.05999988690019 581
8.07999988645315 603
8.09999988600612 662
8.11999988555908 627
8.13999988511205 589
8.15999988466501 600
8.17999988421798 587
8.19999988377094 621
8.21999988332391 562
8.23999988287687 585
8.25999988242984 609
8.2799998819828 646
8.29999988153577 624
8.31999988108873 626
8.3399998806417 634
8.35999988019466 616
8.37999987974763 589
8.39999987930059 613
8.41999987885356 605
8.43999987840652 576
8.45999987795949 596
8.47999987751245 644
8.49999987706542 623
8.51999987661839 598
8.53999987617135 599
8.55999987572432 568
8.57999987527728 569
8.59999987483025 587
8.61999987438321 589
8.63999987393618 566
8.65999987348914 659
8.67999987304211 598
8.69999987259507 621
8.71999987214804 604
8.739999871701 606
8.75999987125397 636
8.77999987080693 651
8.7999998703599 614
8.81999986991286 580
8.83999986946583 607
8.85999986901879 618
8.87999986857176 578
8.89999986812472 596
8.91999986767769 584
8.93999986723065 625
8.95999986678362 615
8.97999986633658 634
8.99999986588955 599
9.01999986544251 630
9.03999986499548 624
9.05999986454844 629
9.07999986410141 638
9.09999986365438 651
9.11999986320734 625
9.13999986276031 684
9.15999986231327 614
9.17999986186624 637
9.1999998614192 672
9.21999986097217 700
9.23999986052513 697
9.2599998600781 675
9.27999985963106 768
9.29999985918403 886
9.31999985873699 881
9.33999985828996 885
9.35999985784292 685
9.37999985739589 635
9.39999985694885 586
9.41999985650182 573
9.43999985605478 588
9.45999985560775 616
9.47999985516071 557
9.49999985471368 581
9.51999985426664 605
9.53999985381961 615
9.55999985337257 558
9.57999985292554 589
9.5999998524785 600
9.61999985203147 609
9.63999985158443 578
9.6599998511374 595
9.67999985069037 603
9.69999985024333 589
9.7199998497963 573
9.73999984934926 608
9.75999984890223 565
9.77999984845519 645
9.79999984800816 566
9.81999984756112 600
9.83999984711409 549
9.85999984666705 565
9.87999984622002 596
9.89999984577298 600
9.91999984532595 551
9.93999984487891 628
9.95999984443188 581
9.97999984398484 588
9.99999984353781 567
10.0199998430908 565
10.0399998426437 569
10.0599998421967 559
10.0799998417497 558
10.0999998413026 632
10.1199998408556 584
10.1399998404086 612
10.1599998399615 646
10.1799998395145 585
10.1999998390675 595
10.2199998386204 612
10.2399998381734 590
10.2599998377264 628
10.2799998372793 601
10.2999998368323 599
10.3199998363853 584
10.3399998359382 557
10.3599998354912 589
10.3799998350441 578
10.3999998345971 549
10.4199998341501 588
10.439999833703 588
10.459999833256 556
10.479999832809 589
10.4999998323619 576
10.5199998319149 561
10.5399998314679 580
10.5599998310208 590
10.5799998305738 594
10.5999998301268 567
10.6199998296797 593
10.6399998292327 573
10.6599998287857 623
10.6799998283386 607
10.6999998278916 608
10.7199998274446 603
10.7399998269975 660
10.7599998265505 599
10.7799998261034 648
10.7999998256564 625
10.8199998252094 601
10.8399998247623 642
10.8599998243153 601
10.8799998238683 639
10.8999998234212 640
10.9199998229742 641
10.9399998225272 664
10.9599998220801 640
10.9799998216331 618
10.9999998211861 589
11.019999820739 574
11.039999820292 544
11.059999819845 603
11.0799998193979 591
11.0999998189509 616
11.1199998185039 573
11.1399998180568 588
11.1599998176098 582
11.1799998171628 528
11.1999998167157 577
11.2199998162687 568
11.2399998158216 590
11.2599998153746 576
11.2799998149276 590
11.2999998144805 535
11.3199998140335 606
11.3399998135865 539
11.3599998131394 552
11.3799998126924 552
11.3999998122454 614
11.4199998117983 543
11.4399998113513 592
11.4599998109043 587
11.4799998104572 590
11.4999998100102 558
11.5199998095632 568
11.5399998091161 588
11.5599998086691 550
11.5799998082221 555
11.599999807775 591
11.619999807328 596
11.639999806881 525
11.6599998064339 610
11.6799998059869 594
11.6999998055398 538
11.7199998050928 609
11.7399998046458 569
11.7599998041987 580
11.7799998037517 580
11.7999998033047 569
11.8199998028576 564
11.8399998024106 588
11.8599998019636 547
11.8799998015165 546
11.8999998010695 522
11.9199998006225 544
11.9399998001754 554
11.9599997997284 533
11.9799997992814 590
11.9999997988343 567
12.0199997983873 535
12.0399997979403 575
12.0599997974932 596
12.0799997970462 550
12.0999997965992 633
12.1199997961521 611
12.1399997957051 592
12.159999795258 529
12.179999794811 557
12.199999794364 549
12.2199997939169 576
12.2399997934699 558
12.2599997930229 603
12.2799997925758 585
12.2999997921288 582
12.3199997916818 567
12.3399997912347 606
12.3599997907877 593
12.3799997903407 553
12.3999997898936 553
12.4199997894466 583
12.4399997889996 558
12.4599997885525 555
12.4799997881055 566
12.4999997876585 541
12.5199997872114 594
12.5399997867644 559
12.5599997863173 555
12.5799997858703 569
12.5999997854233 563
12.6199997849762 584
12.6399997845292 611
12.6599997840822 546
12.6799997836351 531
12.6999997831881 552
12.7199997827411 548
12.739999782294 618
12.759999781847 582
12.7799997814 595
12.7999997809529 556
12.8199997805059 581
12.8399997800589 568
12.8599997796118 577
12.8799997791648 560
12.8999997787178 603
12.9199997782707 600
12.9399997778237 553
12.9599997773767 549
12.9799997769296 556
12.9999997764826 541
13.0199997760355 585
13.0399997755885 579
13.0599997751415 602
13.0799997746944 581
13.0999997742474 612
13.1199997738004 593
13.1399997733533 563
13.1599997729063 573
13.1799997724593 573
13.1999997720122 608
13.2199997715652 620
13.2399997711182 598
13.2599997706711 623
13.2799997702241 592
13.2999997697771 557
13.31999976933 589
13.339999768883 572
13.359999768436 575
13.3799997679889 577
13.3999997675419 565
13.4199997670949 625
13.4399997666478 612
13.4599997662008 593
13.4799997657537 574
13.4999997653067 568
13.5199997648597 612
13.5399997644126 558
13.5599997639656 600
13.5799997635186 631
13.5999997630715 638
13.6199997626245 589
13.6399997621775 611
13.6599997617304 581
13.6799997612834 565
13.6999997608364 582
13.7199997603893 621
13.7399997599423 622
13.7599997594953 579
13.7799997590482 599
13.7999997586012 604
13.8199997581542 622
13.8399997577071 569
13.8599997572601 582
13.879999756813 585
13.899999756366 572
13.919999755919 613
13.9399997554719 598
13.9599997550249 603
13.9799997545779 664
13.9999997541308 626
14.0199997536838 617
14.0399997532368 615
14.0599997527897 593
14.0799997523427 598
14.0999997518957 583
14.1199997514486 588
14.1399997510016 596
14.1599997505546 638
14.1799997501075 589
14.1999997496605 610
14.2199997492135 633
14.2399997487664 640
14.2599997483194 603
14.2799997478724 645
14.2999997474253 609
14.3199997469783 608
14.3399997465312 610
14.3599997460842 612
14.3799997456372 587
14.3999997451901 573
14.4199997447431 572
14.4399997442961 633
14.459999743849 665
14.479999743402 645
14.499999742955 600
14.5199997425079 617
14.5399997420609 623
14.5599997416139 610
14.5799997411668 597
14.5999997407198 620
14.6199997402728 658
14.6399997398257 651
14.6599997393787 665
14.6799997389317 640
14.6999997384846 678
14.7199997380376 658
14.7399997375906 618
14.7599997371435 653
14.7799997366965 682
14.7999997362494 658
14.8199997358024 673
14.8399997353554 664
14.8599997349083 638
14.8799997344613 664
14.8999997340143 636
14.9199997335672 630
14.9399997331202 657
14.9599997326732 649
14.9799997322261 638
14.9999997317791 686
15.0199997313321 642
15.039999730885 686
15.059999730438 689
15.079999729991 690
15.0999997295439 680
15.1199997290969 707
15.1399997286499 662
15.1599997282028 663
15.1799997277558 652
15.1999997273088 672
15.2199997268617 679
15.2399997264147 696
15.2599997259676 676
15.2799997255206 694
15.2999997250736 683
15.3199997246265 708
15.3399997241795 685
15.3599997237325 701
15.3799997232854 663
15.3999997228384 723
15.4199997223914 656
15.4399997219443 680
15.4599997214973 707
15.4799997210503 699
15.4999997206032 704
15.5199997201562 678
15.5399997197092 681
15.5599997192621 666
15.5799997188151 719
15.5999997183681 765
15.619999717921 683
15.639999717474 697
15.659999717027 678
15.6799997165799 709
15.6999997161329 684
15.7199997156858 692
15.7399997152388 744
15.7599997147918 698
15.7799997143447 683
15.7999997138977 702
15.8199997134507 676
15.8399997130036 678
15.8599997125566 726
15.8799997121096 726
15.8999997116625 719
15.9199997112155 697
15.9399997107685 708
15.9599997103214 739
15.9799997098744 734
15.9999997094274 728
16.0199997089803 713
16.0399997085333 755
16.0599997080863 716
16.0799997076392 776
16.0999997071922 765
16.1199997067451 748
16.1399997062981 686
16.1599997058511 793
16.179999705404 736
16.199999704957 733
16.21999970451 751
16.2399997040629 740
16.2599997036159 757
16.2799997031689 750
16.2999997027218 785
16.3199997022748 743
16.3399997018278 777
16.3599997013807 777
16.3799997009337 799
16.3999997004867 753
16.4199997000396 767
16.4399996995926 792
16.4599996991456 753
16.4799996986985 776
16.4999996982515 797
16.5199996978045 784
16.5399996973574 797
16.5599996969104 813
16.5799996964633 756
16.5999996960163 789
16.6199996955693 807
16.6399996951222 847
16.6599996946752 844
16.6799996942282 793
16.6999996937811 793
16.7199996933341 802
16.7399996928871 817
16.75999969244 812
16.779999691993 815
16.799999691546 864
16.8199996910989 904
16.8399996906519 955
16.8599996902049 1003
16.8799996897578 922
16.8999996893108 970
16.9199996888638 1038
16.9399996884167 1156
16.9599996879697 1569
16.9799996875226 1967
16.9999996870756 1847
17.0199996866286 1727
17.0399996861815 1248
17.0599996857345 1084
17.0799996852875 909
17.0999996848404 839
17.1199996843934 858
17.1399996839464 839
17.1599996834993 835
17.1799996830523 858
17.1999996826053 837
17.2199996821582 892
17.2399996817112 832
17.2599996812642 852
17.2799996808171 843
17.2999996803701 886
17.3199996799231 896
17.339999679476 861
17.359999679029 871
17.379999678582 830
17.3999996781349 859
17.4199996776879 883
17.4399996772408 913
17.4599996767938 897
17.4799996763468 835
17.4999996758997 896
17.5199996754527 882
17.5399996750057 929
17.5599996745586 910
17.5799996741116 887
17.5999996736646 904
17.6199996732175 854
17.6399996727705 939
17.6599996723235 914
17.6799996718764 883
17.6999996714294 924
17.7199996709824 911
17.7399996705353 878
17.7599996700883 914
17.7799996696413 842
17.7999996691942 949
17.8199996687472 921
17.8399996683002 904
17.8599996678531 877
17.8799996674061 900
17.899999666959 917
17.919999666512 944
17.939999666065 963
17.9599996656179 921
17.9799996651709 951
17.9999996647239 900
18.0199996642768 942
18.0399996638298 905
18.0599996633828 919
18.0799996629357 925
18.0999996624887 938
18.1199996620417 962
18.1399996615946 933
18.1599996611476 1007
18.1799996607006 982
18.1999996602535 943
18.2199996598065 933
18.2399996593595 949
18.2599996589124 947
18.2799996584654 900
18.2999996580184 996
18.3199996575713 964
18.3399996571243 957
18.3599996566772 954
18.3799996562302 978
18.3999996557832 1054
18.4199996553361 972
18.4399996548891 943
18.4599996544421 1026
18.479999653995 975
18.499999653548 1017
18.519999653101 1037
18.5399996526539 974
18.5599996522069 993
18.5799996517599 1029
18.5999996513128 1016
18.6199996508658 1011
18.6399996504188 1034
18.6599996499717 1026
18.6799996495247 1047
18.6999996490777 1022
18.7199996486306 1026
18.7399996481836 1093
18.7599996477366 1049
18.7799996472895 1053
18.7999996468425 1020
18.8199996463954 1066
18.8399996459484 1046
18.8599996455014 1045
18.8799996450543 1052
18.8999996446073 1049
18.9199996441603 1021
18.9399996437132 1036
18.9599996432662 1045
18.9799996428192 1070
18.9999996423721 1092
19.0199996419251 1076
19.0399996414781 1063
19.059999641031 1083
19.079999640584 1083
19.099999640137 1060
19.1199996396899 1091
19.1399996392429 1055
19.1599996387959 1100
19.1799996383488 1111
19.1999996379018 1067
19.2199996374547 1077
19.2399996370077 1095
19.2599996365607 1085
19.2799996361136 1044
19.2999996356666 1050
19.3199996352196 1092
19.3399996347725 1127
19.3599996343255 1172
19.3799996338785 1188
19.3999996334314 1143
19.4199996329844 1160
19.4399996325374 1134
19.4599996320903 1145
19.4799996316433 1193
19.4999996311963 1158
19.5199996307492 1119
19.5399996303022 1160
19.5599996298552 1156
19.5799996294081 1096
19.5999996289611 1164
19.6199996285141 1171
19.639999628067 1166
19.65999962762 1150
19.6799996271729 1109
19.6999996267259 1165
19.7199996262789 1163
19.7399996258318 1194
19.7599996253848 1152
19.7799996249378 1153
19.7999996244907 1136
19.8199996240437 1213
19.8399996235967 1180
19.8599996231496 1152
19.8799996227026 1147
19.8999996222556 1185
19.9199996218085 1203
19.9399996213615 1166
19.9599996209145 1203
19.9799996204674 1241
19.9999996200204 1175
