3 2228
3.01999999955297 2080
3.03999999910593 1929
3.0599999986589 1817
3.07999999821186 1787
3.09999999776483 1671
3.11999999731779 1550
3.13999999687076 1602
3.15999999642372 1510
3.17999999597669 1503
3.19999999552965 1527
3.21999999508262 1467
3.23999999463558 1505
3.25999999418855 1482
3.27999999374151 1445
3.29999999329448 1382
3.31999999284744 1435
3.33999999240041 1348
3.35999999195337 1349
3.37999999150634 1364
3.3999999910593 1350
3.41999999061227 1334
3.43999999016523 1352
3.4599999897182 1388
3.47999998927116 1293
3.49999998882413 1233
3.51999998837709 1260
3.53999998793006 1290
3.55999998748302 1269
3.57999998703599 1230
3.59999998658895 1251
3.61999998614192 1185
3.63999998569489 1266
3.65999998524785 1251
3.67999998480082 1200
3.69999998435378 1150
3.71999998390675 1157
3.73999998345971 1146
3.75999998301268 1197
3.77999998256564 1199
3.79999998211861 1187
3.81999998167157 1172
3.83999998122454 1176
3.8599999807775 1133
3.87999998033047 1102
3.89999997988343 1114
3.9199999794364 1140
3.93999997898936 1178
3.95999997854233 1181
3.97999997809529 1087
3.99999997764826 1105
4.01999997720122 1061
4.03999997675419 1062
4.05999997630715 1132
4.07999997586012 1103
4.09999997541308 1051
4.11999997496605 1052
4.13999997451901 1029
4.15999997407198 1004
4.17999997362494 1033
4.19999997317791 984
4.21999997273087 1063
4.23999997228384 1045
4.25999997183681 1049
4.27999997138977 1036
4.29999997094274 1027
4.3199999704957 1043
4.33999997004867 1036
4.35999996960163 1061
4.3799999691546 1016
4.39999996870756 1073
4.41999996826053 1032
4.43999996781349 1036
4.45999996736646 1018
4.47999996691942 1026
4.49999996647239 1036
4.51999996602535 1009
4.53999996557832 1006
4.55999996513128 1033
4.57999996468425 1019
4.59999996423721 974
4.61999996379018 1037
4.63999996334314 966
4.65999996289611 1035
4.67999996244907 992
4.69999996200204 970
4.719999961555 1021
4.73999996110797 1000
4.75999996066093 982
4.7799999602139 1031
4.79999995976686 991
4.81999995931983 1009
4.83999995887279 999
4.85999995842576 984
4.87999995797873 982
4.89999995753169 1008
4.91999995708466 1016
4.93999995663762 999
4.95999995619059 1044
4.97999995574355 1014
4.99999995529652 1043
5.01999995484948 1066
5.03999995440245 965
5.05999995395541 1027
5.07999995350838 1080
5.09999995306134 1051
5.11999995261431 1059
5.13999995216727 1080
5.15999995172024 1061
5.1799999512732 1095
5.19999995082617 1149
5.21999995037913 1170
5.2399999499321 1195
5.25999994948506 1205
5.27999994903803 1251
5.29999994859099 1302
5.31999994814396 1318
5.33999994769692 1363
5.35999994724989 1428
5.37999994680285 1617
5.39999994635582 1635
5.41999994590878 1861
5.43999994546175 1941
5.45999994501471 2138
5.47999994456768 2080
5.49999994412065 1788
5.51999994367361 1477
5.53999994322658 1337
5.55999994277954 1217
5.57999994233251 1159
5.59999994188547 1163
5.61999994143844 1062
5.6399999409914 1018
5.65999994054437 1038
5.67999994009733 985
5.6999999396503 992
5.71999993920326 950
5.73999993875623 976
5.75999993830919 915
5.77999993786216 871
5.79999993741512 900
5.81999993696809 908
5.83999993652105 918
5.85999993607402 813
5.87999993562698 830
5.89999993517995 864
5.91999993473291 820
5.93999993428588 810
5.95999993383884 854
5.97999993339181 794
5.99999993294477 751
6.01999993249774 762
6.0399999320507 760
6.05999993160367 739
6.07999993115663 734
6.0999999307096 737
6.11999993026257 681
6.13999992981553 763
6.1599999293685 739
6.17999992892146 696
6.19999992847443 731
6.21999992802739 703
6.23999992758036 687
6.25999992713332 717
6.27999992668629 742
6.29999992623925 686
6.31999992579222 673
6.33999992534518 688
6.35999992489815 694
6.37999992445111 684
6.39999992400408 716
6.41999992355704 740
6.43999992311001 717
6.45999992266297 664
6.47999992221594 685
6.4999999217689 706
6.51999992132187 715
6.53999992087483 687
6.5599999204278 660
6.57999991998076 656
6.59999991953373 679
6.61999991908669 716
6.63999991863966 670
6.65999991819262 647
6.67999991774559 646
6.69999991729855 640
6.71999991685152 648
6.73999991640449 673
6.75999991595745 639
6.77999991551042 642
6.79999991506338 689
6.81999991461635 637
6.83999991416931 607
6.85999991372228 633
6.87999991327524 640
6.89999991282821 661
6.91999991238117 591
6.93999991193414 647
6.9599999114871 692
6.97999991104007 647
6.99999991059303 622
7.019999910146 654
7.03999990969896 620
7.05999990925193 633
7.07999990880489 609
7.09999990835786 636
7.11999990791082 641
7.13999990746379 580
7.15999990701675 624
7.17999990656972 594
7.19999990612268 607
7.21999990567565 599
7.23999990522861 645
7.25999990478158 630
7.27999990433454 622
7.29999990388751 553
7.31999990344047 586
7.33999990299344 590
7.35999990254641 629
7.37999990209937 597
7.39999990165234 604
7.4199999012053 573
7.43999990075827 622
7.45999990031123 643
7.4799998998642 599
7.49999989941716 641
7.51999989897013 619
7.53999989852309 617
7.55999989807606 590
7.57999989762902 610
7.59999989718199 582
7.61999989673495 608
7.63999989628792 566
7.65999989584088 607
7.67999989539385 631
7.69999989494681 613
7.71999989449978 619
7.73999989405274 603
7.75999989360571 596
7.77999989315867 591
7.79999989271164 584
7.8199998922646 567
7.83999989181757 592
7.85999989137053 628
7.8799998909235 565
7.89999989047646 566
7.91999989002943 573
7.9399998895824 592
7.95999988913536 606
7.97999988868833 588
7.99999988824129 552
8.01999988779426 554
8.03999988734722 592
8.05999988690019 599
8.07999988645315 566
8.09999988600612 576
8.11999988555908 580
8.13999988511205 615
8.15999988466501 570
8.17999988421798 606
8.19999988377094 643
8.21999988332391 590
8.23999988287687 606
8.25999988242984 599
8.2799998819828 582
8.29999988153577 623
8.31999988108873 593
8.3399998806417 610
8.35999988019466 607
8.37999987974763 619
8.39999987930059 603
8.41999987885356 583
8.43999987840652 624
8.45999987795949 615
8.47999987751245 590
8.49999987706542 566
8.51999987661839 565
8.53999987617135 643
8.55999987572432 591
8.57999987527728 551
8.59999987483025 608
8.61999987438321 629
8.63999987393618 593
8.65999987348914 571
8.67999987304211 603
8.69999987259507 630
8.71999987214804 578
8.739999871701 652
8.75999987125397 599
8.77999987080693 625
8.7999998703599 598
8.81999986991286 599
8.83999986946583 622
8.85999986901879 625
8.87999986857176 596
8.89999986812472 629
8.91999986767769 598
8.93999986723065 597
8.95999986678362 611
8.97999986633658 599
8.99999986588955 586
9.01999986544251 609
9.03999986499548 607
9.05999986454844 579
9.07999986410141 636
9.09999986365438 623
9.11999986320734 668
9.13999986276031 641
9.15999986231327 666
9.17999986186624 668
9.1999998614192 680
9.21999986097217 691
9.23999986052513 736
9.2599998600781 758
9.27999985963106 791
9.29999985918403 859
9.31999985873699 911
9.33999985828996 951
9.35999985784292 1030
9.37999985739589 1053
9.39999985694885 1046
9.41999985650182 932
9.43999985605478 794
9.45999985560775 668
9.47999985516071 695
9.49999985471368 677
9.51999985426664 659
9.53999985381961 680
9.55999985337257 610
9.57999985292554 613
9.5999998524785 607
9.61999985203147 587
9.63999985158443 631
9.6599998511374 575
9.67999985069037 603
9.69999985024333 632
9.7199998497963 601
9.73999984934926 616
9.75999984890223 547
9.77999984845519 552
9.79999984800816 589
9.81999984756112 591
9.83999984711409 584
9.85999984666705 574
9.87999984622002 584
9.89999984577298 568
9.91999984532595 606
9.93999984487891 605
9.95999984443188 614
9.97999984398484 570
9.99999984353781 593
10.0199998430908 592
10.0399998426437 593
10.0599998421967 574
10.0799998417497 617
10.0999998413026 579
10.1199998408556 555
10.1399998404086 564
10.1599998399615 560
10.1799998395145 598
10.1999998390675 600
10.2199998386204 590
10.2399998381734 592
10.2599998377264 571
10.2799998372793 593
10.2999998368323 591
10.3199998363853 604
10.3399998359382 581
10.3599998354912 612
10.3799998350441 554
10.3999998345971 578
10.4199998341501 588
10.439999833703 592
10.459999833256 635
10.479999832809 596
10.4999998323619 574
10.5199998319149 581
10.5399998314679 608
10.5599998310208 596
10.5799998305738 623
10.5999998301268 620
10.6199998296797 576
10.6399998292327 647
10.6599998287857 649
10.6799998283386 614
10.6999998278916 694
10.7199998274446 688
10.7399998269975 759
10.7599998265505 750
10.7799998261034 813
10.7999998256564 861
10.8199998252094 805
10.8399998247623 797
10.8599998243153 783
10.8799998238683 771
10.8999998234212 689
10.9199998229742 669
10.9399998225272 681
10.9599998220801 645
10.9799998216331 647
10.9999998211861 619
11.019999820739 614
11.039999820292 659
11.059999819845 606
11.0799998193979 606
11.0999998189509 627
11.1199998185039 621
11.1399998180568 569
11.1599998176098 584
11.1799998171628 575
11.1999998167157 597
11.2199998162687 568
11.2399998158216 565
11.2599998153746 574
11.2799998149276 546
11.2999998144805 587
11.3199998140335 587
11.3399998135865 564
11.3599998131394 569
11.3799998126924 578
11.3999998122454 555
11.4199998117983 576
11.4399998113513 586
11.4599998109043 566
11.4799998104572 599
11.4999998100102 559
11.5199998095632 598
11.5399998091161 565
11.5599998086691 571
11.5799998082221 601
11.599999807775 555
11.619999807328 615
11.639999806881 567
11.6599998064339 563
11.6799998059869 548
11.6999998055398 580
11.7199998050928 580
11.7399998046458 544
11.7599998041987 569
11.7799998037517 583
11.7999998033047 558
11.8199998028576 558
11.8399998024106 563
11.8599998019636 573
11.8799998015165 539
11.8999998010695 570
11.9199998006225 551
11.9399998001754 547
11.9599997997284 576
11.9799997992814 619
11.9999997988343 583
12.0199997983873 591
12.0399997979403 647
12.0599997974932 561
12.0799997970462 608
12.0999997965992 620
12.1199997961521 560
12.1399997957051 613
12.159999795258 578
12.179999794811 568
12.199999794364 579
12.2199997939169 623
12.2399997934699 622
12.2599997930229 601
12.2799997925758 631
12.2999997921288 662
12.3199997916818 597
12.3399997912347 635
12.3599997907877 635
12.3799997903407 560
12.3999997898936 590
12.4199997894466 604
12.4399997889996 599
12.4599997885525 585
12.4799997881055 601
12.4999997876585 609
12.5199997872114 571
12.5399997867644 595
12.5599997863173 541
12.5799997858703 566
12.5999997854233 630
12.6199997849762 541
12.6399997845292 607
12.6599997840822 582
12.6799997836351 610
12.6999997831881 609
12.7199997827411 592
12.739999782294 596
12.759999781847 569
12.7799997814 612
12.7999997809529 581
12.8199997805059 616
12.8399997800589 590
12.8599997796118 596
12.8799997791648 614
12.8999997787178 590
12.9199997782707 611
12.9399997778237 598
12.9599997773767 592
12.9799997769296 541
12.9999997764826 647
13.0199997760355 599
13.0399997755885 620
13.0599997751415 604
13.0799997746944 599
13.0999997742474 564
13.1199997738004 649
13.1399997733533 603
13.1599997729063 651
13.1799997724593 576
13.1999997720122 592
13.2199997715652 636
13.2399997711182 615
13.2599997706711 601
13.2799997702241 632
13.2999997697771 654
13.31999976933 657
13.339999768883 608
13.359999768436 643
13.3799997679889 588
13.3999997675419 594
13.4199997670949 667
13.4399997666478 614
13.4599997662008 617
13.4799997657537 636
13.4999997653067 630
13.5199997648597 639
13.5399997644126 650
13.5599997639656 636
13.5799997635186 642
13.5999997630715 646
13.6199997626245 618
13.6399997621775 634
13.6599997617304 643
13.6799997612834 632
13.6999997608364 619
13.7199997603893 639
13.7399997599423 639
13.7599997594953 634
13.7799997590482 657
13.7999997586012 590
13.8199997581542 649
13.8399997577071 681
13.8599997572601 675
13.879999756813 642
13.899999756366 669
13.919999755919 633
13.9399997554719 670
13.9599997550249 635
13.9799997545779 639
13.9999997541308 652
14.0199997536838 614
14.0399997532368 620
14.0599997527897 643
14.0799997523427 653
14.0999997518957 622
14.1199997514486 670
14.1399997510016 672
14.1599997505546 661
14.1799997501075 674
14.1999997496605 631
14.2199997492135 627
14.2399997487664 651
14.2599997483194 649
14.2799997478724 717
14.2999997474253 707
14.3199997469783 685
14.3399997465312 691
14.3599997460842 696
14.3799997456372 659
14.3999997451901 675
14.4199997447431 698
14.4399997442961 680
14.459999743849 651
14.479999743402 668
14.499999742955 641
14.5199997425079 627
14.5399997420609 661
14.5599997416139 628
14.5799997411668 684
14.5999997407198 669
14.6199997402728 647
14.6399997398257 628
14.6599997393787 639
14.6799997389317 680
14.6999997384846 662
14.7199997380376 705
14.7399997375906 680
14.7599997371435 672
14.7799997366965 683
14.7999997362494 680
14.8199997358024 694
14.8399997353554 687
14.8599997349083 674
14.8799997344613 697
14.8999997340143 709
14.9199997335672 662
14.9399997331202 691
14.9599997326732 654
14.9799997322261 691
14.9999997317791 652
15.0199997313321 696
15.039999730885 707
15.059999730438 683
15.079999729991 682
15.0999997295439 674
15.1199997290969 681
15.1399997286499 699
15.1599997282028 708
15.1799997277558 685
15.1999997273088 685
15.2199997268617 685
15.2399997264147 737
15.2599997259676 747
15.2799997255206 737
15.2999997250736 725
15.3199997246265 727
15.3399997241795 742
15.3599997237325 755
15.3799997232854 748
15.3999997228384 733
15.4199997223914 741
15.4399997219443 714
15.4599997214973 788
15.4799997210503 727
15.4999997206032 707
15.5199997201562 728
15.5399997197092 689
15.5599997192621 743
15.5799997188151 748
15.5999997183681 744
15.619999717921 741
15.639999717474 670
15.659999717027 675
15.6799997165799 744
15.6999997161329 721
15.7199997156858 732
15.7399997152388 710
15.7599997147918 734
15.7799997143447 716
15.7999997138977 763
15.8199997134507 757
15.8399997130036 732
15.8599997125566 777
15.8799997121096 746
15.8999997116625 745
15.9199997112155 710
15.9399997107685 733
15.9599997103214 690
15.9799997098744 760
15.9999997094274 755
16.0199997089803 747
16.0399997085333 742
16.0599997080863 776
16.0799997076392 762
16.0999997071922 763
16.1199997067451 750
16.1399997062981 735
16.1599997058511 788
16.179999705404 753
16.199999704957 764
16.21999970451 768
16.2399997040629 786
16.2599997036159 729
16.2799997031689 753
16.2999997027218 775
16.3199997022748 740
16.3399997018278 809
16.3599997013807 757
16.3799997009337 778
16.3999997004867 825
16.4199997000396 784
16.4399996995926 822
16.4599996991456 761
16.4799996986985 792
16.4999996982515 840
16.5199996978045 866
16.5399996973574 834
16.5599996969104 863
16.5799996964633 822
16.5999996960163 821
16.6199996955693 812
16.6399996951222 821
16.6599996946752 909
16.6799996942282 846
16.6999996937811 833
16.7199996933341 910
16.7399996928871 938
16.75999969244 885
16.779999691993 936
16.799999691546 921
16.8199996910989 957
16.8399996906519 994
16.8599996902049 1035
16.8799996897578 1094
16.8999996893108 1239
16.9199996888638 1401
16.9399996884167 1624
16.9599996879697 1980
16.9799996875226 2347
16.9999996870756 2909
17.0199996866286 3941
17.0399996861815 5006
17.0599996857345 5675
17.0799996852875 5872
17.0999996848404 4382
17.1199996843934 3189
17.1399996839464 2113
17.1599996834993 1298
17.1799996830523 1038
17.1999996826053 1046
17.2199996821582 1051
17.2399996817112 945
17.2599996812642 938
17.2799996808171 955
17.2999996803701 924
17.3199996799231 939
17.339999679476 942
17.359999679029 945
17.379999678582 921
17.3999996781349 981
17.4199996776879 924
17.4399996772408 935
17.4599996767938 998
17.4799996763468 942
17.4999996758997 959
17.5199996754527 994
17.5399996750057 937
17.5599996745586 969
17.5799996741116 948
17.5999996736646 971
17.6199996732175 992
17.6399996727705 975
17.6599996723235 953
17.6799996718764 973
17.6999996714294 991
17.7199996709824 914
17.7399996705353 915
17.7599996700883 954
17.7799996696413 966
17.7999996691942 911
17.8199996687472 966
17.8399996683002 942
17.8599996678531 890
17.8799996674061 951
17.899999666959 1005
17.919999666512 977
17.939999666065 951
17.9599996656179 962
17.9799996651709 996
17.9999996647239 1007
18.0199996642768 974
18.0399996638298 990
18.0599996633828 951
18.0799996629357 998
18.0999996624887 1050
18.1199996620417 1020
18.1399996615946 975
18.1599996611476 1032
18.1799996607006 1026
18.1999996602535 993
18.2199996598065 1028
18.2399996593595 1011
18.2599996589124 981
18.2799996584654 994
18.2999996580184 983
18.3199996575713 972
18.3399996571243 970
18.3599996566772 988
18.3799996562302 1003
18.3999996557832 1015
18.4199996553361 998
18.4399996548891 967
18.4599996544421 1072
18.479999653995 1041
18.499999653548 1038
18.519999653101 1055
18.5399996526539 1039
18.5599996522069 1042
18.5799996517599 993
18.5999996513128 1090
18.6199996508658 1141
18.6399996504188 1086
18.6599996499717 1075
18.6799996495247 1041
18.6999996490777 1069
18.7199996486306 1124
18.7399996481836 1159
18.7599996477366 1043
18.7799996472895 1098
18.7999996468425 1056
18.8199996463954 1129
18.8399996459484 1102
18.8599996455014 1058
18.8799996450543 1072
18.8999996446073 1076
18.9199996441603 1098
18.9399996437132 1079
18.9599996432662 1104
18.9799996428192 1118
18.9999996423721 1145
19.0199996419251 1078
19.0399996414781 1077
19.059999641031 1130
19.079999640584 1117
19.099999640137 1117
19.1199996396899 1162
19.1399996392429 1152
19.1599996387959 1182
19.1799996383488 1086
19.1999996379018 1120
19.2199996374547 1070
19.2399996370077 1105
19.2599996365607 1170
19.2799996361136 1157
19.2999996356666 1165
19.3199996352196 1128
19.3399996347725 1196
19.3599996343255 1153
19.3799996338785 1206
19.3999996334314 1284
19.4199996329844 1190
19.4399996325374 1255
19.4599996320903 1255
19.4799996316433 1242
19.4999996311963 1322
19.5199996307492 1299
19.5399996303022 1302
19.5599996298552 1260
19.5799996294081 1293
19.5999996289611 1254
19.6199996285141 1258
19.639999628067 1198
19.65999962762 1241
19.6799996271729 1138
19.6999996267259 1262
19.7199996262789 1244
19.7399996258318 1247
19.7599996253848 1194
19.7799996249378 1299
19.7999996244907 1247
19.8199996240437 1264
19.8399996235967 1248
19.8599996231496 1220
19.8799996227026 1223
19.8999996222556 1194
19.9199996218085 1228
19.9399996213615 1265
19.9599996209145 1228
19.9799996204674 1255
19.9999996200204 1261
