3 3264
3.01999999955297 3041
3.03999999910593 2946
3.0599999986589 2772
3.07999999821186 2808
3.09999999776483 2704
3.11999999731779 2567
3.13999999687076 2474
3.15999999642372 2426
3.17999999597669 2439
3.19999999552965 2430
3.21999999508262 2322
3.23999999463558 2281
3.25999999418855 2283
3.27999999374151 2201
3.29999999329448 2266
3.31999999284744 2199
3.33999999240041 2096
3.35999999195337 2158
3.37999999150634 2185
3.3999999910593 2009
3.41999999061227 1998
3.43999999016523 1950
3.4599999897182 1938
3.47999998927116 1968
3.49999998882413 1863
3.51999998837709 1902
3.53999998793006 1914
3.55999998748302 1840
3.57999998703599 1847
3.59999998658895 1777
3.61999998614192 1810
3.63999998569489 1740
3.65999998524785 1699
3.67999998480082 1651
3.69999998435378 1657
3.71999998390675 1677
3.73999998345971 1692
3.75999998301268 1521
3.77999998256564 1667
3.79999998211861 1515
3.81999998167157 1555
3.83999998122454 1598
3.8599999807775 1553
3.87999998033047 1542
3.89999997988343 1547
3.9199999794364 1518
3.93999997898936 1475
3.95999997854233 1483
3.97999997809529 1447
3.99999997764826 1408
4.01999997720122 1357
4.03999997675419 1391
4.05999997630715 1404
4.07999997586012 1328
4.09999997541308 1274
4.11999997496605 1299
4.13999997451901 1259
4.15999997407198 1271
4.17999997362494 1246
4.19999997317791 1234
4.21999997273087 1222
4.23999997228384 1277
4.25999997183681 1250
4.27999997138977 1175
4.29999997094274 1212
4.3199999704957 1160
4.33999997004867 1193
4.35999996960163 1136
4.3799999691546 1045
4.39999996870756 1110
4.41999996826053 1080
4.43999996781349 1101
4.45999996736646 1015
4.47999996691942 1017
4.49999996647239 1028
4.51999996602535 1047
4.53999996557832 1015
4.55999996513128 980
4.57999996468425 1013
4.59999996423721 1022
4.61999996379018 985
4.63999996334314 1039
4.65999996289611 1005
4.67999996244907 979
4.69999996200204 960
4.719999961555 990
4.73999996110797 991
4.75999996066093 986
4.7799999602139 923
4.79999995976686 882
4.81999995931983 905
4.83999995887279 948
4.85999995842576 943
4.87999995797873 946
4.89999995753169 891
4.91999995708466 923
4.93999995663762 860
4.95999995619059 969
4.97999995574355 889
4.99999995529652 910
5.01999995484948 858
5.03999995440245 860
5.05999995395541 820
5.07999995350838 863
5.09999995306134 863
5.11999995261431 832
5.13999995216727 794
5.15999995172024 809
5.1799999512732 792
5.19999995082617 797
5.21999995037913 845
5.2399999499321 854
5.25999994948506 796
5.27999994903803 845
5.29999994859099 782
5.31999994814396 792
5.33999994769692 817
5.35999994724989 783
5.37999994680285 758
5.39999994635582 767
5.41999994590878 763
5.43999994546175 788
5.45999994501471 817
5.47999994456768 794
5.49999994412065 765
5.51999994367361 756
5.53999994322658 740
5.55999994277954 754
5.57999994233251 740
5.59999994188547 751
5.61999994143844 797
5.6399999409914 712
5.65999994054437 758
5.67999994009733 765
5.6999999396503 740
5.71999993920326 744
5.73999993875623 747
5.75999993830919 722
5.77999993786216 727
5.79999993741512 688
5.81999993696809 767
5.83999993652105 744
5.85999993607402 717
5.87999993562698 696
5.89999993517995 794
5.91999993473291 704
5.93999993428588 774
5.95999993383884 740
5.97999993339181 695
5.99999993294477 700
6.01999993249774 716
6.0399999320507 715
6.05999993160367 760
6.07999993115663 719
6.0999999307096 713
6.11999993026257 736
6.13999992981553 672
6.1599999293685 722
6.17999992892146 685
6.19999992847443 681
6.21999992802739 735
6.23999992758036 692
6.25999992713332 688
6.27999992668629 728
6.29999992623925 676
6.31999992579222 717
6.33999992534518 717
6.35999992489815 670
6.37999992445111 714
6.39999992400408 703
6.41999992355704 756
6.43999992311001 738
6.45999992266297 727
6.47999992221594 684
6.4999999217689 749
6.51999992132187 669
6.53999992087483 712
6.5599999204278 697
6.57999991998076 701
6.59999991953373 664
6.61999991908669 695
6.63999991863966 715
6.65999991819262 680
6.67999991774559 706
6.69999991729855 671
6.71999991685152 717
6.73999991640449 686
6.75999991595745 676
6.77999991551042 684
6.79999991506338 687
6.81999991461635 673
6.83999991416931 707
6.85999991372228 684
6.87999991327524 648
6.89999991282821 716
6.91999991238117 682
6.93999991193414 664
6.9599999114871 664
6.97999991104007 647
6.99999991059303 643
7.019999910146 657
7.03999990969896 692
7.05999990925193 628
7.07999990880489 661
7.09999990835786 696
7.11999990791082 629
7.13999990746379 666
7.15999990701675 615
7.17999990656972 660
7.19999990612268 629
7.21999990567565 621
7.23999990522861 653
7.25999990478158 663
7.27999990433454 674
7.29999990388751 682
7.31999990344047 698
7.33999990299344 660
7.35999990254641 697
7.37999990209937 671
7.39999990165234 657
7.4199999012053 677
7.43999990075827 648
7.45999990031123 616
7.4799998998642 690
7.49999989941716 663
7.51999989897013 688
7.53999989852309 669
7.55999989807606 692
7.57999989762902 623
7.59999989718199 650
7.61999989673495 667
7.63999989628792 656
7.65999989584088 694
7.67999989539385 663
7.69999989494681 654
7.71999989449978 660
7.73999989405274 710
7.75999989360571 693
7.77999989315867 697
7.79999989271164 650
7.8199998922646 717
7.83999989181757 667
7.85999989137053 708
7.8799998909235 721
7.89999989047646 713
7.91999989002943 743
7.9399998895824 742
7.95999988913536 731
7.97999988868833 718
7.99999988824129 698
8.01999988779426 708
8.03999988734722 674
8.05999988690019 689
8.07999988645315 647
8.09999988600612 672
8.11999988555908 677
8.13999988511205 681
8.15999988466501 685
8.17999988421798 657
8.19999988377094 719
8.21999988332391 685
8.23999988287687 687
8.25999988242984 684
8.2799998819828 709
8.29999988153577 696
8.31999988108873 722
8.3399998806417 684
8.35999988019466 717
8.37999987974763 727
8.39999987930059 716
8.41999987885356 746
8.43999987840652 681
8.45999987795949 676
8.47999987751245 691
8.49999987706542 752
8.51999987661839 732
8.53999987617135 703
8.55999987572432 763
8.57999987527728 765
8.59999987483025 755
8.61999987438321 758
8.63999987393618 773
8.65999987348914 810
8.67999987304211 805
8.69999987259507 875
8.71999987214804 898
8.739999871701 905
8.75999987125397 995
8.77999987080693 1061
8.7999998703599 1074
8.81999986991286 1185
8.83999986946583 1223
8.85999986901879 1337
8.87999986857176 1467
8.89999986812472 1514
8.91999986767769 1731
8.93999986723065 1913
8.95999986678362 2296
8.97999986633658 2786
8.99999986588955 3589
9.01999986544251 4300
9.03999986499548 4575
9.05999986454844 4192
9.07999986410141 2962
9.09999986365438 1692
9.11999986320734 993
9.13999986276031 805
9.15999986231327 774
9.17999986186624 756
9.1999998614192 742
9.21999986097217 644
9.23999986052513 706
9.2599998600781 697
9.27999985963106 671
9.29999985918403 652
9.31999985873699 638
9.33999985828996 668
9.35999985784292 630
9.37999985739589 679
9.39999985694885 691
9.41999985650182 674
9.43999985605478 666
9.45999985560775 655
9.47999985516071 650
9.49999985471368 679
9.51999985426664 719
9.53999985381961 709
9.55999985337257 727
9.57999985292554 737
9.5999998524785 698
9.61999985203147 716
9.63999985158443 720
9.6599998511374 802
9.67999985069037 810
9.69999985024333 781
9.7199998497963 839
9.73999984934926 824
9.75999984890223 919
9.77999984845519 982
9.79999984800816 997
9.81999984756112 1085
9.83999984711409 1192
9.85999984666705 1274
9.87999984622002 1369
9.89999984577298 1501
9.91999984532595 1756
9.93999984487891 2074
9.95999984443188 2510
9.97999984398484 2909
9.99999984353781 2732
10.0199998430908 2063
10.0399998426437 1341
10.0599998421967 912
10.0799998417497 793
10.0999998413026 706
10.1199998408556 722
10.1399998404086 696
10.1599998399615 648
10.1799998395145 654
10.1999998390675 655
10.2199998386204 593
10.2399998381734 667
10.2599998377264 636
10.2799998372793 654
10.2999998368323 605
10.3199998363853 626
10.3399998359382 616
10.3599998354912 647
10.3799998350441 637
10.3999998345971 666
10.4199998341501 666
10.439999833703 646
10.459999833256 677
10.479999832809 628
10.4999998323619 619
10.5199998319149 651
10.5399998314679 653
10.5599998310208 681
10.5799998305738 613
10.5999998301268 671
10.6199998296797 620
10.6399998292327 621
10.6599998287857 681
10.6799998283386 610
10.6999998278916 612
10.7199998274446 582
10.7399998269975 651
10.7599998265505 604
10.7799998261034 630
10.7999998256564 613
10.8199998252094 575
10.8399998247623 624
10.8599998243153 601
10.8799998238683 585
10.8999998234212 589
10.9199998229742 612
10.9399998225272 602
10.9599998220801 614
10.9799998216331 622
10.9999998211861 634
11.019999820739 599
11.039999820292 657
11.059999819845 569
11.0799998193979 595
11.0999998189509 612
11.1199998185039 598
11.1399998180568 573
11.1599998176098 580
11.1799998171628 643
11.1999998167157 607
11.2199998162687 612
11.2399998158216 638
11.2599998153746 621
11.2799998149276 554
11.2999998144805 596
11.3199998140335 617
11.3399998135865 649
11.3599998131394 638
11.3799998126924 598
11.3999998122454 620
11.4199998117983 633
11.4399998113513 660
11.4599998109043 625
11.4799998104572 613
11.4999998100102 598
11.5199998095632 617
11.5399998091161 597
11.5599998086691 611
11.5799998082221 613
11.599999807775 607
11.619999807328 591
11.639999806881 611
11.6599998064339 636
11.6799998059869 627
11.6999998055398 568
11.7199998050928 580
11.7399998046458 575
11.7599998041987 604
11.7799998037517 598
11.7999998033047 656
11.8199998028576 624
11.8399998024106 638
11.8599998019636 581
11.8799998015165 623
11.8999998010695 644
11.9199998006225 624
11.9399998001754 619
11.9599997997284 618
11.9799997992814 619
11.9999997988343 593
12.0199997983873 590
12.0399997979403 602
12.0599997974932 612
12.0799997970462 621
12.0999997965992 657
12.1199997961521 679
12.1399997957051 666
12.159999795258 649
12.179999794811 622
12.199999794364 622
12.2199997939169 625
12.2399997934699 616
12.2599997930229 634
12.2799997925758 656
12.2999997921288 613
12.3199997916818 617
12.3399997912347 653
12.3599997907877 633
12.3799997903407 638
12.3999997898936 676
12.4199997894466 702
12.4399997889996 631
12.4599997885525 684
12.4799997881055 689
12.4999997876585 655
12.5199997872114 709
12.5399997867644 683
12.5599997863173 721
12.5799997858703 744
12.5999997854233 721
12.6199997849762 790
12.6399997845292 800
12.6599997840822 786
12.6799997836351 883
12.6999997831881 896
12.7199997827411 997
12.739999782294 1007
12.759999781847 1083
12.7799997814 1045
12.7999997809529 916
12.8199997805059 827
12.8399997800589 766
12.8599997796118 680
12.8799997791648 669
12.8999997787178 639
12.9199997782707 668
12.9399997778237 674
12.9599997773767 651
12.9799997769296 664
12.9999997764826 648
13.0199997760355 671
13.0399997755885 677
13.0599997751415 695
13.0799997746944 667
13.0999997742474 669
13.1199997738004 747
13.1399997733533 754
13.1599997729063 720
13.1799997724593 713
13.1999997720122 728
13.2199997715652 771
13.2399997711182 786
13.2599997706711 814
13.2799997702241 863
13.2999997697771 853
13.31999976933 911
13.339999768883 998
13.359999768436 1067
13.3799997679889 1157
13.3999997675419 1376
13.4199997670949 1624
13.4399997666478 1652
13.4599997662008 1600
13.4799997657537 1408
13.4999997653067 1129
13.5199997648597 855
13.5399997644126 788
13.5599997639656 770
13.5799997635186 736
13.5999997630715 730
13.6199997626245 688
13.6399997621775 707
13.6599997617304 738
13.6799997612834 678
13.6999997608364 705
13.7199997603893 698
13.7399997599423 638
13.7599997594953 696
13.7799997590482 670
13.7999997586012 705
13.8199997581542 682
13.8399997577071 718
13.8599997572601 623
13.879999756813 717
13.899999756366 767
13.919999755919 650
13.9399997554719 646
13.9599997550249 671
13.9799997545779 681
13.9999997541308 710
14.0199997536838 720
14.0399997532368 739
14.0599997527897 697
14.0799997523427 693
14.0999997518957 691
14.1199997514486 681
14.1399997510016 669
14.1599997505546 685
14.1799997501075 717
14.1999997496605 693
14.2199997492135 713
14.2399997487664 727
14.2599997483194 682
14.2799997478724 698
14.2999997474253 719
14.3199997469783 702
14.3399997465312 716
14.3599997460842 728
14.3799997456372 689
14.3999997451901 681
14.4199997447431 679
14.4399997442961 715
14.459999743849 783
14.479999743402 740
14.499999742955 702
14.5199997425079 663
14.5399997420609 690
14.5599997416139 735
14.5799997411668 712
14.5999997407198 777
14.6199997402728 720
14.6399997398257 727
14.6599997393787 764
14.6799997389317 703
14.6999997384846 738
14.7199997380376 772
14.7399997375906 735
14.7599997371435 700
14.7799997366965 759
14.7999997362494 742
14.8199997358024 744
14.8399997353554 732
14.8599997349083 696
14.8799997344613 779
14.8999997340143 800
14.9199997335672 737
14.9399997331202 749
14.9599997326732 700
14.9799997322261 708
14.9999997317791 753
15.0199997313321 730
15.039999730885 763
15.059999730438 769
15.079999729991 713
15.0999997295439 798
15.1199997290969 746
15.1399997286499 757
15.1599997282028 743
15.1799997277558 761
15.1999997273088 763
15.2199997268617 770
15.2399997264147 783
15.2599997259676 748
15.2799997255206 766
15.2999997250736 769
15.3199997246265 804
15.3399997241795 817
15.3599997237325 763
15.3799997232854 794
15.3999997228384 784
15.4199997223914 844
15.4399997219443 805
15.4599997214973 773
15.4799997210503 752
15.4999997206032 817
15.5199997201562 813
15.5399997197092 738
15.5599997192621 768
15.5799997188151 810
15.5999997183681 833
15.619999717921 794
15.639999717474 795
15.659999717027 775
15.6799997165799 822
15.6999997161329 780
15.7199997156858 821
15.7399997152388 899
15.7599997147918 826
15.7799997143447 824
15.7999997138977 804
15.8199997134507 828
15.8399997130036 807
15.8599997125566 849
15.8799997121096 859
15.8999997116625 850
15.9199997112155 845
15.9399997107685 822
15.9599997103214 788
15.9799997098744 836
15.9999997094274 849
16.0199997089803 880
16.0399997085333 821
16.0599997080863 789
16.0799997076392 826
16.0999997071922 890
16.1199997067451 813
16.1399997062981 791
16.1599997058511 808
16.179999705404 916
16.199999704957 865
16.21999970451 884
16.2399997040629 855
16.2599997036159 809
16.2799997031689 844
16.2999997027218 835
16.3199997022748 872
16.3399997018278 858
16.3599997013807 886
16.3799997009337 887
16.3999997004867 901
16.4199997000396 894
16.4399996995926 931
16.4599996991456 901
16.4799996986985 908
16.4999996982515 863
16.5199996978045 920
16.5399996973574 898
16.5599996969104 824
16.5799996964633 974
16.5999996960163 869
16.6199996955693 937
16.6399996951222 892
16.6599996946752 935
16.6799996942282 929
16.6999996937811 907
16.7199996933341 1025
16.7399996928871 988
16.75999969244 979
16.779999691993 994
16.799999691546 1025
16.8199996910989 1027
16.8399996906519 1070
16.8599996902049 1080
16.8799996897578 1183
16.8999996893108 1189
16.9199996888638 1228
16.9399996884167 1320
16.9599996879697 1457
16.9799996875226 1552
16.9999996870756 1706
17.0199996866286 1873
17.0399996861815 1754
17.0599996857345 1512
17.0799996852875 1438
17.0999996848404 1191
17.1199996843934 1137
17.1399996839464 1026
17.1599996834993 1023
17.1799996830523 1018
17.1999996826053 971
17.2199996821582 977
17.2399996817112 945
17.2599996812642 938
17.2799996808171 964
17.2999996803701 952
17.3199996799231 974
17.339999679476 975
17.359999679029 981
17.379999678582 1058
17.3999996781349 1030
17.4199996776879 1026
17.4399996772408 995
17.4599996767938 982
17.4799996763468 993
17.4999996758997 944
17.5199996754527 997
17.5399996750057 1029
17.5599996745586 1035
17.5799996741116 1081
17.5999996736646 1020
17.6199996732175 1046
17.6399996727705 1046
17.6599996723235 1106
17.6799996718764 1039
17.6999996714294 1033
17.7199996709824 1084
17.7399996705353 1115
17.7599996700883 1060
17.7799996696413 1172
17.7999996691942 1117
17.8199996687472 1052
17.8399996683002 1123
17.8599996678531 1087
17.8799996674061 1133
17.899999666959 1089
17.919999666512 1136
17.939999666065 1059
17.9599996656179 1094
17.9799996651709 1175
17.9999996647239 1201
18.0199996642768 1177
18.0399996638298 1171
18.0599996633828 1249
18.0799996629357 1177
18.0999996624887 1193
18.1199996620417 1104
18.1399996615946 1134
18.1599996611476 1137
18.1799996607006 1100
18.1999996602535 1063
18.2199996598065 1051
18.2399996593595 1097
18.2599996589124 1071
18.2799996584654 1169
18.2999996580184 1110
18.3199996575713 1162
18.3399996571243 1131
18.3599996566772 1193
18.3799996562302 1158
18.3999996557832 1145
18.4199996553361 1135
18.4399996548891 1225
18.4599996544421 1191
18.479999653995 1244
18.499999653548 1244
18.519999653101 1312
18.5399996526539 1270
18.5599996522069 1294
18.5799996517599 1328
18.5999996513128 1307
18.6199996508658 1288
18.6399996504188 1255
18.6599996499717 1266
18.6799996495247 1183
18.6999996490777 1175
18.7199996486306 1270
18.7399996481836 1153
18.7599996477366 1170
18.7799996472895 1189
18.7999996468425 1262
18.8199996463954 1222
18.8399996459484 1210
18.8599996455014 1191
18.8799996450543 1148
18.8999996446073 1195
18.9199996441603 1215
18.9399996437132 1229
18.9599996432662 1245
18.9799996428192 1206
18.9999996423721 1220
19.0199996419251 1218
19.0399996414781 1250
19.059999641031 1275
19.079999640584 1257
19.099999640137 1248
19.1199996396899 1264
19.1399996392429 1306
19.1599996387959 1253
19.1799996383488 1281
19.1999996379018 1310
19.2199996374547 1289
19.2399996370077 1326
19.2599996365607 1270
19.2799996361136 1283
19.2999996356666 1262
19.3199996352196 1265
19.3399996347725 1308
19.3599996343255 1323
19.3799996338785 1344
19.3999996334314 1329
19.4199996329844 1329
19.4399996325374 1367
19.4599996320903 1285
19.4799996316433 1359
19.4999996311963 1379
19.5199996307492 1333
19.5399996303022 1340
19.5599996298552 1346
19.5799996294081 1440
19.5999996289611 1345
19.6199996285141 1365
19.639999628067 1325
19.65999962762 1358
19.6799996271729 1405
19.6999996267259 1398
19.7199996262789 1342
19.7399996258318 1402
19.7599996253848 1439
19.7799996249378 1391
19.7999996244907 1400
19.8199996240437 1451
19.8399996235967 1492
19.8599996231496 1517
19.8799996227026 1567
19.8999996222556 1632
19.9199996218085 1707
19.9399996213615 1789
19.9599996209145 1902
19.9799996204674 1855
19.9999996200204 1708
