3 2300
3.01999999955297 2199
3.03999999910593 1903
3.0599999986589 1895
3.07999999821186 1818
3.09999999776483 1733
3.11999999731779 1589
3.13999999687076 1600
3.15999999642372 1659
3.17999999597669 1615
3.19999999552965 1501
3.21999999508262 1574
3.23999999463558 1532
3.25999999418855 1530
3.27999999374151 1538
3.29999999329448 1501
3.31999999284744 1515
3.33999999240041 1467
3.35999999195337 1483
3.37999999150634 1387
3.3999999910593 1387
3.41999999061227 1396
3.43999999016523 1429
3.4599999897182 1394
3.47999998927116 1332
3.49999998882413 1351
3.51999998837709 1304
3.53999998793006 1347
3.55999998748302 1304
3.57999998703599 1356
3.59999998658895 1279
3.61999998614192 1288
3.63999998569489 1320
3.65999998524785 1296
3.67999998480082 1306
3.69999998435378 1278
3.71999998390675 1305
3.73999998345971 1284
3.75999998301268 1207
3.77999998256564 1210
3.79999998211861 1211
3.81999998167157 1175
3.83999998122454 1162
3.8599999807775 1147
3.87999998033047 1155
3.89999997988343 1139
3.9199999794364 1166
3.93999997898936 1164
3.95999997854233 1184
3.97999997809529 1142
3.99999997764826 1088
4.01999997720122 1096
4.03999997675419 1112
4.05999997630715 1144
4.07999997586012 1102
4.09999997541308 1105
4.11999997496605 1104
4.13999997451901 1062
4.15999997407198 1057
4.17999997362494 1053
4.19999997317791 1079
4.21999997273087 1076
4.23999997228384 1035
4.25999997183681 1064
4.27999997138977 1016
4.29999997094274 1046
4.3199999704957 992
4.33999997004867 1019
4.35999996960163 1001
4.3799999691546 1028
4.39999996870756 1000
4.41999996826053 999
4.43999996781349 931
4.45999996736646 963
4.47999996691942 982
4.49999996647239 997
4.51999996602535 1002
4.53999996557832 985
4.55999996513128 965
4.57999996468425 944
4.59999996423721 939
4.61999996379018 956
4.63999996334314 919
4.65999996289611 976
4.67999996244907 990
4.69999996200204 975
4.719999961555 970
4.73999996110797 944
4.75999996066093 976
4.7799999602139 921
4.79999995976686 928
4.81999995931983 864
4.83999995887279 905
4.85999995842576 970
4.87999995797873 929
4.89999995753169 919
4.91999995708466 955
4.93999995663762 927
4.95999995619059 895
4.97999995574355 889
4.99999995529652 978
5.01999995484948 923
5.03999995440245 898
5.05999995395541 872
5.07999995350838 880
5.09999995306134 893
5.11999995261431 921
5.13999995216727 893
5.15999995172024 895
5.1799999512732 880
5.19999995082617 877
5.21999995037913 860
5.2399999499321 872
5.25999994948506 900
5.27999994903803 885
5.29999994859099 873
5.31999994814396 877
5.33999994769692 956
5.35999994724989 914
5.37999994680285 925
5.39999994635582 846
5.41999994590878 889
5.43999994546175 831
5.45999994501471 899
5.47999994456768 846
5.49999994412065 909
5.51999994367361 846
5.53999994322658 855
5.55999994277954 852
5.57999994233251 862
5.59999994188547 887
5.61999994143844 892
5.6399999409914 956
5.65999994054437 850
5.67999994009733 893
5.6999999396503 934
5.71999993920326 835
5.73999993875623 914
5.75999993830919 935
5.77999993786216 856
5.79999993741512 909
5.81999993696809 886
5.83999993652105 883
5.85999993607402 850
5.87999993562698 890
5.89999993517995 835
5.91999993473291 870
5.93999993428588 902
5.95999993383884 929
5.97999993339181 891
5.99999993294477 906
6.01999993249774 954
6.0399999320507 973
6.05999993160367 956
6.07999993115663 905
6.0999999307096 945
6.11999993026257 928
6.13999992981553 946
6.1599999293685 940
6.17999992892146 931
6.19999992847443 934
6.21999992802739 944
6.23999992758036 894
6.25999992713332 929
6.27999992668629 948
6.29999992623925 919
6.31999992579222 932
6.33999992534518 914
6.35999992489815 984
6.37999992445111 898
6.39999992400408 955
6.41999992355704 987
6.43999992311001 985
6.45999992266297 915
6.47999992221594 983
6.4999999217689 987
6.51999992132187 967
6.53999992087483 1005
6.5599999204278 969
6.57999991998076 1014
6.59999991953373 1026
6.61999991908669 978
6.63999991863966 982
6.65999991819262 960
6.67999991774559 972
6.69999991729855 1019
6.71999991685152 957
6.73999991640449 944
6.75999991595745 949
6.77999991551042 1017
6.79999991506338 972
6.81999991461635 922
6.83999991416931 891
6.85999991372228 964
6.87999991327524 971
6.89999991282821 917
6.91999991238117 995
6.93999991193414 941
6.9599999114871 879
6.97999991104007 952
6.99999991059303 948
7.019999910146 940
7.03999990969896 930
7.05999990925193 985
7.07999990880489 935
7.09999990835786 964
7.11999990791082 910
7.13999990746379 905
7.15999990701675 922
7.17999990656972 946
7.19999990612268 989
7.21999990567565 898
7.23999990522861 908
7.25999990478158 966
7.27999990433454 968
7.29999990388751 874
7.31999990344047 910
7.33999990299344 940
7.35999990254641 967
7.37999990209937 957
7.39999990165234 941
7.4199999012053 917
7.43999990075827 974
7.45999990031123 944
7.4799998998642 949
7.49999989941716 998
7.51999989897013 981
7.53999989852309 987
7.55999989807606 1001
7.57999989762902 979
7.59999989718199 1036
7.61999989673495 1074
7.63999989628792 1062
7.65999989584088 1051
7.67999989539385 1086
7.69999989494681 1044
7.71999989449978 1072
7.73999989405274 1151
7.75999989360571 1185
7.77999989315867 1145
7.79999989271164 1205
7.8199998922646 1316
7.83999989181757 1220
7.85999989137053 1335
7.8799998909235 1322
7.89999989047646 1277
7.91999989002943 1381
7.9399998895824 1353
7.95999988913536 1369
7.97999988868833 1325
7.99999988824129 1326
8.01999988779426 1356
8.03999988734722 1292
8.05999988690019 1294
8.07999988645315 1330
8.09999988600612 1345
8.11999988555908 1314
8.13999988511205 1322
8.15999988466501 1279
8.17999988421798 1334
8.19999988377094 1374
8.21999988332391 1355
8.23999988287687 1405
8.25999988242984 1448
8.2799998819828 1469
8.29999988153577 1487
8.31999988108873 1556
8.3399998806417 1608
8.35999988019466 1599
8.37999987974763 1597
8.39999987930059 1659
8.41999987885356 1691
8.43999987840652 1659
8.45999987795949 1800
8.47999987751245 1728
8.49999987706542 1812
8.51999987661839 1952
8.53999987617135 2008
8.55999987572432 2101
8.57999987527728 2116
8.59999987483025 2201
8.61999987438321 2303
8.63999987393618 2384
8.65999987348914 2530
8.67999987304211 2663
8.69999987259507 2830
8.71999987214804 2916
8.739999871701 3080
8.75999987125397 3240
8.77999987080693 3533
8.7999998703599 3866
8.81999986991286 4046
8.83999986946583 4265
8.85999986901879 4585
8.87999986857176 4877
8.89999986812472 5137
8.91999986767769 5500
8.93999986723065 5765
8.95999986678362 5964
8.97999986633658 6148
8.99999986588955 6307
9.01999986544251 6156
9.03999986499548 6049
9.05999986454844 5827
9.07999986410141 5723
9.09999986365438 5315
9.11999986320734 4924
9.13999986276031 4728
9.15999986231327 4617
9.17999986186624 4331
9.1999998614192 4230
9.21999986097217 4066
9.23999986052513 3897
9.2599998600781 3908
9.27999985963106 3812
9.29999985918403 3729
9.31999985873699 3529
9.33999985828996 3429
9.35999985784292 3248
9.37999985739589 3117
9.39999985694885 3024
9.41999985650182 2864
9.43999985605478 2827
9.45999985560775 2694
9.47999985516071 2670
9.49999985471368 2618
9.51999985426664 2669
9.53999985381961 2617
9.55999985337257 2621
9.57999985292554 2614
9.5999998524785 2689
9.61999985203147 2748
9.63999985158443 2821
9.6599998511374 2962
9.67999985069037 3116
9.69999985024333 3205
9.7199998497963 3423
9.73999984934926 3587
9.75999984890223 3688
9.77999984845519 4148
9.79999984800816 4472
9.81999984756112 4779
9.83999984711409 5062
9.85999984666705 5672
9.87999984622002 6140
9.89999984577298 6598
9.91999984532595 7328
9.93999984487891 7673
9.95999984443188 8013
9.97999984398484 7731
9.99999984353781 7064
10.0199998430908 6247
10.0399998426437 5161
10.0599998421967 4153
10.0799998417497 3429
10.0999998413026 3003
10.1199998408556 2512
10.1399998404086 2285
10.1599998399615 2124
10.1799998395145 1922
10.1999998390675 1831
10.2199998386204 1858
10.2399998381734 1807
10.2599998377264 1635
10.2799998372793 1638
10.2999998368323 1608
10.3199998363853 1597
10.3399998359382 1549
10.3599998354912 1597
10.3799998350441 1455
10.3999998345971 1558
10.4199998341501 1488
10.439999833703 1482
10.459999833256 1506
10.479999832809 1542
10.4999998323619 1491
10.5199998319149 1404
10.5399998314679 1499
10.5599998310208 1456
10.5799998305738 1509
10.5999998301268 1461
10.6199998296797 1494
10.6399998292327 1476
10.6599998287857 1429
10.6799998283386 1524
10.6999998278916 1540
10.7199998274446 1572
10.7399998269975 1545
10.7599998265505 1562
10.7799998261034 1492
10.7999998256564 1518
10.8199998252094 1486
10.8399998247623 1620
10.8599998243153 1528
10.8799998238683 1570
10.8999998234212 1546
10.9199998229742 1501
10.9399998225272 1589
10.9599998220801 1508
10.9799998216331 1508
10.9999998211861 1455
11.019999820739 1467
11.039999820292 1406
11.059999819845 1399
11.0799998193979 1336
11.0999998189509 1311
11.1199998185039 1262
11.1399998180568 1204
11.1599998176098 1144
11.1799998171628 1126
11.1999998167157 1076
11.2199998162687 1143
11.2399998158216 1074
11.2599998153746 1052
11.2799998149276 1047
11.2999998144805 1021
11.3199998140335 1040
11.3399998135865 989
11.3599998131394 1053
11.3799998126924 1024
11.3999998122454 999
11.4199998117983 983
11.4399998113513 947
11.4599998109043 972
11.4799998104572 965
11.4999998100102 957
11.5199998095632 938
11.5399998091161 902
11.5599998086691 951
11.5799998082221 869
11.599999807775 955
11.619999807328 946
11.639999806881 898
11.6599998064339 919
11.6799998059869 908
11.6999998055398 891
11.7199998050928 916
11.7399998046458 876
11.7599998041987 876
11.7799998037517 896
11.7999998033047 899
11.8199998028576 875
11.8399998024106 879
11.8599998019636 890
11.8799998015165 902
11.8999998010695 922
11.9199998006225 904
11.9399998001754 899
11.9599997997284 918
11.9799997992814 878
11.9999997988343 845
12.0199997983873 854
12.0399997979403 878
12.0599997974932 877
12.0799997970462 904
12.0999997965992 938
12.1199997961521 954
12.1399997957051 895
12.159999795258 905
12.179999794811 945
12.199999794364 915
12.2199997939169 923
12.2399997934699 989
12.2599997930229 997
12.2799997925758 1022
12.2999997921288 1052
12.3199997916818 1049
12.3399997912347 1101
12.3599997907877 1123
12.3799997903407 1189
12.3999997898936 1192
12.4199997894466 1217
12.4399997889996 1235
12.4599997885525 1339
12.4799997881055 1428
12.4999997876585 1475
12.5199997872114 1547
12.5399997867644 1657
12.5599997863173 1771
12.5799997858703 1912
12.5999997854233 2066
12.6199997849762 2203
12.6399997845292 2259
12.6599997840822 2512
12.6799997836351 2696
12.6999997831881 2814
12.7199997827411 2818
12.739999782294 2742
12.759999781847 2455
12.7799997814 2204
12.7999997809529 1843
12.8199997805059 1536
12.8399997800589 1448
12.8599997796118 1225
12.8799997791648 1196
12.8999997787178 1166
12.9199997782707 1175
12.9399997778237 1064
12.9599997773767 1141
12.9799997769296 1024
12.9999997764826 1056
13.0199997760355 1001
13.0399997755885 934
13.0599997751415 950
13.0799997746944 994
13.0999997742474 984
13.1199997738004 954
13.1399997733533 964
13.1599997729063 986
13.1799997724593 992
13.1999997720122 929
13.2199997715652 944
13.2399997711182 946
13.2599997706711 936
13.2799997702241 957
13.2999997697771 912
13.31999976933 968
13.339999768883 967
13.359999768436 924
13.3799997679889 937
13.3999997675419 903
13.4199997670949 916
13.4399997666478 932
13.4599997662008 910
13.4799997657537 887
13.4999997653067 965
13.5199997648597 974
13.5399997644126 921
13.5599997639656 919
13.5799997635186 913
13.5999997630715 904
13.6199997626245 910
13.6399997621775 891
13.6599997617304 872
13.6799997612834 928
13.6999997608364 895
13.7199997603893 890
13.7399997599423 915
13.7599997594953 884
13.7799997590482 848
13.7999997586012 807
13.8199997581542 858
13.8399997577071 904
13.8599997572601 859
13.879999756813 878
13.899999756366 847
13.919999755919 816
13.9399997554719 876
13.9599997550249 871
13.9799997545779 857
13.9999997541308 865
14.0199997536838 886
14.0399997532368 892
14.0599997527897 881
14.0799997523427 927
14.0999997518957 864
14.1199997514486 909
14.1399997510016 906
14.1599997505546 913
14.1799997501075 911
14.1999997496605 961
14.2199997492135 962
14.2399997487664 952
14.2599997483194 947
14.2799997478724 969
14.2999997474253 993
14.3199997469783 965
14.3399997465312 956
14.3599997460842 977
14.3799997456372 1043
14.3999997451901 1029
14.4199997447431 1001
14.4399997442961 1071
14.459999743849 1049
14.479999743402 1028
14.499999742955 1007
14.5199997425079 995
14.5399997420609 998
14.5599997416139 892
14.5799997411668 970
14.5999997407198 942
14.6199997402728 954
14.6399997398257 865
14.6599997393787 896
14.6799997389317 849
14.6999997384846 873
14.7199997380376 884
14.7399997375906 808
14.7599997371435 816
14.7799997366965 815
14.7999997362494 852
14.8199997358024 775
14.8399997353554 813
14.8599997349083 857
14.8799997344613 791
14.8999997340143 822
14.9199997335672 810
14.9399997331202 840
14.9599997326732 844
14.9799997322261 823
14.9999997317791 755
15.0199997313321 800
15.039999730885 803
15.059999730438 802
15.079999729991 815
15.0999997295439 839
15.1199997290969 824
15.1399997286499 759
15.1599997282028 788
15.1799997277558 840
15.1999997273088 734
15.2199997268617 792
15.2399997264147 847
15.2599997259676 817
15.2799997255206 807
15.2999997250736 795
15.3199997246265 845
15.3399997241795 798
15.3599997237325 789
15.3799997232854 775
15.3999997228384 833
15.4199997223914 797
15.4399997219443 832
15.4599997214973 797
15.4799997210503 782
15.4999997206032 775
15.5199997201562 786
15.5399997197092 802
15.5599997192621 785
15.5799997188151 835
15.5999997183681 784
15.619999717921 825
15.639999717474 786
15.659999717027 834
15.6799997165799 815
15.6999997161329 797
15.7199997156858 772
15.7399997152388 790
15.7599997147918 844
15.7799997143447 771
15.7999997138977 830
15.8199997134507 822
15.8399997130036 820
15.8599997125566 805
15.8799997121096 840
15.8999997116625 818
15.9199997112155 795
15.9399997107685 767
15.9599997103214 771
15.9799997098744 795
15.9999997094274 838
16.0199997089803 785
16.0399997085333 813
16.0599997080863 799
16.0799997076392 797
16.0999997071922 783
16.1199997067451 824
16.1399997062981 832
16.1599997058511 778
16.179999705404 778
16.199999704957 792
16.21999970451 805
16.2399997040629 832
16.2599997036159 786
16.2799997031689 792
16.2999997027218 833
16.3199997022748 788
16.3399997018278 805
16.3599997013807 858
16.3799997009337 773
16.3999997004867 774
16.4199997000396 767
16.4399996995926 816
16.4599996991456 811
16.4799996986985 820
16.4999996982515 833
16.5199996978045 830
16.5399996973574 843
16.5599996969104 839
16.5799996964633 844
16.5999996960163 815
16.6199996955693 828
16.6399996951222 797
16.6599996946752 820
16.6799996942282 858
16.6999996937811 842
16.7199996933341 874
16.7399996928871 828
16.75999969244 885
16.779999691993 877
16.799999691546 910
16.8199996910989 914
16.8399996906519 923
16.8599996902049 881
16.8799996897578 917
16.8999996893108 938
16.9199996888638 1014
16.9399996884167 1011
16.9599996879697 1132
16.9799996875226 1121
16.9999996870756 1224
17.0199996866286 1222
17.0399996861815 1100
17.0599996857345 1054
17.0799996852875 1035
17.0999996848404 924
17.1199996843934 879
17.1399996839464 860
17.1599996834993 849
17.1799996830523 896
17.1999996826053 883
17.2199996821582 826
17.2399996817112 855
17.2599996812642 851
17.2799996808171 843
17.2999996803701 854
17.3199996799231 860
17.339999679476 846
17.359999679029 856
17.379999678582 858
17.3999996781349 857
17.4199996776879 824
17.4399996772408 856
17.4599996767938 849
17.4799996763468 879
17.4999996758997 811
17.5199996754527 880
17.5399996750057 837
17.5599996745586 892
17.5799996741116 920
17.5999996736646 878
17.6199996732175 891
17.6399996727705 891
17.6599996723235 902
17.6799996718764 930
17.6999996714294 912
17.7199996709824 903
17.7399996705353 946
17.7599996700883 971
17.7799996696413 976
17.7999996691942 966
17.8199996687472 995
17.8399996683002 981
17.8599996678531 973
17.8799996674061 1003
17.899999666959 962
17.919999666512 940
17.939999666065 1004
17.9599996656179 896
17.9799996651709 1001
17.9999996647239 1006
18.0199996642768 999
18.0399996638298 1017
18.0599996633828 1064
18.0799996629357 1019
18.0999996624887 988
18.1199996620417 1029
18.1399996615946 1094
18.1599996611476 1014
18.1799996607006 1075
18.1999996602535 1058
18.2199996598065 1139
18.2399996593595 1075
18.2599996589124 1129
18.2799996584654 1063
18.2999996580184 1080
18.3199996575713 1096
18.3399996571243 1072
18.3599996566772 1081
18.3799996562302 1028
18.3999996557832 980
18.4199996553361 1020
18.4399996548891 1064
18.4599996544421 1027
18.479999653995 1050
18.499999653548 1061
18.519999653101 1037
18.5399996526539 1060
18.5599996522069 1010
18.5799996517599 1092
18.5999996513128 1082
18.6199996508658 1077
18.6399996504188 994
18.6599996499717 1059
18.6799996495247 1037
18.6999996490777 1014
18.7199996486306 931
18.7399996481836 1033
18.7599996477366 1005
18.7799996472895 936
18.7999996468425 950
18.8199996463954 954
18.8399996459484 952
18.8599996455014 985
18.8799996450543 1024
18.8999996446073 939
18.9199996441603 1017
18.9399996437132 976
18.9599996432662 939
18.9799996428192 939
18.9999996423721 1020
19.0199996419251 1014
19.0399996414781 945
19.059999641031 984
19.079999640584 981
19.099999640137 1036
19.1199996396899 968
19.1399996392429 965
19.1599996387959 965
19.1799996383488 983
19.1999996379018 1008
19.2199996374547 1029
19.2399996370077 950
19.2599996365607 1011
19.2799996361136 1035
19.2999996356666 988
19.3199996352196 999
19.3399996347725 1058
19.3599996343255 1025
19.3799996338785 1018
19.3999996334314 996
19.4199996329844 1094
19.4399996325374 1068
19.4599996320903 1015
19.4799996316433 1046
19.4999996311963 1064
19.5199996307492 1062
19.5399996303022 1067
19.5599996298552 1049
19.5799996294081 1082
19.5999996289611 1128
19.6199996285141 1097
19.639999628067 1143
19.65999962762 1152
19.6799996271729 1098
19.6999996267259 1183
19.7199996262789 1168
19.7399996258318 1235
19.7599996253848 1301
19.7799996249378 1278
19.7999996244907 1396
19.8199996240437 1435
19.8399996235967 1468
19.8599996231496 1548
19.8799996227026 1692
19.8999996222556 1763
19.9199996218085 1874
19.9399996213615 1937
19.9599996209145 1944
19.9799996204674 1971
19.9999996200204 1871
