3 1946
3.01999999955297 1920
3.03999999910593 1670
3.0599999986589 1599
3.07999999821186 1562
3.09999999776483 1472
3.11999999731779 1421
3.13999999687076 1347
3.15999999642372 1388
3.17999999597669 1400
3.19999999552965 1294
3.21999999508262 1371
3.23999999463558 1275
3.25999999418855 1354
3.27999999374151 1285
3.29999999329448 1347
3.31999999284744 1239
3.33999999240041 1368
3.35999999195337 1315
3.37999999150634 1225
3.3999999910593 1233
3.41999999061227 1217
3.43999999016523 1190
3.4599999897182 1230
3.47999998927116 1267
3.49999998882413 1255
3.51999998837709 1248
3.53999998793006 1202
3.55999998748302 1210
3.57999998703599 1206
3.59999998658895 1166
3.61999998614192 1134
3.63999998569489 1176
3.65999998524785 1158
3.67999998480082 1113
3.69999998435378 1146
3.71999998390675 1115
3.73999998345971 1209
3.75999998301268 1120
3.77999998256564 1203
3.79999998211861 1095
3.81999998167157 1084
3.83999998122454 1108
3.8599999807775 1104
3.87999998033047 1066
3.89999997988343 1129
3.9199999794364 1096
3.93999997898936 1086
3.95999997854233 1080
3.97999997809529 1108
3.99999997764826 1061
4.01999997720122 1133
4.03999997675419 1112
4.05999997630715 1027
4.07999997586012 1096
4.09999997541308 1060
4.11999997496605 1059
4.13999997451901 1021
4.15999997407198 1033
4.17999997362494 1043
4.19999997317791 1070
4.21999997273087 984
4.23999997228384 1054
4.25999997183681 1094
4.27999997138977 1023
4.29999997094274 994
4.3199999704957 1018
4.33999997004867 998
4.35999996960163 1070
4.3799999691546 975
4.39999996870756 995
4.41999996826053 1037
4.43999996781349 985
4.45999996736646 998
4.47999996691942 1003
4.49999996647239 984
4.51999996602535 968
4.53999996557832 928
4.55999996513128 1034
4.57999996468425 986
4.59999996423721 947
4.61999996379018 980
4.63999996334314 926
4.65999996289611 971
4.67999996244907 987
4.69999996200204 986
4.719999961555 992
4.73999996110797 914
4.75999996066093 944
4.7799999602139 1057
4.79999995976686 973
4.81999995931983 957
4.83999995887279 952
4.85999995842576 947
4.87999995797873 846
4.89999995753169 949
4.91999995708466 933
4.93999995663762 956
4.95999995619059 951
4.97999995574355 922
4.99999995529652 901
5.01999995484948 939
5.03999995440245 938
5.05999995395541 905
5.07999995350838 956
5.09999995306134 937
5.11999995261431 932
5.13999995216727 934
5.15999995172024 920
5.1799999512732 879
5.19999995082617 879
5.21999995037913 874
5.2399999499321 848
5.25999994948506 925
5.27999994903803 879
5.29999994859099 863
5.31999994814396 896
5.33999994769692 854
5.35999994724989 871
5.37999994680285 892
5.39999994635582 864
5.41999994590878 846
5.43999994546175 882
5.45999994501471 916
5.47999994456768 900
5.49999994412065 934
5.51999994367361 923
5.53999994322658 845
5.55999994277954 844
5.57999994233251 856
5.59999994188547 916
5.61999994143844 858
5.6399999409914 799
5.65999994054437 840
5.67999994009733 937
5.6999999396503 842
5.71999993920326 893
5.73999993875623 899
5.75999993830919 870
5.77999993786216 817
5.79999993741512 768
5.81999993696809 829
5.83999993652105 842
5.85999993607402 812
5.87999993562698 795
5.89999993517995 857
5.91999993473291 801
5.93999993428588 769
5.95999993383884 809
5.97999993339181 767
5.99999993294477 788
6.01999993249774 782
6.0399999320507 726
6.05999993160367 734
6.07999993115663 766
6.0999999307096 744
6.11999993026257 715
6.13999992981553 784
6.1599999293685 739
6.17999992892146 740
6.19999992847443 676
6.21999992802739 688
6.23999992758036 745
6.25999992713332 676
6.27999992668629 692
6.29999992623925 690
6.31999992579222 662
6.33999992534518 649
6.35999992489815 660
6.37999992445111 674
6.39999992400408 669
6.41999992355704 703
6.43999992311001 642
6.45999992266297 658
6.47999992221594 667
6.4999999217689 632
6.51999992132187 659
6.53999992087483 643
6.5599999204278 635
6.57999991998076 648
6.59999991953373 634
6.61999991908669 642
6.63999991863966 594
6.65999991819262 620
6.67999991774559 638
6.69999991729855 616
6.71999991685152 617
6.73999991640449 588
6.75999991595745 596
6.77999991551042 603
6.79999991506338 536
6.81999991461635 614
6.83999991416931 621
6.85999991372228 613
6.87999991327524 583
6.89999991282821 634
6.91999991238117 549
6.93999991193414 621
6.9599999114871 602
6.97999991104007 575
6.99999991059303 558
7.019999910146 603
7.03999990969896 565
7.05999990925193 564
7.07999990880489 570
7.09999990835786 511
7.11999990791082 543
7.13999990746379 608
7.15999990701675 575
7.17999990656972 567
7.19999990612268 567
7.21999990567565 547
7.23999990522861 549
7.25999990478158 566
7.27999990433454 573
7.29999990388751 566
7.31999990344047 589
7.33999990299344 545
7.35999990254641 544
7.37999990209937 555
7.39999990165234 556
7.4199999012053 561
7.43999990075827 494
7.45999990031123 546
7.4799998998642 538
7.49999989941716 513
7.51999989897013 535
7.53999989852309 478
7.55999989807606 595
7.57999989762902 519
7.59999989718199 572
7.61999989673495 519
7.63999989628792 525
7.65999989584088 510
7.67999989539385 492
7.69999989494681 527
7.71999989449978 520
7.73999989405274 524
7.75999989360571 515
7.77999989315867 520
7.79999989271164 497
7.8199998922646 470
7.83999989181757 547
7.85999989137053 529
7.8799998909235 529
7.89999989047646 548
7.91999989002943 499
7.9399998895824 558
7.95999988913536 510
7.97999988868833 540
7.99999988824129 505
8.01999988779426 494
8.03999988734722 552
8.05999988690019 489
8.07999988645315 518
8.09999988600612 516
8.11999988555908 505
8.13999988511205 496
8.15999988466501 506
8.17999988421798 527
8.19999988377094 475
8.21999988332391 471
8.23999988287687 520
8.25999988242984 500
8.2799998819828 513
8.29999988153577 485
8.31999988108873 495
8.3399998806417 516
8.35999988019466 468
8.37999987974763 516
8.39999987930059 511
8.41999987885356 503
8.43999987840652 518
8.45999987795949 505
8.47999987751245 506
8.49999987706542 481
8.51999987661839 459
8.53999987617135 481
8.55999987572432 462
8.57999987527728 518
8.59999987483025 490
8.61999987438321 497
8.63999987393618 475
8.65999987348914 483
8.67999987304211 493
8.69999987259507 467
8.71999987214804 469
8.739999871701 496
8.75999987125397 473
8.77999987080693 508
8.7999998703599 439
8.81999986991286 461
8.83999986946583 482
8.85999986901879 500
8.87999986857176 516
8.89999986812472 519
8.91999986767769 471
8.93999986723065 500
8.95999986678362 486
8.97999986633658 503
8.99999986588955 492
9.01999986544251 472
9.03999986499548 489
9.05999986454844 462
9.07999986410141 487
9.09999986365438 431
9.11999986320734 483
9.13999986276031 457
9.15999986231327 499
9.17999986186624 468
9.1999998614192 465
9.21999986097217 455
9.23999986052513 501
9.2599998600781 487
9.27999985963106 488
9.29999985918403 510
9.31999985873699 498
9.33999985828996 487
9.35999985784292 498
9.37999985739589 504
9.39999985694885 477
9.41999985650182 540
9.43999985605478 511
9.45999985560775 549
9.47999985516071 472
9.49999985471368 532
9.51999985426664 486
9.53999985381961 487
9.55999985337257 491
9.57999985292554 456
9.5999998524785 493
9.61999985203147 547
9.63999985158443 466
9.6599998511374 487
9.67999985069037 486
9.69999985024333 438
9.7199998497963 486
9.73999984934926 484
9.75999984890223 496
9.77999984845519 460
9.79999984800816 423
9.81999984756112 479
9.83999984711409 493
9.85999984666705 477
9.87999984622002 490
9.89999984577298 491
9.91999984532595 450
9.93999984487891 447
9.95999984443188 441
9.97999984398484 454
9.99999984353781 458
10.0199998430908 491
10.0399998426437 474
10.0599998421967 465
10.0799998417497 465
10.0999998413026 436
10.1199998408556 443
10.1399998404086 467
10.1599998399615 452
10.1799998395145 464
10.1999998390675 439
10.2199998386204 483
10.2399998381734 424
10.2599998377264 429
10.2799998372793 412
10.2999998368323 422
10.3199998363853 454
10.3399998359382 463
10.3599998354912 469
10.3799998350441 446
10.3999998345971 439
10.4199998341501 426
10.439999833703 445
10.459999833256 432
10.479999832809 420
10.4999998323619 425
10.5199998319149 438
10.5399998314679 440
10.5599998310208 407
10.5799998305738 443
10.5999998301268 447
10.6199998296797 418
10.6399998292327 430
10.6599998287857 486
10.6799998283386 444
10.6999998278916 463
10.7199998274446 455
10.7399998269975 455
10.7599998265505 420
10.7799998261034 487
10.7999998256564 438
10.8199998252094 420
10.8399998247623 449
10.8599998243153 423
10.8799998238683 415
10.8999998234212 442
10.9199998229742 436
10.9399998225272 424
10.9599998220801 429
10.9799998216331 434
10.9999998211861 412
11.019999820739 413
11.039999820292 420
11.059999819845 424
11.0799998193979 408
11.0999998189509 449
11.1199998185039 446
11.1399998180568 403
11.1599998176098 450
11.1799998171628 448
11.1999998167157 390
11.2199998162687 416
11.2399998158216 411
11.2599998153746 417
11.2799998149276 404
11.2999998144805 441
11.3199998140335 410
11.3399998135865 436
11.3599998131394 416
11.3799998126924 438
11.3999998122454 431
11.4199998117983 469
11.4399998113513 416
11.4599998109043 426
11.4799998104572 422
11.4999998100102 434
11.5199998095632 445
11.5399998091161 431
11.5599998086691 471
11.5799998082221 425
11.599999807775 432
11.619999807328 440
11.639999806881 422
11.6599998064339 425
11.6799998059869 425
11.6999998055398 460
11.7199998050928 483
11.7399998046458 422
11.7599998041987 444
11.7799998037517 433
11.7999998033047 395
11.8199998028576 405
11.8399998024106 416
11.8599998019636 425
11.8799998015165 411
11.8999998010695 431
11.9199998006225 421
11.9399998001754 427
11.9599997997284 400
11.9799997992814 425
11.9999997988343 402
12.0199997983873 435
12.0399997979403 430
12.0599997974932 417
12.0799997970462 441
12.0999997965992 401
12.1199997961521 415
12.1399997957051 434
12.159999795258 432
12.179999794811 398
12.199999794364 424
12.2199997939169 422
12.2399997934699 399
12.2599997930229 419
12.2799997925758 443
12.2999997921288 440
12.3199997916818 400
12.3399997912347 409
12.3599997907877 410
12.3799997903407 459
12.3999997898936 427
12.4199997894466 409
12.4399997889996 402
12.4599997885525 406
12.4799997881055 405
12.4999997876585 411
12.5199997872114 447
12.5399997867644 399
12.5599997863173 421
12.5799997858703 413
12.5999997854233 405
12.6199997849762 419
12.6399997845292 393
12.6599997840822 439
12.6799997836351 406
12.6999997831881 442
12.7199997827411 400
12.739999782294 393
12.759999781847 429
12.7799997814 423
12.7999997809529 439
12.8199997805059 416
12.8399997800589 437
12.8599997796118 407
12.8799997791648 411
12.8999997787178 445
12.9199997782707 409
12.9399997778237 444
12.9599997773767 436
12.9799997769296 432
12.9999997764826 430
13.0199997760355 388
13.0399997755885 416
13.0599997751415 432
13.0799997746944 416
13.0999997742474 426
13.1199997738004 428
13.1399997733533 455
13.1599997729063 432
13.1799997724593 421
13.1999997720122 447
13.2199997715652 438
13.2399997711182 405
13.2599997706711 465
13.2799997702241 444
13.2999997697771 413
13.31999976933 457
13.339999768883 426
13.359999768436 443
13.3799997679889 445
13.3999997675419 410
13.4199997670949 404
13.4399997666478 436
13.4599997662008 424
13.4799997657537 431
13.4999997653067 447
13.5199997648597 441
13.5399997644126 429
13.5599997639656 409
13.5799997635186 408
13.5999997630715 458
13.6199997626245 454
13.6399997621775 396
13.6599997617304 438
13.6799997612834 431
13.6999997608364 430
13.7199997603893 410
13.7399997599423 442
13.7599997594953 427
13.7799997590482 439
13.7999997586012 457
13.8199997581542 438
13.8399997577071 429
13.8599997572601 430
13.879999756813 447
13.899999756366 434
13.919999755919 449
13.9399997554719 447
13.9599997550249 424
13.9799997545779 448
13.9999997541308 478
14.0199997536838 440
14.0399997532368 437
14.0599997527897 437
14.0799997523427 472
14.0999997518957 467
14.1199997514486 485
14.1399997510016 464
14.1599997505546 447
14.1799997501075 428
14.1999997496605 445
14.2199997492135 478
14.2399997487664 436
14.2599997483194 427
14.2799997478724 449
14.2999997474253 469
14.3199997469783 460
14.3399997465312 458
14.3599997460842 421
14.3799997456372 444
14.3999997451901 447
14.4199997447431 418
14.4399997442961 476
14.459999743849 441
14.479999743402 472
14.499999742955 456
14.5199997425079 486
14.5399997420609 506
14.5599997416139 454
14.5799997411668 460
14.5999997407198 529
14.6199997402728 452
14.6399997398257 464
14.6599997393787 459
14.6799997389317 435
14.6999997384846 462
14.7199997380376 441
14.7399997375906 457
14.7599997371435 479
14.7799997366965 454
14.7999997362494 442
14.8199997358024 463
14.8399997353554 470
14.8599997349083 464
14.8799997344613 479
14.8999997340143 415
14.9199997335672 444
14.9399997331202 488
14.9599997326732 464
14.9799997322261 457
14.9999997317791 475
15.0199997313321 486
15.039999730885 477
15.059999730438 451
15.079999729991 449
15.0999997295439 478
15.1199997290969 460
15.1399997286499 485
15.1599997282028 443
15.1799997277558 461
15.1999997273088 488
15.2199997268617 483
15.2399997264147 490
15.2599997259676 470
15.2799997255206 455
15.2999997250736 459
15.3199997246265 459
15.3399997241795 524
15.3599997237325 507
15.3799997232854 492
15.3999997228384 520
15.4199997223914 493
15.4399997219443 460
15.4599997214973 472
15.4799997210503 449
15.4999997206032 493
15.5199997201562 487
15.5399997197092 467
15.5599997192621 508
15.5799997188151 492
15.5999997183681 452
15.619999717921 488
15.639999717474 466
15.659999717027 522
15.6799997165799 480
15.6999997161329 461
15.7199997156858 493
15.7399997152388 509
15.7599997147918 454
15.7799997143447 504
15.7999997138977 498
15.8199997134507 493
15.8399997130036 512
15.8599997125566 501
15.8799997121096 507
15.8999997116625 483
15.9199997112155 558
15.9399997107685 491
15.9599997103214 499
15.9799997098744 511
15.9999997094274 503
16.0199997089803 496
16.0399997085333 499
16.0599997080863 496
16.0799997076392 495
16.0999997071922 495
16.1199997067451 515
16.1399997062981 505
16.1599997058511 513
16.179999705404 517
16.199999704957 500
16.21999970451 526
16.2399997040629 460
16.2599997036159 522
16.2799997031689 512
16.2999997027218 518
16.3199997022748 512
16.3399997018278 526
16.3599997013807 520
16.3799997009337 529
16.3999997004867 538
16.4199997000396 514
16.4399996995926 549
16.4599996991456 509
16.4799996986985 483
16.4999996982515 501
16.5199996978045 523
16.5399996973574 534
16.5599996969104 499
16.5799996964633 518
16.5999996960163 520
16.6199996955693 543
16.6399996951222 510
16.6599996946752 489
16.6799996942282 528
16.6999996937811 545
16.7199996933341 535
16.7399996928871 546
16.75999969244 545
16.779999691993 520
16.799999691546 522
16.8199996910989 585
16.8399996906519 592
16.8599996902049 586
16.8799996897578 599
16.8999996893108 626
16.9199996888638 618
16.9399996884167 626
16.9599996879697 623
16.9799996875226 660
16.9999996870756 677
17.0199996866286 698
17.0399996861815 733
17.0599996857345 692
17.0799996852875 696
17.0999996848404 655
17.1199996843934 703
17.1399996839464 640
17.1599996834993 599
17.1799996830523 633
17.1999996826053 632
17.2199996821582 627
17.2399996817112 602
17.2599996812642 599
17.2799996808171 562
17.2999996803701 585
17.3199996799231 620
17.339999679476 565
17.359999679029 554
17.379999678582 580
17.3999996781349 616
17.4199996776879 560
17.4399996772408 634
17.4599996767938 630
17.4799996763468 616
17.4999996758997 587
17.5199996754527 638
17.5399996750057 596
17.5599996745586 551
17.5799996741116 567
17.5999996736646 597
17.6199996732175 576
17.6399996727705 558
17.6599996723235 592
17.6799996718764 605
17.6999996714294 587
17.7199996709824 591
17.7399996705353 599
17.7599996700883 573
17.7799996696413 591
17.7999996691942 626
17.8199996687472 582
17.8399996683002 627
17.8599996678531 580
17.8799996674061 571
17.899999666959 583
17.919999666512 598
17.939999666065 599
17.9599996656179 610
17.9799996651709 661
17.9999996647239 587
18.0199996642768 566
18.0399996638298 599
18.0599996633828 588
18.0799996629357 615
18.0999996624887 611
18.1199996620417 644
18.1399996615946 582
18.1599996611476 604
18.1799996607006 610
18.1999996602535 591
18.2199996598065 664
18.2399996593595 615
18.2599996589124 612
18.2799996584654 579
18.2999996580184 609
18.3199996575713 589
18.3399996571243 642
18.3599996566772 647
18.3799996562302 633
18.3999996557832 638
18.4199996553361 681
18.4399996548891 598
18.4599996544421 618
18.479999653995 669
18.499999653548 655
18.519999653101 623
18.5399996526539 596
18.5599996522069 606
18.5799996517599 637
18.5999996513128 645
18.6199996508658 661
18.6399996504188 724
18.6599996499717 711
18.6799996495247 654
18.6999996490777 694
18.7199996486306 702
18.7399996481836 662
18.7599996477366 664
18.7799996472895 664
18.7999996468425 679
18.8199996463954 691
18.8399996459484 663
18.8599996455014 594
18.8799996450543 653
18.8999996446073 633
18.9199996441603 700
18.9399996437132 692
18.9599996432662 686
18.9799996428192 706
18.9999996423721 682
19.0199996419251 684
19.0399996414781 628
19.059999641031 721
19.079999640584 667
19.099999640137 715
19.1199996396899 707
19.1399996392429 684
19.1599996387959 670
19.1799996383488 657
19.1999996379018 690
19.2199996374547 704
19.2399996370077 641
19.2599996365607 722
19.2799996361136 703
19.2999996356666 702
19.3199996352196 680
19.3399996347725 702
19.3599996343255 650
19.3799996338785 713
19.3999996334314 702
19.4199996329844 682
19.4399996325374 735
19.4599996320903 689
19.4799996316433 738
19.4999996311963 756
19.5199996307492 678
19.5399996303022 728
19.5599996298552 725
19.5799996294081 722
19.5999996289611 720
19.6199996285141 689
19.639999628067 734
19.65999962762 699
19.6799996271729 702
19.6999996267259 708
19.7199996262789 704
19.7399996258318 683
19.7599996253848 732
19.7799996249378 710
19.7999996244907 659
19.8199996240437 739
19.8399996235967 756
19.8599996231496 795
19.8799996227026 753
19.8999996222556 744
19.9199996218085 749
19.9399996213615 751
19.9599996209145 786
19.9799996204674 712
19.9999996200204 757
