3 2457
3.01999999955297 2221
3.03999999910593 2138
3.0599999986589 1970
3.07999999821186 1944
3.09999999776483 1784
3.11999999731779 1708
3.13999999687076 1722
3.15999999642372 1683
3.17999999597669 1691
3.19999999552965 1635
3.21999999508262 1642
3.23999999463558 1500
3.25999999418855 1605
3.27999999374151 1567
3.29999999329448 1504
3.31999999284744 1621
3.33999999240041 1573
3.35999999195337 1543
3.37999999150634 1513
3.3999999910593 1457
3.41999999061227 1428
3.43999999016523 1483
3.4599999897182 1422
3.47999998927116 1437
3.49999998882413 1427
3.51999998837709 1509
3.53999998793006 1343
3.55999998748302 1381
3.57999998703599 1375
3.59999998658895 1336
3.61999998614192 1348
3.63999998569489 1333
3.65999998524785 1327
3.67999998480082 1337
3.69999998435378 1318
3.71999998390675 1226
3.73999998345971 1362
3.75999998301268 1333
3.77999998256564 1253
3.79999998211861 1260
3.81999998167157 1262
3.83999998122454 1241
3.8599999807775 1273
3.87999998033047 1237
3.89999997988343 1215
3.9199999794364 1171
3.93999997898936 1200
3.95999997854233 1215
3.97999997809529 1165
3.99999997764826 1184
4.01999997720122 1145
4.03999997675419 1133
4.05999997630715 1206
4.07999997586012 1184
4.09999997541308 1186
4.11999997496605 1220
4.13999997451901 1147
4.15999997407198 1176
4.17999997362494 1175
4.19999997317791 1132
4.21999997273087 1214
4.23999997228384 1196
4.25999997183681 1129
4.27999997138977 1082
4.29999997094274 1133
4.3199999704957 1111
4.33999997004867 1070
4.35999996960163 1128
4.3799999691546 1123
4.39999996870756 1071
4.41999996826053 1103
4.43999996781349 1131
4.45999996736646 1120
4.47999996691942 1123
4.49999996647239 1058
4.51999996602535 1084
4.53999996557832 1132
4.55999996513128 1153
4.57999996468425 1076
4.59999996423721 1136
4.61999996379018 1130
4.63999996334314 1067
4.65999996289611 1069
4.67999996244907 1118
4.69999996200204 1120
4.719999961555 1147
4.73999996110797 1162
4.75999996066093 1105
4.7799999602139 1088
4.79999995976686 1126
4.81999995931983 1081
4.83999995887279 1087
4.85999995842576 1068
4.87999995797873 1016
4.89999995753169 1085
4.91999995708466 997
4.93999995663762 1059
4.95999995619059 1090
4.97999995574355 1044
4.99999995529652 1041
5.01999995484948 1097
5.03999995440245 1047
5.05999995395541 1052
5.07999995350838 1047
5.09999995306134 1082
5.11999995261431 1107
5.13999995216727 1101
5.15999995172024 1095
5.1799999512732 1016
5.19999995082617 1121
5.21999995037913 1102
5.2399999499321 1148
5.25999994948506 1135
5.27999994903803 1188
5.29999994859099 1137
5.31999994814396 1168
5.33999994769692 1236
5.35999994724989 1146
5.37999994680285 1190
5.39999994635582 1296
5.41999994590878 1329
5.43999994546175 1357
5.45999994501471 1260
5.47999994456768 1157
5.49999994412065 1034
5.51999994367361 1010
5.53999994322658 1027
5.55999994277954 961
5.57999994233251 958
5.59999994188547 932
5.61999994143844 924
5.6399999409914 945
5.65999994054437 964
5.67999994009733 889
5.6999999396503 889
5.71999993920326 911
5.73999993875623 857
5.75999993830919 883
5.77999993786216 869
5.79999993741512 851
5.81999993696809 869
5.83999993652105 881
5.85999993607402 859
5.87999993562698 873
5.89999993517995 839
5.91999993473291 820
5.93999993428588 837
5.95999993383884 852
5.97999993339181 850
5.99999993294477 831
6.01999993249774 818
6.0399999320507 812
6.05999993160367 772
6.07999993115663 820
6.0999999307096 798
6.11999993026257 818
6.13999992981553 826
6.1599999293685 825
6.17999992892146 810
6.19999992847443 775
6.21999992802739 792
6.23999992758036 769
6.25999992713332 793
6.27999992668629 823
6.29999992623925 748
6.31999992579222 770
6.33999992534518 750
6.35999992489815 828
6.37999992445111 803
6.39999992400408 806
6.41999992355704 706
6.43999992311001 766
6.45999992266297 726
6.47999992221594 754
6.4999999217689 787
6.51999992132187 708
6.53999992087483 738
6.5599999204278 738
6.57999991998076 766
6.59999991953373 788
6.61999991908669 727
6.63999991863966 726
6.65999991819262 725
6.67999991774559 731
6.69999991729855 734
6.71999991685152 753
6.73999991640449 721
6.75999991595745 657
6.77999991551042 729
6.79999991506338 734
6.81999991461635 689
6.83999991416931 703
6.85999991372228 756
6.87999991327524 752
6.89999991282821 700
6.91999991238117 679
6.93999991193414 739
6.9599999114871 743
6.97999991104007 758
6.99999991059303 753
7.019999910146 710
7.03999990969896 744
7.05999990925193 760
7.07999990880489 706
7.09999990835786 680
7.11999990791082 771
7.13999990746379 723
7.15999990701675 731
7.17999990656972 715
7.19999990612268 757
7.21999990567565 702
7.23999990522861 682
7.25999990478158 662
7.27999990433454 734
7.29999990388751 706
7.31999990344047 711
7.33999990299344 663
7.35999990254641 601
7.37999990209937 677
7.39999990165234 689
7.4199999012053 662
7.43999990075827 710
7.45999990031123 686
7.4799998998642 710
7.49999989941716 691
7.51999989897013 708
7.53999989852309 666
7.55999989807606 739
7.57999989762902 693
7.59999989718199 678
7.61999989673495 725
7.63999989628792 667
7.65999989584088 715
7.67999989539385 676
7.69999989494681 668
7.71999989449978 666
7.73999989405274 684
7.75999989360571 706
7.77999989315867 709
7.79999989271164 687
7.8199998922646 653
7.83999989181757 683
7.85999989137053 673
7.8799998909235 721
7.89999989047646 677
7.91999989002943 661
7.9399998895824 637
7.95999988913536 630
7.97999988868833 693
7.99999988824129 649
8.01999988779426 652
8.03999988734722 667
8.05999988690019 667
8.07999988645315 694
8.09999988600612 643
8.11999988555908 637
8.13999988511205 610
8.15999988466501 687
8.17999988421798 649
8.19999988377094 703
8.21999988332391 687
8.23999988287687 633
8.25999988242984 691
8.2799998819828 650
8.29999988153577 652
8.31999988108873 686
8.3399998806417 661
8.35999988019466 651
8.37999987974763 637
8.39999987930059 666
8.41999987885356 692
8.43999987840652 644
8.45999987795949 653
8.47999987751245 689
8.49999987706542 695
8.51999987661839 640
8.53999987617135 662
8.55999987572432 640
8.57999987527728 664
8.59999987483025 625
8.61999987438321 702
8.63999987393618 629
8.65999987348914 695
8.67999987304211 643
8.69999987259507 653
8.71999987214804 650
8.739999871701 703
8.75999987125397 609
8.77999987080693 632
8.7999998703599 634
8.81999986991286 682
8.83999986946583 657
8.85999986901879 662
8.87999986857176 638
8.89999986812472 671
8.91999986767769 689
8.93999986723065 671
8.95999986678362 625
8.97999986633658 663
8.99999986588955 668
9.01999986544251 697
9.03999986499548 662
9.05999986454844 669
9.07999986410141 684
9.09999986365438 659
9.11999986320734 681
9.13999986276031 713
9.15999986231327 690
9.17999986186624 692
9.1999998614192 718
9.21999986097217 676
9.23999986052513 660
9.2599998600781 701
9.27999985963106 716
9.29999985918403 689
9.31999985873699 762
9.33999985828996 771
9.35999985784292 765
9.37999985739589 748
9.39999985694885 687
9.41999985650182 725
9.43999985605478 726
9.45999985560775 678
9.47999985516071 688
9.49999985471368 663
9.51999985426664 674
9.53999985381961 664
9.55999985337257 615
9.57999985292554 643
9.5999998524785 679
9.61999985203147 685
9.63999985158443 573
9.6599998511374 611
9.67999985069037 638
9.69999985024333 606
9.7199998497963 650
9.73999984934926 624
9.75999984890223 660
9.77999984845519 633
9.79999984800816 677
9.81999984756112 636
9.83999984711409 598
9.85999984666705 640
9.87999984622002 586
9.89999984577298 666
9.91999984532595 595
9.93999984487891 621
9.95999984443188 652
9.97999984398484 590
9.99999984353781 579
10.0199998430908 598
10.0399998426437 569
10.0599998421967 637
10.0799998417497 627
10.0999998413026 640
10.1199998408556 650
10.1399998404086 606
10.1599998399615 595
10.1799998395145 590
10.1999998390675 616
10.2199998386204 613
10.2399998381734 643
10.2599998377264 595
10.2799998372793 631
10.2999998368323 589
10.3199998363853 611
10.3399998359382 674
10.3599998354912 636
10.3799998350441 604
10.3999998345971 666
10.4199998341501 599
10.439999833703 608
10.459999833256 581
10.479999832809 610
10.4999998323619 569
10.5199998319149 611
10.5399998314679 630
10.5599998310208 642
10.5799998305738 633
10.5999998301268 656
10.6199998296797 633
10.6399998292327 603
10.6599998287857 628
10.6799998283386 670
10.6999998278916 645
10.7199998274446 658
10.7399998269975 684
10.7599998265505 661
10.7799998261034 671
10.7999998256564 677
10.8199998252094 624
10.8399998247623 636
10.8599998243153 632
10.8799998238683 617
10.8999998234212 600
10.9199998229742 650
10.9399998225272 609
10.9599998220801 598
10.9799998216331 665
10.9999998211861 591
11.019999820739 608
11.039999820292 632
11.059999819845 606
11.0799998193979 590
11.0999998189509 623
11.1199998185039 531
11.1399998180568 617
11.1599998176098 633
11.1799998171628 637
11.1999998167157 567
11.2199998162687 598
11.2399998158216 602
11.2599998153746 610
11.2799998149276 627
11.2999998144805 577
11.3199998140335 607
11.3399998135865 597
11.3599998131394 601
11.3799998126924 598
11.3999998122454 593
11.4199998117983 640
11.4399998113513 590
11.4599998109043 619
11.4799998104572 595
11.4999998100102 611
11.5199998095632 608
11.5399998091161 595
11.5599998086691 596
11.5799998082221 613
11.599999807775 589
11.619999807328 641
11.639999806881 633
11.6599998064339 633
11.6799998059869 588
11.6999998055398 586
11.7199998050928 633
11.7399998046458 615
11.7599998041987 635
11.7799998037517 624
11.7999998033047 592
11.8199998028576 578
11.8399998024106 618
11.8599998019636 605
11.8799998015165 573
11.8999998010695 614
11.9199998006225 630
11.9399998001754 602
11.9599997997284 633
11.9799997992814 620
11.9999997988343 614
12.0199997983873 637
12.0399997979403 626
12.0599997974932 608
12.0799997970462 602
12.0999997965992 606
12.1199997961521 609
12.1399997957051 613
12.159999795258 596
12.179999794811 598
12.199999794364 620
12.2199997939169 616
12.2399997934699 608
12.2599997930229 590
12.2799997925758 586
12.2999997921288 585
12.3199997916818 617
12.3399997912347 654
12.3599997907877 670
12.3799997903407 644
12.3999997898936 619
12.4199997894466 644
12.4399997889996 633
12.4599997885525 636
12.4799997881055 609
12.4999997876585 657
12.5199997872114 573
12.5399997867644 598
12.5599997863173 624
12.5799997858703 574
12.5999997854233 579
12.6199997849762 617
12.6399997845292 645
12.6599997840822 651
12.6799997836351 632
12.6999997831881 657
12.7199997827411 629
12.739999782294 658
12.759999781847 642
12.7799997814 602
12.7999997809529 661
12.8199997805059 577
12.8399997800589 617
12.8599997796118 640
12.8799997791648 688
12.8999997787178 664
12.9199997782707 609
12.9399997778237 624
12.9599997773767 666
12.9799997769296 640
12.9999997764826 652
13.0199997760355 637
13.0399997755885 591
13.0599997751415 660
13.0799997746944 620
13.0999997742474 616
13.1199997738004 653
13.1399997733533 612
13.1599997729063 576
13.1799997724593 598
13.1999997720122 629
13.2199997715652 681
13.2399997711182 699
13.2599997706711 706
13.2799997702241 677
13.2999997697771 676
13.31999976933 646
13.339999768883 641
13.359999768436 680
13.3799997679889 636
13.3999997675419 640
13.4199997670949 654
13.4399997666478 660
13.4599997662008 675
13.4799997657537 645
13.4999997653067 645
13.5199997648597 708
13.5399997644126 687
13.5599997639656 686
13.5799997635186 674
13.5999997630715 642
13.6199997626245 669
13.6399997621775 642
13.6599997617304 635
13.6799997612834 625
13.6999997608364 641
13.7199997603893 659
13.7399997599423 709
13.7599997594953 656
13.7799997590482 642
13.7999997586012 697
13.8199997581542 707
13.8399997577071 679
13.8599997572601 689
13.879999756813 657
13.899999756366 688
13.919999755919 702
13.9399997554719 688
13.9599997550249 685
13.9799997545779 681
13.9999997541308 693
14.0199997536838 668
14.0399997532368 689
14.0599997527897 679
14.0799997523427 678
14.0999997518957 658
14.1199997514486 713
14.1399997510016 671
14.1599997505546 687
14.1799997501075 723
14.1999997496605 723
14.2199997492135 722
14.2399997487664 695
14.2599997483194 700
14.2799997478724 686
14.2999997474253 677
14.3199997469783 697
14.3399997465312 696
14.3599997460842 731
14.3799997456372 743
14.3999997451901 679
14.4199997447431 698
14.4399997442961 687
14.459999743849 715
14.479999743402 716
14.499999742955 708
14.5199997425079 756
14.5399997420609 694
14.5599997416139 645
14.5799997411668 696
14.5999997407198 693
14.6199997402728 698
14.6399997398257 719
14.6599997393787 710
14.6799997389317 705
14.6999997384846 721
14.7199997380376 700
14.7399997375906 734
14.7599997371435 707
14.7799997366965 726
14.7999997362494 712
14.8199997358024 703
14.8399997353554 766
14.8599997349083 727
14.8799997344613 742
14.8999997340143 757
14.9199997335672 751
14.9399997331202 712
14.9599997326732 710
14.9799997322261 758
14.9999997317791 710
15.0199997313321 748
15.039999730885 753
15.059999730438 751
15.079999729991 737
15.0999997295439 756
15.1199997290969 794
15.1399997286499 728
15.1599997282028 743
15.1799997277558 769
15.1999997273088 748
15.2199997268617 750
15.2399997264147 766
15.2599997259676 758
15.2799997255206 740
15.2999997250736 737
15.3199997246265 759
15.3399997241795 769
15.3599997237325 764
15.3799997232854 746
15.3999997228384 806
15.4199997223914 809
15.4399997219443 747
15.4599997214973 784
15.4799997210503 799
15.4999997206032 748
15.5199997201562 759
15.5399997197092 822
15.5599997192621 736
15.5799997188151 809
15.5999997183681 807
15.619999717921 794
15.639999717474 784
15.659999717027 766
15.6799997165799 785
15.6999997161329 812
15.7199997156858 807
15.7399997152388 785
15.7599997147918 810
15.7799997143447 831
15.7999997138977 740
15.8199997134507 781
15.8399997130036 790
15.8599997125566 785
15.8799997121096 857
15.8999997116625 810
15.9199997112155 824
15.9399997107685 825
15.9599997103214 777
15.9799997098744 787
15.9999997094274 820
16.0199997089803 841
16.0399997085333 778
16.0599997080863 817
16.0799997076392 803
16.0999997071922 795
16.1199997067451 825
16.1399997062981 828
16.1599997058511 800
16.179999705404 815
16.199999704957 810
16.21999970451 867
16.2399997040629 833
16.2599997036159 825
16.2799997031689 859
16.2999997027218 830
16.3199997022748 937
16.3399997018278 821
16.3599997013807 842
16.3799997009337 857
16.3999997004867 888
16.4199997000396 848
16.4399996995926 841
16.4599996991456 854
16.4799996986985 860
16.4999996982515 875
16.5199996978045 965
16.5399996973574 832
16.5599996969104 829
16.5799996964633 926
16.5999996960163 892
16.6199996955693 907
16.6399996951222 890
16.6599996946752 819
16.6799996942282 864
16.6999996937811 929
16.7199996933341 902
16.7399996928871 938
16.75999969244 948
16.779999691993 915
16.799999691546 894
16.8199996910989 986
16.8399996906519 954
16.8599996902049 967
16.8799996897578 1041
16.8999996893108 1055
16.9199996888638 1076
16.9399996884167 1171
16.9599996879697 1239
16.9799996875226 1306
16.9999996870756 1380
17.0199996866286 1446
17.0399996861815 1501
17.0599996857345 1441
17.0799996852875 1262
17.0999996848404 1181
17.1199996843934 1004
17.1399996839464 965
17.1599996834993 1017
17.1799996830523 966
17.1999996826053 930
17.2199996821582 933
17.2399996817112 957
17.2599996812642 967
17.2799996808171 952
17.2999996803701 987
17.3199996799231 944
17.339999679476 988
17.359999679029 1004
17.379999678582 1072
17.3999996781349 959
17.4199996776879 986
17.4399996772408 1035
17.4599996767938 982
17.4799996763468 1007
17.4999996758997 1021
17.5199996754527 1024
17.5399996750057 1021
17.5599996745586 1024
17.5799996741116 950
17.5999996736646 1036
17.6199996732175 1042
17.6399996727705 1002
17.6599996723235 1006
17.6799996718764 1029
17.6999996714294 1040
17.7199996709824 985
17.7399996705353 1021
17.7599996700883 1018
17.7799996696413 1009
17.7999996691942 1012
17.8199996687472 1057
17.8399996683002 1056
17.8599996678531 1045
17.8799996674061 1070
17.899999666959 1072
17.919999666512 1089
17.939999666065 1069
17.9599996656179 1009
17.9799996651709 1075
17.9999996647239 1031
18.0199996642768 1050
18.0399996638298 1070
18.0599996633828 1086
18.0799996629357 1070
18.0999996624887 1103
18.1199996620417 1068
18.1399996615946 1108
18.1599996611476 1042
18.1799996607006 1070
18.1999996602535 1028
18.2199996598065 1020
18.2399996593595 1066
18.2599996589124 1060
18.2799996584654 1089
18.2999996580184 1044
18.3199996575713 987
18.3399996571243 1119
18.3599996566772 1124
18.3799996562302 1112
18.3999996557832 1084
18.4199996553361 1114
18.4399996548891 1136
18.4599996544421 1108
18.479999653995 1092
18.499999653548 1131
18.519999653101 1147
18.5399996526539 1207
18.5599996522069 1152
18.5799996517599 1174
18.5999996513128 1112
18.6199996508658 1126
18.6399996504188 1137
18.6599996499717 1100
18.6799996495247 1112
18.6999996490777 1150
18.7199996486306 1227
18.7399996481836 1168
18.7599996477366 1208
18.7799996472895 1198
18.7999996468425 1168
18.8199996463954 1237
18.8399996459484 1212
18.8599996455014 1198
18.8799996450543 1147
18.8999996446073 1146
18.9199996441603 1194
18.9399996437132 1233
18.9599996432662 1191
18.9799996428192 1128
18.9999996423721 1170
19.0199996419251 1200
19.0399996414781 1155
19.059999641031 1213
19.079999640584 1255
19.099999640137 1257
19.1199996396899 1249
19.1399996392429 1184
19.1599996387959 1270
19.1799996383488 1237
19.1999996379018 1198
19.2199996374547 1284
19.2399996370077 1317
19.2599996365607 1201
19.2799996361136 1203
19.2999996356666 1258
19.3199996352196 1277
19.3399996347725 1283
19.3599996343255 1257
19.3799996338785 1234
19.3999996334314 1303
19.4199996329844 1229
19.4399996325374 1294
19.4599996320903 1278
19.4799996316433 1288
19.4999996311963 1359
19.5199996307492 1278
19.5399996303022 1318
19.5599996298552 1351
19.5799996294081 1298
19.5999996289611 1330
19.6199996285141 1266
19.639999628067 1319
19.65999962762 1371
19.6799996271729 1287
19.6999996267259 1266
19.7199996262789 1270
19.7399996258318 1394
19.7599996253848 1355
19.7799996249378 1340
19.7999996244907 1351
19.8199996240437 1372
19.8399996235967 1310
19.8599996231496 1372
19.8799996227026 1323
19.8999996222556 1373
19.9199996218085 1357
19.9399996213615 1351
19.9599996209145 1372
19.9799996204674 1380
19.9999996200204 1360
