3 2549
3.01999999955297 2480
3.03999999910593 2327
3.0599999986589 2202
3.07999999821186 2134
3.09999999776483 2058
3.11999999731779 1908
3.13999999687076 1911
3.15999999642372 1849
3.17999999597669 1839
3.19999999552965 1803
3.21999999508262 1835
3.23999999463558 1817
3.25999999418855 1786
3.27999999374151 1784
3.29999999329448 1701
3.31999999284744 1794
3.33999999240041 1755
3.35999999195337 1612
3.37999999150634 1659
3.3999999910593 1597
3.41999999061227 1651
3.43999999016523 1539
3.4599999897182 1562
3.47999998927116 1545
3.49999998882413 1596
3.51999998837709 1457
3.53999998793006 1478
3.55999998748302 1505
3.57999998703599 1540
3.59999998658895 1463
3.61999998614192 1546
3.63999998569489 1447
3.65999998524785 1381
3.67999998480082 1446
3.69999998435378 1391
3.71999998390675 1391
3.73999998345971 1360
3.75999998301268 1365
3.77999998256564 1326
3.79999998211861 1326
3.81999998167157 1274
3.83999998122454 1371
3.8599999807775 1332
3.87999998033047 1267
3.89999997988343 1291
3.9199999794364 1254
3.93999997898936 1291
3.95999997854233 1241
3.97999997809529 1235
3.99999997764826 1244
4.01999997720122 1214
4.03999997675419 1279
4.05999997630715 1242
4.07999997586012 1170
4.09999997541308 1136
4.11999997496605 1240
4.13999997451901 1156
4.15999997407198 1153
4.17999997362494 1219
4.19999997317791 1157
4.21999997273087 1183
4.23999997228384 1175
4.25999997183681 1118
4.27999997138977 1160
4.29999997094274 1166
4.3199999704957 1127
4.33999997004867 1154
4.35999996960163 1141
4.3799999691546 1085
4.39999996870756 1080
4.41999996826053 1062
4.43999996781349 1042
4.45999996736646 1083
4.47999996691942 1033
4.49999996647239 1100
4.51999996602535 1073
4.53999996557832 1050
4.55999996513128 1101
4.57999996468425 1073
4.59999996423721 1030
4.61999996379018 1058
4.63999996334314 1021
4.65999996289611 1059
4.67999996244907 982
4.69999996200204 1013
4.719999961555 1002
4.73999996110797 1002
4.75999996066093 1017
4.7799999602139 1055
4.79999995976686 1029
4.81999995931983 1019
4.83999995887279 1041
4.85999995842576 1061
4.87999995797873 1004
4.89999995753169 942
4.91999995708466 995
4.93999995663762 1067
4.95999995619059 1032
4.97999995574355 992
4.99999995529652 972
5.01999995484948 1022
5.03999995440245 1067
5.05999995395541 1030
5.07999995350838 1013
5.09999995306134 989
5.11999995261431 1048
5.13999995216727 1010
5.15999995172024 1013
5.1799999512732 1013
5.19999995082617 1014
5.21999995037913 1052
5.2399999499321 1046
5.25999994948506 1116
5.27999994903803 1097
5.29999994859099 1143
5.31999994814396 1167
5.33999994769692 1103
5.35999994724989 1157
5.37999994680285 1221
5.39999994635582 1231
5.41999994590878 1239
5.43999994546175 1258
5.45999994501471 1285
5.47999994456768 1337
5.49999994412065 1310
5.51999994367361 1265
5.53999994322658 1202
5.55999994277954 1147
5.57999994233251 1092
5.59999994188547 1001
5.61999994143844 987
5.6399999409914 950
5.65999994054437 936
5.67999994009733 967
5.6999999396503 938
5.71999993920326 854
5.73999993875623 920
5.75999993830919 897
5.77999993786216 929
5.79999993741512 891
5.81999993696809 899
5.83999993652105 862
5.85999993607402 885
5.87999993562698 875
5.89999993517995 876
5.91999993473291 847
5.93999993428588 805
5.95999993383884 814
5.97999993339181 844
5.99999993294477 832
6.01999993249774 810
6.0399999320507 853
6.05999993160367 773
6.07999993115663 822
6.0999999307096 849
6.11999993026257 804
6.13999992981553 791
6.1599999293685 763
6.17999992892146 807
6.19999992847443 785
6.21999992802739 817
6.23999992758036 798
6.25999992713332 792
6.27999992668629 768
6.29999992623925 771
6.31999992579222 749
6.33999992534518 792
6.35999992489815 753
6.37999992445111 757
6.39999992400408 733
6.41999992355704 725
6.43999992311001 734
6.45999992266297 789
6.47999992221594 722
6.4999999217689 727
6.51999992132187 778
6.53999992087483 765
6.5599999204278 746
6.57999991998076 722
6.59999991953373 710
6.61999991908669 734
6.63999991863966 750
6.65999991819262 759
6.67999991774559 708
6.69999991729855 767
6.71999991685152 688
6.73999991640449 749
6.75999991595745 712
6.77999991551042 717
6.79999991506338 678
6.81999991461635 699
6.83999991416931 713
6.85999991372228 755
6.87999991327524 723
6.89999991282821 745
6.91999991238117 701
6.93999991193414 711
6.9599999114871 730
6.97999991104007 678
6.99999991059303 683
7.019999910146 721
7.03999990969896 719
7.05999990925193 711
7.07999990880489 701
7.09999990835786 726
7.11999990791082 679
7.13999990746379 649
7.15999990701675 724
7.17999990656972 670
7.19999990612268 733
7.21999990567565 667
7.23999990522861 691
7.25999990478158 719
7.27999990433454 698
7.29999990388751 663
7.31999990344047 697
7.33999990299344 678
7.35999990254641 666
7.37999990209937 701
7.39999990165234 704
7.4199999012053 650
7.43999990075827 651
7.45999990031123 653
7.4799998998642 653
7.49999989941716 648
7.51999989897013 659
7.53999989852309 676
7.55999989807606 682
7.57999989762902 664
7.59999989718199 644
7.61999989673495 658
7.63999989628792 629
7.65999989584088 686
7.67999989539385 657
7.69999989494681 690
7.71999989449978 682
7.73999989405274 620
7.75999989360571 703
7.77999989315867 650
7.79999989271164 636
7.8199998922646 607
7.83999989181757 643
7.85999989137053 678
7.8799998909235 678
7.89999989047646 624
7.91999989002943 651
7.9399998895824 661
7.95999988913536 628
7.97999988868833 659
7.99999988824129 624
8.01999988779426 677
8.03999988734722 667
8.05999988690019 604
8.07999988645315 643
8.09999988600612 659
8.11999988555908 599
8.13999988511205 672
8.15999988466501 590
8.17999988421798 597
8.19999988377094 637
8.21999988332391 640
8.23999988287687 660
8.25999988242984 666
8.2799998819828 652
8.29999988153577 649
8.31999988108873 613
8.3399998806417 607
8.35999988019466 613
8.37999987974763 667
8.39999987930059 646
8.41999987885356 626
8.43999987840652 643
8.45999987795949 626
8.47999987751245 601
8.49999987706542 643
8.51999987661839 583
8.53999987617135 614
8.55999987572432 646
8.57999987527728 605
8.59999987483025 597
8.61999987438321 614
8.63999987393618 612
8.65999987348914 600
8.67999987304211 595
8.69999987259507 637
8.71999987214804 625
8.739999871701 624
8.75999987125397 631
8.77999987080693 619
8.7999998703599 594
8.81999986991286 586
8.83999986946583 598
8.85999986901879 612
8.87999986857176 633
8.89999986812472 655
8.91999986767769 633
8.93999986723065 634
8.95999986678362 636
8.97999986633658 698
8.99999986588955 566
9.01999986544251 664
9.03999986499548 633
9.05999986454844 616
9.07999986410141 644
9.09999986365438 669
9.11999986320734 621
9.13999986276031 618
9.15999986231327 619
9.17999986186624 628
9.1999998614192 660
9.21999986097217 702
9.23999986052513 680
9.2599998600781 746
9.27999985963106 677
9.29999985918403 669
9.31999985873699 676
9.33999985828996 682
9.35999985784292 730
9.37999985739589 728
9.39999985694885 759
9.41999985650182 740
9.43999985605478 709
9.45999985560775 767
9.47999985516071 731
9.49999985471368 702
9.51999985426664 699
9.53999985381961 690
9.55999985337257 598
9.57999985292554 665
9.5999998524785 605
9.61999985203147 626
9.63999985158443 614
9.6599998511374 596
9.67999985069037 651
9.69999985024333 559
9.7199998497963 584
9.73999984934926 608
9.75999984890223 606
9.77999984845519 590
9.79999984800816 584
9.81999984756112 595
9.83999984711409 596
9.85999984666705 602
9.87999984622002 623
9.89999984577298 621
9.91999984532595 593
9.93999984487891 568
9.95999984443188 597
9.97999984398484 640
9.99999984353781 566
10.0199998430908 590
10.0399998426437 565
10.0599998421967 574
10.0799998417497 556
10.0999998413026 585
10.1199998408556 584
10.1399998404086 601
10.1599998399615 579
10.1799998395145 601
10.1999998390675 622
10.2199998386204 579
10.2399998381734 591
10.2599998377264 563
10.2799998372793 547
10.2999998368323 585
10.3199998363853 542
10.3399998359382 567
10.3599998354912 593
10.3799998350441 590
10.3999998345971 567
10.4199998341501 578
10.439999833703 630
10.459999833256 586
10.479999832809 574
10.4999998323619 605
10.5199998319149 597
10.5399998314679 603
10.5599998310208 609
10.5799998305738 586
10.5999998301268 597
10.6199998296797 596
10.6399998292327 583
10.6599998287857 618
10.6799998283386 613
10.6999998278916 576
10.7199998274446 605
10.7399998269975 621
10.7599998265505 585
10.7799998261034 618
10.7999998256564 630
10.8199998252094 625
10.8399998247623 603
10.8599998243153 611
10.8799998238683 605
10.8999998234212 623
10.9199998229742 596
10.9399998225272 597
10.9599998220801 583
10.9799998216331 598
10.9999998211861 601
11.019999820739 573
11.039999820292 610
11.059999819845 543
11.0799998193979 550
11.0999998189509 604
11.1199998185039 526
11.1399998180568 568
11.1599998176098 588
11.1799998171628 594
11.1999998167157 574
11.2199998162687 571
11.2399998158216 593
11.2599998153746 510
11.2799998149276 614
11.2999998144805 633
11.3199998140335 554
11.3399998135865 571
11.3599998131394 556
11.3799998126924 527
11.3999998122454 561
11.4199998117983 550
11.4399998113513 552
11.4599998109043 553
11.4799998104572 569
11.4999998100102 555
11.5199998095632 597
11.5399998091161 591
11.5599998086691 590
11.5799998082221 565
11.599999807775 547
11.619999807328 619
11.639999806881 543
11.6599998064339 574
11.6799998059869 523
11.6999998055398 561
11.7199998050928 613
11.7399998046458 565
11.7599998041987 548
11.7799998037517 565
11.7999998033047 582
11.8199998028576 553
11.8399998024106 570
11.8599998019636 524
11.8799998015165 569
11.8999998010695 664
11.9199998006225 557
11.9399998001754 603
11.9599997997284 577
11.9799997992814 593
11.9999997988343 579
12.0199997983873 559
12.0399997979403 535
12.0599997974932 593
12.0799997970462 580
12.0999997965992 599
12.1199997961521 580
12.1399997957051 573
12.159999795258 599
12.179999794811 609
12.199999794364 624
12.2199997939169 607
12.2399997934699 548
12.2599997930229 579
12.2799997925758 599
12.2999997921288 560
12.3199997916818 578
12.3399997912347 578
12.3599997907877 587
12.3799997903407 575
12.3999997898936 606
12.4199997894466 531
12.4399997889996 591
12.4599997885525 570
12.4799997881055 601
12.4999997876585 626
12.5199997872114 569
12.5399997867644 575
12.5599997863173 590
12.5799997858703 554
12.5999997854233 621
12.6199997849762 600
12.6399997845292 600
12.6599997840822 600
12.6799997836351 560
12.6999997831881 622
12.7199997827411 591
12.739999782294 582
12.759999781847 596
12.7799997814 619
12.7999997809529 574
12.8199997805059 621
12.8399997800589 591
12.8599997796118 586
12.8799997791648 665
12.8999997787178 629
12.9199997782707 588
12.9399997778237 582
12.9599997773767 616
12.9799997769296 588
12.9999997764826 600
13.0199997760355 604
13.0399997755885 613
13.0599997751415 577
13.0799997746944 578
13.0999997742474 590
13.1199997738004 583
13.1399997733533 625
13.1599997729063 602
13.1799997724593 626
13.1999997720122 625
13.2199997715652 575
13.2399997711182 562
13.2599997706711 608
13.2799997702241 582
13.2999997697771 610
13.31999976933 566
13.339999768883 569
13.359999768436 554
13.3799997679889 618
13.3999997675419 613
13.4199997670949 608
13.4399997666478 595
13.4599997662008 592
13.4799997657537 572
13.4999997653067 582
13.5199997648597 605
13.5399997644126 634
13.5599997639656 560
13.5799997635186 667
13.5999997630715 631
13.6199997626245 644
13.6399997621775 593
13.6599997617304 614
13.6799997612834 638
13.6999997608364 612
13.7199997603893 633
13.7399997599423 589
13.7599997594953 627
13.7799997590482 645
13.7999997586012 643
13.8199997581542 624
13.8399997577071 660
13.8599997572601 635
13.879999756813 632
13.899999756366 606
13.919999755919 631
13.9399997554719 602
13.9599997550249 660
13.9799997545779 625
13.9999997541308 631
14.0199997536838 648
14.0399997532368 668
14.0599997527897 646
14.0799997523427 618
14.0999997518957 665
14.1199997514486 668
14.1399997510016 623
14.1599997505546 637
14.1799997501075 669
14.1999997496605 652
14.2199997492135 656
14.2399997487664 661
14.2599997483194 677
14.2799997478724 646
14.2999997474253 656
14.3199997469783 660
14.3399997465312 629
14.3599997460842 672
14.3799997456372 665
14.3999997451901 645
14.4199997447431 645
14.4399997442961 664
14.459999743849 646
14.479999743402 661
14.499999742955 652
14.5199997425079 668
14.5399997420609 704
14.5599997416139 650
14.5799997411668 685
14.5999997407198 671
14.6199997402728 657
14.6399997398257 617
14.6599997393787 644
14.6799997389317 661
14.6999997384846 687
14.7199997380376 660
14.7399997375906 676
14.7599997371435 721
14.7799997366965 696
14.7999997362494 619
14.8199997358024 691
14.8399997353554 706
14.8599997349083 657
14.8799997344613 669
14.8999997340143 686
14.9199997335672 711
14.9399997331202 669
14.9599997326732 668
14.9799997322261 669
14.9999997317791 710
15.0199997313321 710
15.039999730885 719
15.059999730438 673
15.079999729991 691
15.0999997295439 685
15.1199997290969 711
15.1399997286499 691
15.1599997282028 689
15.1799997277558 680
15.1999997273088 698
15.2199997268617 707
15.2399997264147 697
15.2599997259676 684
15.2799997255206 700
15.2999997250736 744
15.3199997246265 687
15.3399997241795 692
15.3599997237325 726
15.3799997232854 733
15.3999997228384 675
15.4199997223914 685
15.4399997219443 681
15.4599997214973 726
15.4799997210503 737
15.4999997206032 755
15.5199997201562 761
15.5399997197092 730
15.5599997192621 709
15.5799997188151 745
15.5999997183681 716
15.619999717921 743
15.639999717474 745
15.659999717027 691
15.6799997165799 728
15.6999997161329 742
15.7199997156858 757
15.7399997152388 700
15.7599997147918 682
15.7799997143447 721
15.7999997138977 722
15.8199997134507 707
15.8399997130036 745
15.8599997125566 757
15.8799997121096 758
15.8999997116625 726
15.9199997112155 747
15.9399997107685 757
15.9599997103214 798
15.9799997098744 762
15.9999997094274 752
16.0199997089803 766
16.0399997085333 716
16.0599997080863 750
16.0799997076392 775
16.0999997071922 809
16.1199997067451 787
16.1399997062981 806
16.1599997058511 776
16.179999705404 742
16.199999704957 825
16.21999970451 814
16.2399997040629 774
16.2599997036159 791
16.2799997031689 767
16.2999997027218 795
16.3199997022748 808
16.3399997018278 862
16.3599997013807 788
16.3799997009337 795
16.3999997004867 831
16.4199997000396 771
16.4399996995926 788
16.4599996991456 807
16.4799996986985 785
16.4999996982515 787
16.5199996978045 843
16.5399996973574 808
16.5599996969104 852
16.5799996964633 764
16.5999996960163 820
16.6199996955693 790
16.6399996951222 814
16.6599996946752 844
16.6799996942282 810
16.6999996937811 871
16.7199996933341 815
16.7399996928871 817
16.75999969244 858
16.779999691993 844
16.799999691546 893
16.8199996910989 855
16.8399996906519 890
16.8599996902049 917
16.8799996897578 938
16.8999996893108 962
16.9199996888638 1111
16.9399996884167 1074
16.9599996879697 1127
16.9799996875226 1192
16.9999996870756 1350
17.0199996866286 1377
17.0399996861815 1430
17.0599996857345 1494
17.0799996852875 1453
17.0999996848404 1337
17.1199996843934 1182
17.1399996839464 1116
17.1599996834993 973
17.1799996830523 983
17.1999996826053 938
17.2199996821582 968
17.2399996817112 967
17.2599996812642 891
17.2799996808171 901
17.2999996803701 950
17.3199996799231 903
17.339999679476 914
17.359999679029 840
17.379999678582 926
17.3999996781349 908
17.4199996776879 905
17.4399996772408 968
17.4599996767938 940
17.4799996763468 938
17.4999996758997 991
17.5199996754527 882
17.5399996750057 936
17.5599996745586 941
17.5799996741116 938
17.5999996736646 930
17.6199996732175 948
17.6399996727705 931
17.6599996723235 988
17.6799996718764 926
17.6999996714294 920
17.7199996709824 904
17.7399996705353 965
17.7599996700883 956
17.7799996696413 912
17.7999996691942 919
17.8199996687472 945
17.8399996683002 1023
17.8599996678531 946
17.8799996674061 950
17.899999666959 919
17.919999666512 976
17.939999666065 1041
17.9599996656179 1011
17.9799996651709 971
17.9999996647239 970
18.0199996642768 954
18.0399996638298 975
18.0599996633828 958
18.0799996629357 1028
18.0999996624887 1065
18.1199996620417 995
18.1399996615946 938
18.1599996611476 1030
18.1799996607006 969
18.1999996602535 976
18.2199996598065 994
18.2399996593595 1046
18.2599996589124 1082
18.2799996584654 979
18.2999996580184 992
18.3199996575713 991
18.3399996571243 1047
18.3599996566772 1050
18.3799996562302 1024
18.3999996557832 1027
18.4199996553361 1047
18.4399996548891 1071
18.4599996544421 1063
18.479999653995 986
18.499999653548 1069
18.519999653101 1060
18.5399996526539 1033
18.5599996522069 1031
18.5799996517599 1032
18.5999996513128 980
18.6199996508658 1079
18.6399996504188 1075
18.6599996499717 1051
18.6799996495247 1113
18.6999996490777 1091
18.7199996486306 1080
18.7399996481836 1074
18.7599996477366 1105
18.7799996472895 1085
18.7999996468425 1095
18.8199996463954 1109
18.8399996459484 1126
18.8599996455014 1021
18.8799996450543 1104
18.8999996446073 1156
18.9199996441603 1107
18.9399996437132 1074
18.9599996432662 1090
18.9799996428192 1091
18.9999996423721 1143
19.0199996419251 1131
19.0399996414781 1119
19.059999641031 1162
19.079999640584 1140
19.099999640137 1113
19.1199996396899 1115
19.1399996392429 1107
19.1599996387959 1110
19.1799996383488 1176
19.1999996379018 1152
19.2199996374547 1176
19.2399996370077 1192
19.2599996365607 1223
19.2799996361136 1107
19.2999996356666 1140
19.3199996352196 1174
19.3399996347725 1184
19.3599996343255 1175
19.3799996338785 1252
19.3999996334314 1177
19.4199996329844 1209
19.4399996325374 1181
19.4599996320903 1166
19.4799996316433 1203
19.4999996311963 1197
19.5199996307492 1244
19.5399996303022 1169
19.5599996298552 1267
19.5799996294081 1267
19.5999996289611 1226
19.6199996285141 1211
19.639999628067 1156
19.65999962762 1204
19.6799996271729 1208
19.6999996267259 1218
19.7199996262789 1235
19.7399996258318 1258
19.7599996253848 1196
19.7799996249378 1245
19.7999996244907 1225
19.8199996240437 1314
19.8399996235967 1275
19.8599996231496 1201
19.8799996227026 1215
19.8999996222556 1283
19.9199996218085 1264
19.9399996213615 1302
19.9599996209145 1210
19.9799996204674 1296
19.9999996200204 1287
