3 2384
3.01999999955297 2206
3.03999999910593 2149
3.0599999986589 2075
3.07999999821186 1909
3.09999999776483 1872
3.11999999731779 1854
3.13999999687076 1739
3.15999999642372 1706
3.17999999597669 1719
3.19999999552965 1729
3.21999999508262 1764
3.23999999463558 1646
3.25999999418855 1700
3.27999999374151 1684
3.29999999329448 1709
3.31999999284744 1685
3.33999999240041 1635
3.35999999195337 1661
3.37999999150634 1616
3.3999999910593 1634
3.41999999061227 1549
3.43999999016523 1607
3.4599999897182 1675
3.47999998927116 1614
3.49999998882413 1538
3.51999998837709 1647
3.53999998793006 1563
3.55999998748302 1566
3.57999998703599 1563
3.59999998658895 1597
3.61999998614192 1483
3.63999998569489 1510
3.65999998524785 1526
3.67999998480082 1537
3.69999998435378 1488
3.71999998390675 1474
3.73999998345971 1579
3.75999998301268 1564
3.77999998256564 1540
3.79999998211861 1541
3.81999998167157 1474
3.83999998122454 1538
3.8599999807775 1550
3.87999998033047 1494
3.89999997988343 1561
3.9199999794364 1511
3.93999997898936 1588
3.95999997854233 1589
3.97999997809529 1531
3.99999997764826 1531
4.01999997720122 1511
4.03999997675419 1555
4.05999997630715 1500
4.07999997586012 1547
4.09999997541308 1499
4.11999997496605 1493
4.13999997451901 1545
4.15999997407198 1615
4.17999997362494 1514
4.19999997317791 1573
4.21999997273087 1552
4.23999997228384 1618
4.25999997183681 1643
4.27999997138977 1596
4.29999997094274 1610
4.3199999704957 1549
4.33999997004867 1514
4.35999996960163 1565
4.3799999691546 1517
4.39999996870756 1572
4.41999996826053 1517
4.43999996781349 1581
4.45999996736646 1604
4.47999996691942 1631
4.49999996647239 1485
4.51999996602535 1571
4.53999996557832 1546
4.55999996513128 1614
4.57999996468425 1555
4.59999996423721 1592
4.61999996379018 1639
4.63999996334314 1575
4.65999996289611 1594
4.67999996244907 1625
4.69999996200204 1602
4.719999961555 1552
4.73999996110797 1581
4.75999996066093 1570
4.7799999602139 1674
4.79999995976686 1648
4.81999995931983 1585
4.83999995887279 1610
4.85999995842576 1663
4.87999995797873 1619
4.89999995753169 1645
4.91999995708466 1630
4.93999995663762 1711
4.95999995619059 1625
4.97999995574355 1662
4.99999995529652 1666
5.01999995484948 1646
5.03999995440245 1654
5.05999995395541 1701
5.07999995350838 1657
5.09999995306134 1664
5.11999995261431 1609
5.13999995216727 1750
5.15999995172024 1666
5.1799999512732 1738
5.19999995082617 1703
5.21999995037913 1723
5.2399999499321 1708
5.25999994948506 1686
5.27999994903803 1790
5.29999994859099 1747
5.31999994814396 1824
5.33999994769692 1916
5.35999994724989 1911
5.37999994680285 2103
5.39999994635582 2057
5.41999994590878 2129
5.43999994546175 2276
5.45999994501471 2315
5.47999994456768 2269
5.49999994412065 2196
5.51999994367361 1900
5.53999994322658 1696
5.55999994277954 1652
5.57999994233251 1568
5.59999994188547 1541
5.61999994143844 1491
5.6399999409914 1471
5.65999994054437 1413
5.67999994009733 1432
5.6999999396503 1423
5.71999993920326 1357
5.73999993875623 1401
5.75999993830919 1378
5.77999993786216 1397
5.79999993741512 1338
5.81999993696809 1316
5.83999993652105 1350
5.85999993607402 1354
5.87999993562698 1255
5.89999993517995 1272
5.91999993473291 1283
5.93999993428588 1315
5.95999993383884 1211
5.97999993339181 1256
5.99999993294477 1226
6.01999993249774 1237
6.0399999320507 1190
6.05999993160367 1235
6.07999993115663 1243
6.0999999307096 1222
6.11999993026257 1202
6.13999992981553 1233
6.1599999293685 1149
6.17999992892146 1216
6.19999992847443 1162
6.21999992802739 1174
6.23999992758036 1205
6.25999992713332 1240
6.27999992668629 1169
6.29999992623925 1222
6.31999992579222 1199
6.33999992534518 1230
6.35999992489815 1190
6.37999992445111 1322
6.39999992400408 1379
6.41999992355704 1306
6.43999992311001 1288
6.45999992266297 1348
6.47999992221594 1440
6.4999999217689 1419
6.51999992132187 1387
6.53999992087483 1407
6.5599999204278 1423
6.57999991998076 1390
6.59999991953373 1285
6.61999991908669 1219
6.63999991863966 1125
6.65999991819262 1053
6.67999991774559 938
6.69999991729855 988
6.71999991685152 947
6.73999991640449 941
6.75999991595745 898
6.77999991551042 843
6.79999991506338 892
6.81999991461635 811
6.83999991416931 854
6.85999991372228 848
6.87999991327524 859
6.89999991282821 794
6.91999991238117 767
6.93999991193414 760
6.9599999114871 831
6.97999991104007 805
6.99999991059303 779
7.019999910146 732
7.03999990969896 777
7.05999990925193 772
7.07999990880489 778
7.09999990835786 712
7.11999990791082 748
7.13999990746379 757
7.15999990701675 759
7.17999990656972 744
7.19999990612268 732
7.21999990567565 693
7.23999990522861 769
7.25999990478158 759
7.27999990433454 724
7.29999990388751 767
7.31999990344047 709
7.33999990299344 757
7.35999990254641 716
7.37999990209937 700
7.39999990165234 735
7.4199999012053 714
7.43999990075827 748
7.45999990031123 707
7.4799998998642 689
7.49999989941716 691
7.51999989897013 703
7.53999989852309 717
7.55999989807606 677
7.57999989762902 674
7.59999989718199 721
7.61999989673495 662
7.63999989628792 668
7.65999989584088 670
7.67999989539385 660
7.69999989494681 687
7.71999989449978 720
7.73999989405274 665
7.75999989360571 686
7.77999989315867 704
7.79999989271164 666
7.8199998922646 677
7.83999989181757 710
7.85999989137053 626
7.8799998909235 653
7.89999989047646 678
7.91999989002943 629
7.9399998895824 713
7.95999988913536 634
7.97999988868833 689
7.99999988824129 690
8.01999988779426 674
8.03999988734722 671
8.05999988690019 644
8.07999988645315 642
8.09999988600612 635
8.11999988555908 636
8.13999988511205 621
8.15999988466501 679
8.17999988421798 652
8.19999988377094 625
8.21999988332391 673
8.23999988287687 605
8.25999988242984 653
8.2799998819828 643
8.29999988153577 642
8.31999988108873 642
8.3399998806417 634
8.35999988019466 632
8.37999987974763 659
8.39999987930059 626
8.41999987885356 645
8.43999987840652 626
8.45999987795949 631
8.47999987751245 646
8.49999987706542 631
8.51999987661839 657
8.53999987617135 609
8.55999987572432 593
8.57999987527728 636
8.59999987483025 620
8.61999987438321 637
8.63999987393618 617
8.65999987348914 596
8.67999987304211 647
8.69999987259507 646
8.71999987214804 641
8.739999871701 632
8.75999987125397 642
8.77999987080693 640
8.7999998703599 633
8.81999986991286 621
8.83999986946583 618
8.85999986901879 611
8.87999986857176 652
8.89999986812472 622
8.91999986767769 659
8.93999986723065 637
8.95999986678362 634
8.97999986633658 682
8.99999986588955 678
9.01999986544251 655
9.03999986499548 656
9.05999986454844 708
9.07999986410141 684
9.09999986365438 704
9.11999986320734 727
9.13999986276031 723
9.15999986231327 731
9.17999986186624 702
9.1999998614192 756
9.21999986097217 768
9.23999986052513 823
9.2599998600781 835
9.27999985963106 912
9.29999985918403 920
9.31999985873699 1033
9.33999985828996 1087
9.35999985784292 1116
9.37999985739589 1180
9.39999985694885 1239
9.41999985650182 1104
9.43999985605478 952
9.45999985560775 753
9.47999985516071 718
9.49999985471368 623
9.51999985426664 647
9.53999985381961 611
9.55999985337257 619
9.57999985292554 637
9.5999998524785 585
9.61999985203147 588
9.63999985158443 631
9.6599998511374 597
9.67999985069037 618
9.69999985024333 593
9.7199998497963 589
9.73999984934926 573
9.75999984890223 626
9.77999984845519 653
9.79999984800816 590
9.81999984756112 540
9.83999984711409 597
9.85999984666705 607
9.87999984622002 580
9.89999984577298 611
9.91999984532595 611
9.93999984487891 591
9.95999984443188 607
9.97999984398484 586
9.99999984353781 561
10.0199998430908 586
10.0399998426437 568
10.0599998421967 570
10.0799998417497 589
10.0999998413026 626
10.1199998408556 584
10.1399998404086 561
10.1599998399615 545
10.1799998395145 569
10.1999998390675 589
10.2199998386204 593
10.2399998381734 568
10.2599998377264 590
10.2799998372793 603
10.2999998368323 542
10.3199998363853 567
10.3399998359382 587
10.3599998354912 530
10.3799998350441 562
10.3999998345971 596
10.4199998341501 558
10.439999833703 577
10.459999833256 555
10.479999832809 558
10.4999998323619 577
10.5199998319149 554
10.5399998314679 566
10.5599998310208 594
10.5799998305738 567
10.5999998301268 600
10.6199998296797 582
10.6399998292327 585
10.6599998287857 571
10.6799998283386 598
10.6999998278916 602
10.7199998274446 591
10.7399998269975 650
10.7599998265505 663
10.7799998261034 606
10.7999998256564 632
10.8199998252094 701
10.8399998247623 700
10.8599998243153 689
10.8799998238683 649
10.8999998234212 647
10.9199998229742 600
10.9399998225272 620
10.9599998220801 551
10.9799998216331 556
10.9999998211861 584
11.019999820739 589
11.039999820292 539
11.059999819845 595
11.0799998193979 587
11.0999998189509 546
11.1199998185039 551
11.1399998180568 559
11.1599998176098 528
11.1799998171628 587
11.1999998167157 577
11.2199998162687 587
11.2399998158216 584
11.2599998153746 531
11.2799998149276 596
11.2999998144805 601
11.3199998140335 627
11.3399998135865 567
11.3599998131394 607
11.3799998126924 589
11.3999998122454 627
11.4199998117983 646
11.4399998113513 630
11.4599998109043 621
11.4799998104572 570
11.4999998100102 571
11.5199998095632 532
11.5399998091161 586
11.5599998086691 514
11.5799998082221 531
11.599999807775 537
11.619999807328 535
11.639999806881 553
11.6599998064339 520
11.6799998059869 527
11.6999998055398 530
11.7199998050928 543
11.7399998046458 495
11.7599998041987 524
11.7799998037517 549
11.7999998033047 526
11.8199998028576 496
11.8399998024106 526
11.8599998019636 523
11.8799998015165 538
11.8999998010695 536
11.9199998006225 519
11.9399998001754 515
11.9599997997284 548
11.9799997992814 522
11.9999997988343 547
12.0199997983873 560
12.0399997979403 551
12.0599997974932 572
12.0799997970462 569
12.0999997965992 575
12.1199997961521 609
12.1399997957051 560
12.159999795258 595
12.179999794811 598
12.199999794364 571
12.2199997939169 533
12.2399997934699 543
12.2599997930229 564
12.2799997925758 615
12.2999997921288 571
12.3199997916818 546
12.3399997912347 536
12.3599997907877 502
12.3799997903407 503
12.3999997898936 510
12.4199997894466 544
12.4399997889996 524
12.4599997885525 518
12.4799997881055 492
12.4999997876585 542
12.5199997872114 565
12.5399997867644 505
12.5599997863173 520
12.5799997858703 515
12.5999997854233 493
12.6199997849762 523
12.6399997845292 475
12.6599997840822 484
12.6799997836351 524
12.6999997831881 523
12.7199997827411 510
12.739999782294 504
12.759999781847 503
12.7799997814 527
12.7999997809529 489
12.8199997805059 535
12.8399997800589 520
12.8599997796118 504
12.8799997791648 587
12.8999997787178 525
12.9199997782707 526
12.9399997778237 495
12.9599997773767 518
12.9799997769296 523
12.9999997764826 507
13.0199997760355 493
13.0399997755885 548
13.0599997751415 525
13.0799997746944 513
13.0999997742474 514
13.1199997738004 518
13.1399997733533 474
13.1599997729063 538
13.1799997724593 558
13.1999997720122 527
13.2199997715652 544
13.2399997711182 550
13.2599997706711 540
13.2799997702241 582
13.2999997697771 600
13.31999976933 550
13.339999768883 582
13.359999768436 577
13.3799997679889 513
13.3999997675419 530
13.4199997670949 486
13.4399997666478 478
13.4599997662008 521
13.4799997657537 474
13.4999997653067 479
13.5199997648597 520
13.5399997644126 499
13.5599997639656 455
13.5799997635186 536
13.5999997630715 501
13.6199997626245 516
13.6399997621775 534
13.6599997617304 510
13.6799997612834 509
13.6999997608364 459
13.7199997603893 462
13.7399997599423 491
13.7599997594953 499
13.7799997590482 491
13.7999997586012 521
13.8199997581542 481
13.8399997577071 519
13.8599997572601 482
13.879999756813 494
13.899999756366 464
13.919999755919 491
13.9399997554719 488
13.9599997550249 500
13.9799997545779 503
13.9999997541308 515
14.0199997536838 498
14.0399997532368 490
14.0599997527897 501
14.0799997523427 452
14.0999997518957 523
14.1199997514486 469
14.1399997510016 502
14.1599997505546 499
14.1799997501075 477
14.1999997496605 497
14.2199997492135 455
14.2399997487664 507
14.2599997483194 532
14.2799997478724 479
14.2999997474253 541
14.3199997469783 518
14.3399997465312 489
14.3599997460842 508
14.3799997456372 493
14.3999997451901 547
14.4199997447431 466
14.4399997442961 542
14.459999743849 528
14.479999743402 498
14.499999742955 508
14.5199997425079 486
14.5399997420609 538
14.5599997416139 533
14.5799997411668 499
14.5999997407198 530
14.6199997402728 535
14.6399997398257 534
14.6599997393787 540
14.6799997389317 529
14.6999997384846 517
14.7199997380376 511
14.7399997375906 554
14.7599997371435 478
14.7799997366965 475
14.7999997362494 495
14.8199997358024 490
14.8399997353554 525
14.8599997349083 498
14.8799997344613 506
14.8999997340143 515
14.9199997335672 495
14.9399997331202 502
14.9599997326732 504
14.9799997322261 534
14.9999997317791 537
15.0199997313321 510
15.039999730885 534
15.059999730438 468
15.079999729991 498
15.0999997295439 517
15.1199997290969 497
15.1399997286499 508
15.1599997282028 528
15.1799997277558 488
15.1999997273088 499
15.2199997268617 507
15.2399997264147 540
15.2599997259676 568
15.2799997255206 539
15.2999997250736 540
15.3199997246265 562
15.3399997241795 531
15.3599997237325 529
15.3799997232854 532
15.3999997228384 538
15.4199997223914 537
15.4399997219443 530
15.4599997214973 544
15.4799997210503 512
15.4999997206032 562
15.5199997201562 546
15.5399997197092 516
15.5599997192621 525
15.5799997188151 518
15.5999997183681 529
15.619999717921 509
15.639999717474 503
15.659999717027 518
15.6799997165799 531
15.6999997161329 512
15.7199997156858 528
15.7399997152388 568
15.7599997147918 518
15.7799997143447 549
15.7999997138977 534
15.8199997134507 528
15.8399997130036 488
15.8599997125566 497
15.8799997121096 539
15.8999997116625 582
15.9199997112155 495
15.9399997107685 532
15.9599997103214 516
15.9799997098744 505
15.9999997094274 550
16.0199997089803 548
16.0399997085333 526
16.0599997080863 523
16.0799997076392 550
16.0999997071922 504
16.1199997067451 544
16.1399997062981 502
16.1599997058511 544
16.179999705404 540
16.199999704957 529
16.21999970451 496
16.2399997040629 540
16.2599997036159 575
16.2799997031689 533
16.2999997027218 545
16.3199997022748 532
16.3399997018278 530
16.3599997013807 549
16.3799997009337 558
16.3999997004867 542
16.4199997000396 538
16.4399996995926 498
16.4599996991456 591
16.4799996986985 546
16.4999996982515 573
16.5199996978045 546
16.5399996973574 565
16.5599996969104 554
16.5799996964633 591
16.5999996960163 639
16.6199996955693 659
16.6399996951222 672
16.6599996946752 662
16.6799996942282 700
16.6999996937811 722
16.7199996933341 679
16.7399996928871 725
16.75999969244 769
16.779999691993 836
16.799999691546 925
16.8199996910989 1070
16.8399996906519 1083
16.8599996902049 1214
16.8799996897578 1431
16.8999996893108 1765
16.9199996888638 2090
16.9399996884167 1995
16.9599996879697 2173
16.9799996875226 2333
16.9999996870756 2416
17.0199996866286 2550
17.0399996861815 2368
17.0599996857345 1915
17.0799996852875 1692
17.0999996848404 1256
17.1199996843934 1036
17.1399996839464 875
17.1599996834993 730
17.1799996830523 703
17.1999996826053 597
17.2199996821582 593
17.2399996817112 568
17.2599996812642 595
17.2799996808171 618
17.2999996803701 601
17.3199996799231 557
17.339999679476 568
17.359999679029 603
17.379999678582 591
17.3999996781349 543
17.4199996776879 573
17.4399996772408 574
17.4599996767938 593
17.4799996763468 564
17.4999996758997 586
17.5199996754527 559
17.5399996750057 605
17.5599996745586 594
17.5799996741116 576
17.5999996736646 624
17.6199996732175 590
17.6399996727705 619
17.6599996723235 610
17.6799996718764 626
17.6999996714294 633
17.7199996709824 580
17.7399996705353 573
17.7599996700883 577
17.7799996696413 558
17.7999996691942 622
17.8199996687472 583
17.8399996683002 617
17.8599996678531 592
17.8799996674061 593
17.899999666959 600
17.919999666512 581
17.939999666065 552
17.9599996656179 588
17.9799996651709 585
17.9999996647239 616
18.0199996642768 596
18.0399996638298 569
18.0599996633828 555
18.0799996629357 600
18.0999996624887 579
18.1199996620417 590
18.1399996615946 602
18.1599996611476 630
18.1799996607006 630
18.1999996602535 590
18.2199996598065 635
18.2399996593595 612
18.2599996589124 561
18.2799996584654 657
18.2999996580184 593
18.3199996575713 572
18.3399996571243 594
18.3599996566772 611
18.3799996562302 584
18.3999996557832 644
18.4199996553361 589
18.4399996548891 612
18.4599996544421 587
18.479999653995 656
18.499999653548 633
18.519999653101 635
18.5399996526539 660
18.5599996522069 625
18.5799996517599 632
18.5999996513128 677
18.6199996508658 605
18.6399996504188 628
18.6599996499717 611
18.6799996495247 596
18.6999996490777 620
18.7199996486306 628
18.7399996481836 656
18.7599996477366 662
18.7799996472895 612
18.7999996468425 595
18.8199996463954 635
18.8399996459484 657
18.8599996455014 677
18.8799996450543 655
18.8999996446073 658
18.9199996441603 592
18.9399996437132 613
18.9599996432662 615
18.9799996428192 609
18.9999996423721 658
19.0199996419251 647
19.0399996414781 648
19.059999641031 632
19.079999640584 625
19.099999640137 631
19.1199996396899 645
19.1399996392429 598
19.1599996387959 622
19.1799996383488 640
19.1999996379018 677
19.2199996374547 625
19.2399996370077 698
19.2599996365607 656
19.2799996361136 683
19.2999996356666 624
19.3199996352196 731
19.3399996347725 650
19.3599996343255 697
19.3799996338785 672
19.3999996334314 741
19.4199996329844 695
19.4399996325374 699
19.4599996320903 753
19.4799996316433 742
19.4999996311963 730
19.5199996307492 740
19.5399996303022 735
19.5599996298552 735
19.5799996294081 700
19.5999996289611 725
19.6199996285141 714
19.639999628067 663
19.65999962762 710
19.6799996271729 695
19.6999996267259 730
19.7199996262789 691
19.7399996258318 705
19.7599996253848 713
19.7799996249378 713
19.7999996244907 731
19.8199996240437 711
19.8399996235967 712
19.8599996231496 674
19.8799996227026 736
19.8999996222556 690
19.9199996218085 658
19.9399996213615 640
19.9599996209145 697
19.9799996204674 709
19.9999996200204 659
