3 3031
3.01999999955297 2864
3.03999999910593 2789
3.0599999986589 2689
3.07999999821186 2505
3.09999999776483 2391
3.11999999731779 2464
3.13999999687076 2273
3.15999999642372 2261
3.17999999597669 2260
3.19999999552965 2222
3.21999999508262 2223
3.23999999463558 2171
3.25999999418855 2232
3.27999999374151 2199
3.29999999329448 2079
3.31999999284744 2062
3.33999999240041 2100
3.35999999195337 2055
3.37999999150634 1959
3.3999999910593 2042
3.41999999061227 1981
3.43999999016523 1944
3.4599999897182 1962
3.47999998927116 1909
3.49999998882413 1892
3.51999998837709 1875
3.53999998793006 1947
3.55999998748302 1872
3.57999998703599 1864
3.59999998658895 1848
3.61999998614192 1832
3.63999998569489 1789
3.65999998524785 1752
3.67999998480082 1692
3.69999998435378 1736
3.71999998390675 1664
3.73999998345971 1688
3.75999998301268 1676
3.77999998256564 1616
3.79999998211861 1700
3.81999998167157 1667
3.83999998122454 1667
3.8599999807775 1667
3.87999998033047 1665
3.89999997988343 1596
3.9199999794364 1537
3.93999997898936 1648
3.95999997854233 1592
3.97999997809529 1595
3.99999997764826 1626
4.01999997720122 1598
4.03999997675419 1493
4.05999997630715 1591
4.07999997586012 1509
4.09999997541308 1486
4.11999997496605 1539
4.13999997451901 1538
4.15999997407198 1405
4.17999997362494 1484
4.19999997317791 1518
4.21999997273087 1493
4.23999997228384 1382
4.25999997183681 1442
4.27999997138977 1425
4.29999997094274 1386
4.3199999704957 1463
4.33999997004867 1415
4.35999996960163 1411
4.3799999691546 1462
4.39999996870756 1367
4.41999996826053 1413
4.43999996781349 1386
4.45999996736646 1337
4.47999996691942 1321
4.49999996647239 1370
4.51999996602535 1298
4.53999996557832 1353
4.55999996513128 1363
4.57999996468425 1369
4.59999996423721 1338
4.61999996379018 1342
4.63999996334314 1266
4.65999996289611 1348
4.67999996244907 1296
4.69999996200204 1292
4.719999961555 1236
4.73999996110797 1273
4.75999996066093 1307
4.7799999602139 1219
4.79999995976686 1221
4.81999995931983 1206
4.83999995887279 1316
4.85999995842576 1148
4.87999995797873 1236
4.89999995753169 1218
4.91999995708466 1213
4.93999995663762 1290
4.95999995619059 1215
4.97999995574355 1198
4.99999995529652 1196
5.01999995484948 1191
5.03999995440245 1174
5.05999995395541 1155
5.07999995350838 1138
5.09999995306134 1189
5.11999995261431 1131
5.13999995216727 1112
5.15999995172024 1166
5.1799999512732 1088
5.19999995082617 1134
5.21999995037913 1114
5.2399999499321 1087
5.25999994948506 1087
5.27999994903803 1091
5.29999994859099 1068
5.31999994814396 1020
5.33999994769692 1074
5.35999994724989 1091
5.37999994680285 1109
5.39999994635582 1048
5.41999994590878 1062
5.43999994546175 1067
5.45999994501471 1046
5.47999994456768 988
5.49999994412065 1029
5.51999994367361 1021
5.53999994322658 1028
5.55999994277954 990
5.57999994233251 1000
5.59999994188547 1038
5.61999994143844 964
5.6399999409914 944
5.65999994054437 960
5.67999994009733 954
5.6999999396503 956
5.71999993920326 926
5.73999993875623 973
5.75999993830919 947
5.77999993786216 970
5.79999993741512 959
5.81999993696809 955
5.83999993652105 956
5.85999993607402 931
5.87999993562698 866
5.89999993517995 800
5.91999993473291 923
5.93999993428588 868
5.95999993383884 884
5.97999993339181 886
5.99999993294477 892
6.01999993249774 810
6.0399999320507 816
6.05999993160367 840
6.07999993115663 846
6.0999999307096 850
6.11999993026257 834
6.13999992981553 789
6.1599999293685 793
6.17999992892146 806
6.19999992847443 789
6.21999992802739 802
6.23999992758036 823
6.25999992713332 800
6.27999992668629 826
6.29999992623925 816
6.31999992579222 815
6.33999992534518 821
6.35999992489815 762
6.37999992445111 776
6.39999992400408 781
6.41999992355704 762
6.43999992311001 763
6.45999992266297 752
6.47999992221594 717
6.4999999217689 747
6.51999992132187 718
6.53999992087483 708
6.5599999204278 774
6.57999991998076 715
6.59999991953373 730
6.61999991908669 732
6.63999991863966 736
6.65999991819262 778
6.67999991774559 731
6.69999991729855 729
6.71999991685152 699
6.73999991640449 764
6.75999991595745 732
6.77999991551042 776
6.79999991506338 735
6.81999991461635 740
6.83999991416931 726
6.85999991372228 685
6.87999991327524 728
6.89999991282821 706
6.91999991238117 726
6.93999991193414 719
6.9599999114871 697
6.97999991104007 743
6.99999991059303 707
7.019999910146 710
7.03999990969896 702
7.05999990925193 717
7.07999990880489 648
7.09999990835786 692
7.11999990791082 678
7.13999990746379 678
7.15999990701675 641
7.17999990656972 716
7.19999990612268 671
7.21999990567565 688
7.23999990522861 672
7.25999990478158 649
7.27999990433454 657
7.29999990388751 686
7.31999990344047 667
7.33999990299344 654
7.35999990254641 676
7.37999990209937 655
7.39999990165234 635
7.4199999012053 669
7.43999990075827 666
7.45999990031123 659
7.4799998998642 690
7.49999989941716 642
7.51999989897013 632
7.53999989852309 628
7.55999989807606 666
7.57999989762902 673
7.59999989718199 623
7.61999989673495 695
7.63999989628792 644
7.65999989584088 684
7.67999989539385 634
7.69999989494681 660
7.71999989449978 581
7.73999989405274 652
7.75999989360571 632
7.77999989315867 683
7.79999989271164 663
7.8199998922646 648
7.83999989181757 613
7.85999989137053 651
7.8799998909235 633
7.89999989047646 651
7.91999989002943 647
7.9399998895824 636
7.95999988913536 606
7.97999988868833 610
7.99999988824129 661
8.01999988779426 633
8.03999988734722 658
8.05999988690019 607
8.07999988645315 581
8.09999988600612 620
8.11999988555908 628
8.13999988511205 650
8.15999988466501 608
8.17999988421798 610
8.19999988377094 601
8.21999988332391 600
8.23999988287687 653
8.25999988242984 665
8.2799998819828 641
8.29999988153577 598
8.31999988108873 618
8.3399998806417 600
8.35999988019466 619
8.37999987974763 607
8.39999987930059 605
8.41999987885356 588
8.43999987840652 612
8.45999987795949 599
8.47999987751245 636
8.49999987706542 622
8.51999987661839 566
8.53999987617135 568
8.55999987572432 592
8.57999987527728 599
8.59999987483025 591
8.61999987438321 576
8.63999987393618 596
8.65999987348914 599
8.67999987304211 583
8.69999987259507 639
8.71999987214804 655
8.739999871701 613
8.75999987125397 614
8.77999987080693 616
8.7999998703599 567
8.81999986991286 572
8.83999986946583 580
8.85999986901879 549
8.87999986857176 603
8.89999986812472 593
8.91999986767769 574
8.93999986723065 608
8.95999986678362 623
8.97999986633658 576
8.99999986588955 614
9.01999986544251 581
9.03999986499548 592
9.05999986454844 553
9.07999986410141 567
9.09999986365438 609
9.11999986320734 577
9.13999986276031 592
9.15999986231327 537
9.17999986186624 591
9.1999998614192 572
9.21999986097217 616
9.23999986052513 606
9.2599998600781 579
9.27999985963106 543
9.29999985918403 624
9.31999985873699 587
9.33999985828996 607
9.35999985784292 599
9.37999985739589 579
9.39999985694885 599
9.41999985650182 610
9.43999985605478 580
9.45999985560775 654
9.47999985516071 594
9.49999985471368 621
9.51999985426664 596
9.53999985381961 563
9.55999985337257 606
9.57999985292554 577
9.5999998524785 564
9.61999985203147 604
9.63999985158443 593
9.6599998511374 575
9.67999985069037 585
9.69999985024333 575
9.7199998497963 579
9.73999984934926 600
9.75999984890223 565
9.77999984845519 603
9.79999984800816 572
9.81999984756112 555
9.83999984711409 593
9.85999984666705 577
9.87999984622002 585
9.89999984577298 606
9.91999984532595 539
9.93999984487891 552
9.95999984443188 581
9.97999984398484 573
9.99999984353781 587
10.0199998430908 587
10.0399998426437 567
10.0599998421967 543
10.0799998417497 562
10.0999998413026 618
10.1199998408556 572
10.1399998404086 561
10.1599998399615 540
10.1799998395145 558
10.1999998390675 570
10.2199998386204 550
10.2399998381734 562
10.2599998377264 504
10.2799998372793 535
10.2999998368323 576
10.3199998363853 592
10.3399998359382 566
10.3599998354912 579
10.3799998350441 551
10.3999998345971 560
10.4199998341501 572
10.439999833703 569
10.459999833256 521
10.479999832809 541
10.4999998323619 548
10.5199998319149 557
10.5399998314679 591
10.5599998310208 539
10.5799998305738 559
10.5999998301268 556
10.6199998296797 527
10.6399998292327 602
10.6599998287857 576
10.6799998283386 597
10.6999998278916 548
10.7199998274446 584
10.7399998269975 566
10.7599998265505 555
10.7799998261034 591
10.7999998256564 581
10.8199998252094 552
10.8399998247623 547
10.8599998243153 573
10.8799998238683 558
10.8999998234212 540
10.9199998229742 529
10.9399998225272 552
10.9599998220801 588
10.9799998216331 528
10.9999998211861 574
11.019999820739 554
11.039999820292 554
11.059999819845 551
11.0799998193979 552
11.0999998189509 535
11.1199998185039 530
11.1399998180568 561
11.1599998176098 536
11.1799998171628 529
11.1999998167157 501
11.2199998162687 558
11.2399998158216 545
11.2599998153746 520
11.2799998149276 567
11.2999998144805 589
11.3199998140335 555
11.3399998135865 590
11.3599998131394 547
11.3799998126924 570
11.3999998122454 564
11.4199998117983 563
11.4399998113513 566
11.4599998109043 530
11.4799998104572 540
11.4999998100102 553
11.5199998095632 562
11.5399998091161 558
11.5599998086691 580
11.5799998082221 560
11.599999807775 554
11.619999807328 564
11.639999806881 540
11.6599998064339 525
11.6799998059869 510
11.6999998055398 550
11.7199998050928 563
11.7399998046458 547
11.7599998041987 527
11.7799998037517 505
11.7999998033047 557
11.8199998028576 582
11.8399998024106 535
11.8599998019636 551
11.8799998015165 565
11.8999998010695 560
11.9199998006225 579
11.9399998001754 622
11.9599997997284 554
11.9799997992814 569
11.9999997988343 576
12.0199997983873 566
12.0399997979403 598
12.0599997974932 521
12.0799997970462 563
12.0999997965992 548
12.1199997961521 558
12.1399997957051 553
12.159999795258 530
12.179999794811 541
12.199999794364 571
12.2199997939169 540
12.2399997934699 560
12.2599997930229 538
12.2799997925758 554
12.2999997921288 554
12.3199997916818 574
12.3399997912347 547
12.3599997907877 584
12.3799997903407 547
12.3999997898936 544
12.4199997894466 552
12.4399997889996 614
12.4599997885525 543
12.4799997881055 572
12.4999997876585 577
12.5199997872114 546
12.5399997867644 553
12.5599997863173 547
12.5799997858703 523
12.5999997854233 626
12.6199997849762 552
12.6399997845292 604
12.6599997840822 556
12.6799997836351 583
12.6999997831881 580
12.7199997827411 551
12.739999782294 586
12.759999781847 536
12.7799997814 549
12.7999997809529 575
12.8199997805059 555
12.8399997800589 579
12.8599997796118 549
12.8799997791648 564
12.8999997787178 537
12.9199997782707 546
12.9399997778237 568
12.9599997773767 578
12.9799997769296 545
12.9999997764826 594
13.0199997760355 575
13.0399997755885 591
13.0599997751415 530
13.0799997746944 574
13.0999997742474 566
13.1199997738004 576
13.1399997733533 621
13.1599997729063 611
13.1799997724593 638
13.1999997720122 646
13.2199997715652 665
13.2399997711182 751
13.2599997706711 722
13.2799997702241 658
13.2999997697771 627
13.31999976933 562
13.339999768883 603
13.359999768436 558
13.3799997679889 545
13.3999997675419 581
13.4199997670949 578
13.4399997666478 562
13.4599997662008 526
13.4799997657537 604
13.4999997653067 601
13.5199997648597 561
13.5399997644126 556
13.5599997639656 604
13.5799997635186 579
13.5999997630715 616
13.6199997626245 586
13.6399997621775 559
13.6599997617304 586
13.6799997612834 551
13.6999997608364 567
13.7199997603893 596
13.7399997599423 560
13.7599997594953 614
13.7799997590482 537
13.7999997586012 593
13.8199997581542 591
13.8399997577071 579
13.8599997572601 606
13.879999756813 577
13.899999756366 598
13.919999755919 571
13.9399997554719 600
13.9599997550249 584
13.9799997545779 630
13.9999997541308 571
14.0199997536838 609
14.0399997532368 605
14.0599997527897 601
14.0799997523427 593
14.0999997518957 641
14.1199997514486 601
14.1399997510016 632
14.1599997505546 589
14.1799997501075 607
14.1999997496605 626
14.2199997492135 555
14.2399997487664 618
14.2599997483194 585
14.2799997478724 620
14.2999997474253 626
14.3199997469783 581
14.3399997465312 639
14.3599997460842 636
14.3799997456372 616
14.3999997451901 631
14.4199997447431 631
14.4399997442961 583
14.459999743849 651
14.479999743402 619
14.499999742955 636
14.5199997425079 645
14.5399997420609 623
14.5599997416139 622
14.5799997411668 630
14.5999997407198 557
14.6199997402728 591
14.6399997398257 605
14.6599997393787 658
14.6799997389317 614
14.6999997384846 667
14.7199997380376 619
14.7399997375906 605
14.7599997371435 578
14.7799997366965 650
14.7999997362494 637
14.8199997358024 642
14.8399997353554 626
14.8599997349083 637
14.8799997344613 623
14.8999997340143 608
14.9199997335672 611
14.9399997331202 645
14.9599997326732 632
14.9799997322261 631
14.9999997317791 631
15.0199997313321 673
15.039999730885 617
15.059999730438 648
15.079999729991 674
15.0999997295439 693
15.1199997290969 656
15.1399997286499 652
15.1599997282028 644
15.1799997277558 700
15.1999997273088 653
15.2199997268617 665
15.2399997264147 676
15.2599997259676 704
15.2799997255206 710
15.2999997250736 704
15.3199997246265 757
15.3399997241795 748
15.3599997237325 747
15.3799997232854 684
15.3999997228384 688
15.4199997223914 634
15.4399997219443 684
15.4599997214973 653
15.4799997210503 683
15.4999997206032 633
15.5199997201562 695
15.5399997197092 720
15.5599997192621 676
15.5799997188151 682
15.5999997183681 676
15.619999717921 658
15.639999717474 697
15.659999717027 714
15.6799997165799 726
15.6999997161329 696
15.7199997156858 658
15.7399997152388 708
15.7599997147918 696
15.7799997143447 738
15.7999997138977 702
15.8199997134507 690
15.8399997130036 685
15.8599997125566 714
15.8799997121096 711
15.8999997116625 701
15.9199997112155 663
15.9399997107685 686
15.9599997103214 671
15.9799997098744 739
15.9999997094274 696
16.0199997089803 693
16.0399997085333 709
16.0599997080863 705
16.0799997076392 744
16.0999997071922 722
16.1199997067451 745
16.1399997062981 735
16.1599997058511 707
16.179999705404 715
16.199999704957 698
16.21999970451 750
16.2399997040629 761
16.2599997036159 774
16.2799997031689 761
16.2999997027218 752
16.3199997022748 735
16.3399997018278 753
16.3599997013807 754
16.3799997009337 835
16.3999997004867 813
16.4199997000396 842
16.4399996995926 822
16.4599996991456 856
16.4799996986985 849
16.4999996982515 802
16.5199996978045 841
16.5399996973574 857
16.5599996969104 842
16.5799996964633 859
16.5999996960163 869
16.6199996955693 799
16.6399996951222 827
16.6599996946752 906
16.6799996942282 874
16.6999996937811 934
16.7199996933341 1069
16.7399996928871 1298
16.75999969244 1459
16.779999691993 1611
16.799999691546 1737
16.8199996910989 1661
16.8399996906519 1732
16.8599996902049 1828
16.8799996897578 2117
16.8999996893108 2412
16.9199996888638 3312
16.9399996884167 6602
16.9599996879697 12097
16.9799996875226 13143
16.9999996870756 15018
17.0199996866286 9485
17.0399996861815 6204
17.0599996857345 3456
17.0799996852875 1483
17.0999996848404 1240
17.1199996843934 1062
17.1399996839464 1048
17.1599996834993 1008
17.1799996830523 931
17.1999996826053 913
17.2199996821582 930
17.2399996817112 916
17.2599996812642 899
17.2799996808171 870
17.2999996803701 925
17.3199996799231 869
17.339999679476 906
17.359999679029 896
17.379999678582 936
17.3999996781349 882
17.4199996776879 920
17.4399996772408 893
17.4599996767938 904
17.4799996763468 893
17.4999996758997 885
17.5199996754527 910
17.5399996750057 913
17.5599996745586 872
17.5799996741116 951
17.5999996736646 933
17.6199996732175 909
17.6399996727705 887
17.6599996723235 956
17.6799996718764 927
17.6999996714294 961
17.7199996709824 936
17.7399996705353 954
17.7599996700883 940
17.7799996696413 938
17.7999996691942 893
17.8199996687472 903
17.8399996683002 945
17.8599996678531 966
17.8799996674061 929
17.899999666959 919
17.919999666512 960
17.939999666065 953
17.9599996656179 927
17.9799996651709 912
17.9999996647239 984
18.0199996642768 968
18.0399996638298 900
18.0599996633828 930
18.0799996629357 963
18.0999996624887 995
18.1199996620417 948
18.1399996615946 951
18.1599996611476 936
18.1799996607006 936
18.1999996602535 975
18.2199996598065 948
18.2399996593595 936
18.2599996589124 976
18.2799996584654 976
18.2999996580184 996
18.3199996575713 935
18.3399996571243 964
18.3599996566772 1005
18.3799996562302 986
18.3999996557832 976
18.4199996553361 1035
18.4399996548891 1007
18.4599996544421 967
18.479999653995 1011
18.499999653548 969
18.519999653101 980
18.5399996526539 998
18.5599996522069 1030
18.5799996517599 1013
18.5999996513128 1032
18.6199996508658 1009
18.6399996504188 922
18.6599996499717 1020
18.6799996495247 1018
18.6999996490777 998
18.7199996486306 1054
18.7399996481836 982
18.7599996477366 1016
18.7799996472895 1041
18.7999996468425 991
18.8199996463954 978
18.8399996459484 1033
18.8599996455014 980
18.8799996450543 1037
18.8999996446073 1048
18.9199996441603 1080
18.9399996437132 1043
18.9599996432662 1070
18.9799996428192 1065
18.9999996423721 1113
19.0199996419251 1082
19.0399996414781 1063
19.059999641031 1056
19.079999640584 1093
19.099999640137 1067
19.1199996396899 1056
19.1399996392429 1111
19.1599996387959 1025
19.1799996383488 1047
19.1999996379018 1071
19.2199996374547 1085
19.2399996370077 1072
19.2599996365607 1107
19.2799996361136 1107
19.2999996356666 1003
19.3199996352196 1029
19.3399996347725 1009
19.3599996343255 1055
19.3799996338785 1119
19.3999996334314 1116
19.4199996329844 1140
19.4399996325374 1114
19.4599996320903 1096
19.4799996316433 1041
19.4999996311963 1071
19.5199996307492 1073
19.5399996303022 1131
19.5599996298552 1127
19.5799996294081 1121
19.5999996289611 1099
19.6199996285141 1082
19.639999628067 1093
19.65999962762 1136
19.6799996271729 1082
19.6999996267259 1151
19.7199996262789 1121
19.7399996258318 1142
19.7599996253848 1123
19.7799996249378 1171
19.7999996244907 1127
19.8199996240437 1130
19.8399996235967 1172
19.8599996231496 1152
19.8799996227026 1128
19.8999996222556 1083
19.9199996218085 1156
19.9399996213615 1153
19.9599996209145 1176
19.9799996204674 1120
19.9999996200204 1098
