3 2194
3.01999999955297 2102
3.03999999910593 1951
3.0599999986589 1799
3.07999999821186 1786
3.09999999776483 1681
3.11999999731779 1626
3.13999999687076 1557
3.15999999642372 1583
3.17999999597669 1538
3.19999999552965 1510
3.21999999508262 1564
3.23999999463558 1460
3.25999999418855 1483
3.27999999374151 1489
3.29999999329448 1482
3.31999999284744 1410
3.33999999240041 1397
3.35999999195337 1337
3.37999999150634 1366
3.3999999910593 1411
3.41999999061227 1439
3.43999999016523 1397
3.4599999897182 1356
3.47999998927116 1330
3.49999998882413 1260
3.51999998837709 1356
3.53999998793006 1320
3.55999998748302 1282
3.57999998703599 1266
3.59999998658895 1308
3.61999998614192 1301
3.63999998569489 1268
3.65999998524785 1275
3.67999998480082 1291
3.69999998435378 1190
3.71999998390675 1233
3.73999998345971 1235
3.75999998301268 1225
3.77999998256564 1303
3.79999998211861 1198
3.81999998167157 1235
3.83999998122454 1173
3.8599999807775 1213
3.87999998033047 1226
3.89999997988343 1220
3.9199999794364 1159
3.93999997898936 1242
3.95999997854233 1161
3.97999997809529 1255
3.99999997764826 1187
4.01999997720122 1204
4.03999997675419 1111
4.05999997630715 1175
4.07999997586012 1143
4.09999997541308 1165
4.11999997496605 1200
4.13999997451901 1148
4.15999997407198 1198
4.17999997362494 1191
4.19999997317791 1167
4.21999997273087 1184
4.23999997228384 1160
4.25999997183681 1156
4.27999997138977 1188
4.29999997094274 1135
4.3199999704957 1081
4.33999997004867 1093
4.35999996960163 1158
4.3799999691546 1144
4.39999996870756 1181
4.41999996826053 1104
4.43999996781349 1129
4.45999996736646 1124
4.47999996691942 1150
4.49999996647239 1125
4.51999996602535 1128
4.53999996557832 1078
4.55999996513128 1066
4.57999996468425 1107
4.59999996423721 1162
4.61999996379018 1179
4.63999996334314 1127
4.65999996289611 1106
4.67999996244907 1088
4.69999996200204 1116
4.719999961555 1078
4.73999996110797 1130
4.75999996066093 1126
4.7799999602139 1140
4.79999995976686 1094
4.81999995931983 1155
4.83999995887279 1131
4.85999995842576 1079
4.87999995797873 1070
4.89999995753169 1004
4.91999995708466 1059
4.93999995663762 1038
4.95999995619059 1111
4.97999995574355 1088
4.99999995529652 1140
5.01999995484948 1062
5.03999995440245 1066
5.05999995395541 1113
5.07999995350838 1054
5.09999995306134 1067
5.11999995261431 1047
5.13999995216727 1049
5.15999995172024 1038
5.1799999512732 1029
5.19999995082617 1021
5.21999995037913 995
5.2399999499321 1059
5.25999994948506 1012
5.27999994903803 976
5.29999994859099 1037
5.31999994814396 974
5.33999994769692 1013
5.35999994724989 993
5.37999994680285 994
5.39999994635582 1001
5.41999994590878 1040
5.43999994546175 1106
5.45999994501471 1047
5.47999994456768 988
5.49999994412065 1009
5.51999994367361 1041
5.53999994322658 957
5.55999994277954 936
5.57999994233251 942
5.59999994188547 939
5.61999994143844 929
5.6399999409914 876
5.65999994054437 915
5.67999994009733 871
5.6999999396503 879
5.71999993920326 914
5.73999993875623 857
5.75999993830919 904
5.77999993786216 866
5.79999993741512 872
5.81999993696809 827
5.83999993652105 850
5.85999993607402 814
5.87999993562698 871
5.89999993517995 864
5.91999993473291 802
5.93999993428588 796
5.95999993383884 781
5.97999993339181 771
5.99999993294477 784
6.01999993249774 759
6.0399999320507 780
6.05999993160367 762
6.07999993115663 781
6.0999999307096 781
6.11999993026257 718
6.13999992981553 751
6.1599999293685 731
6.17999992892146 756
6.19999992847443 752
6.21999992802739 716
6.23999992758036 689
6.25999992713332 727
6.27999992668629 711
6.29999992623925 722
6.31999992579222 716
6.33999992534518 729
6.35999992489815 738
6.37999992445111 707
6.39999992400408 682
6.41999992355704 708
6.43999992311001 692
6.45999992266297 693
6.47999992221594 719
6.4999999217689 683
6.51999992132187 691
6.53999992087483 693
6.5599999204278 668
6.57999991998076 718
6.59999991953373 713
6.61999991908669 689
6.63999991863966 722
6.65999991819262 707
6.67999991774559 647
6.69999991729855 664
6.71999991685152 716
6.73999991640449 688
6.75999991595745 651
6.77999991551042 699
6.79999991506338 708
6.81999991461635 664
6.83999991416931 626
6.85999991372228 693
6.87999991327524 657
6.89999991282821 686
6.91999991238117 680
6.93999991193414 634
6.9599999114871 645
6.97999991104007 635
6.99999991059303 651
7.019999910146 674
7.03999990969896 638
7.05999990925193 628
7.07999990880489 668
7.09999990835786 605
7.11999990791082 648
7.13999990746379 645
7.15999990701675 633
7.17999990656972 659
7.19999990612268 621
7.21999990567565 646
7.23999990522861 625
7.25999990478158 628
7.27999990433454 632
7.29999990388751 609
7.31999990344047 628
7.33999990299344 646
7.35999990254641 621
7.37999990209937 653
7.39999990165234 642
7.4199999012053 627
7.43999990075827 613
7.45999990031123 620
7.4799998998642 620
7.49999989941716 665
7.51999989897013 633
7.53999989852309 605
7.55999989807606 586
7.57999989762902 606
7.59999989718199 665
7.61999989673495 605
7.63999989628792 611
7.65999989584088 586
7.67999989539385 570
7.69999989494681 695
7.71999989449978 610
7.73999989405274 620
7.75999989360571 601
7.77999989315867 628
7.79999989271164 606
7.8199998922646 611
7.83999989181757 621
7.85999989137053 660
7.8799998909235 673
7.89999989047646 602
7.91999989002943 609
7.9399998895824 578
7.95999988913536 601
7.97999988868833 616
7.99999988824129 595
8.01999988779426 588
8.03999988734722 636
8.05999988690019 610
8.07999988645315 579
8.09999988600612 645
8.11999988555908 611
8.13999988511205 638
8.15999988466501 589
8.17999988421798 609
8.19999988377094 607
8.21999988332391 594
8.23999988287687 615
8.25999988242984 610
8.2799998819828 665
8.29999988153577 608
8.31999988108873 625
8.3399998806417 597
8.35999988019466 604
8.37999987974763 571
8.39999987930059 621
8.41999987885356 586
8.43999987840652 631
8.45999987795949 608
8.47999987751245 577
8.49999987706542 586
8.51999987661839 589
8.53999987617135 598
8.55999987572432 591
8.57999987527728 617
8.59999987483025 588
8.61999987438321 599
8.63999987393618 596
8.65999987348914 582
8.67999987304211 591
8.69999987259507 575
8.71999987214804 655
8.739999871701 591
8.75999987125397 592
8.77999987080693 578
8.7999998703599 595
8.81999986991286 598
8.83999986946583 588
8.85999986901879 560
8.87999986857176 582
8.89999986812472 631
8.91999986767769 627
8.93999986723065 605
8.95999986678362 586
8.97999986633658 552
8.99999986588955 564
9.01999986544251 555
9.03999986499548 575
9.05999986454844 616
9.07999986410141 633
9.09999986365438 573
9.11999986320734 569
9.13999986276031 635
9.15999986231327 593
9.17999986186624 586
9.1999998614192 624
9.21999986097217 554
9.23999986052513 600
9.2599998600781 644
9.27999985963106 631
9.29999985918403 596
9.31999985873699 603
9.33999985828996 620
9.35999985784292 626
9.37999985739589 631
9.39999985694885 604
9.41999985650182 645
9.43999985605478 616
9.45999985560775 596
9.47999985516071 585
9.49999985471368 652
9.51999985426664 582
9.53999985381961 586
9.55999985337257 589
9.57999985292554 577
9.5999998524785 570
9.61999985203147 564
9.63999985158443 594
9.6599998511374 572
9.67999985069037 578
9.69999985024333 609
9.7199998497963 598
9.73999984934926 581
9.75999984890223 575
9.77999984845519 609
9.79999984800816 595
9.81999984756112 607
9.83999984711409 582
9.85999984666705 567
9.87999984622002 572
9.89999984577298 548
9.91999984532595 620
9.93999984487891 535
9.95999984443188 573
9.97999984398484 577
9.99999984353781 572
10.0199998430908 596
10.0399998426437 569
10.0599998421967 572
10.0799998417497 569
10.0999998413026 620
10.1199998408556 585
10.1399998404086 580
10.1599998399615 543
10.1799998395145 591
10.1999998390675 574
10.2199998386204 580
10.2399998381734 578
10.2599998377264 546
10.2799998372793 529
10.2999998368323 568
10.3199998363853 544
10.3399998359382 547
10.3599998354912 554
10.3799998350441 609
10.3999998345971 583
10.4199998341501 586
10.439999833703 586
10.459999833256 552
10.479999832809 596
10.4999998323619 603
10.5199998319149 533
10.5399998314679 536
10.5599998310208 541
10.5799998305738 604
10.5999998301268 535
10.6199998296797 564
10.6399998292327 520
10.6599998287857 601
10.6799998283386 551
10.6999998278916 605
10.7199998274446 549
10.7399998269975 571
10.7599998265505 566
10.7799998261034 565
10.7999998256564 564
10.8199998252094 554
10.8399998247623 576
10.8599998243153 635
10.8799998238683 560
10.8999998234212 575
10.9199998229742 571
10.9399998225272 562
10.9599998220801 575
10.9799998216331 553
10.9999998211861 566
11.019999820739 582
11.039999820292 579
11.059999819845 596
11.0799998193979 589
11.0999998189509 536
11.1199998185039 551
11.1399998180568 551
11.1599998176098 624
11.1799998171628 524
11.1999998167157 544
11.2199998162687 595
11.2399998158216 583
11.2599998153746 561
11.2799998149276 586
11.2999998144805 575
11.3199998140335 572
11.3399998135865 551
11.3599998131394 563
11.3799998126924 544
11.3999998122454 543
11.4199998117983 518
11.4399998113513 580
11.4599998109043 570
11.4799998104572 570
11.4999998100102 581
11.5199998095632 597
11.5399998091161 595
11.5599998086691 624
11.5799998082221 564
11.599999807775 561
11.619999807328 578
11.639999806881 595
11.6599998064339 601
11.6799998059869 569
11.6999998055398 555
11.7199998050928 578
11.7399998046458 574
11.7599998041987 546
11.7799998037517 550
11.7999998033047 601
11.8199998028576 548
11.8399998024106 545
11.8599998019636 567
11.8799998015165 584
11.8999998010695 566
11.9199998006225 562
11.9399998001754 530
11.9599997997284 566
11.9799997992814 573
11.9999997988343 561
12.0199997983873 557
12.0399997979403 587
12.0599997974932 559
12.0799997970462 600
12.0999997965992 594
12.1199997961521 582
12.1399997957051 567
12.159999795258 611
12.179999794811 589
12.199999794364 597
12.2199997939169 593
12.2399997934699 587
12.2599997930229 571
12.2799997925758 558
12.2999997921288 584
12.3199997916818 573
12.3399997912347 589
12.3599997907877 555
12.3799997903407 608
12.3999997898936 598
12.4199997894466 577
12.4399997889996 568
12.4599997885525 571
12.4799997881055 548
12.4999997876585 570
12.5199997872114 558
12.5399997867644 572
12.5599997863173 580
12.5799997858703 563
12.5999997854233 601
12.6199997849762 547
12.6399997845292 598
12.6599997840822 570
12.6799997836351 584
12.6999997831881 552
12.7199997827411 611
12.739999782294 584
12.759999781847 543
12.7799997814 586
12.7999997809529 538
12.8199997805059 569
12.8399997800589 587
12.8599997796118 595
12.8799997791648 567
12.8999997787178 583
12.9199997782707 630
12.9399997778237 542
12.9599997773767 578
12.9799997769296 606
12.9999997764826 614
13.0199997760355 605
13.0399997755885 599
13.0599997751415 632
13.0799997746944 637
13.0999997742474 591
13.1199997738004 591
13.1399997733533 575
13.1599997729063 608
13.1799997724593 600
13.1999997720122 581
13.2199997715652 612
13.2399997711182 609
13.2599997706711 592
13.2799997702241 579
13.2999997697771 645
13.31999976933 592
13.339999768883 665
13.359999768436 624
13.3799997679889 610
13.3999997675419 560
13.4199997670949 587
13.4399997666478 593
13.4599997662008 590
13.4799997657537 658
13.4999997653067 613
13.5199997648597 595
13.5399997644126 565
13.5599997639656 557
13.5799997635186 582
13.5999997630715 572
13.6199997626245 620
13.6399997621775 602
13.6599997617304 560
13.6799997612834 589
13.6999997608364 620
13.7199997603893 564
13.7399997599423 577
13.7599997594953 616
13.7799997590482 604
13.7999997586012 636
13.8199997581542 588
13.8399997577071 582
13.8599997572601 611
13.879999756813 604
13.899999756366 590
13.919999755919 635
13.9399997554719 604
13.9599997550249 599
13.9799997545779 651
13.9999997541308 619
14.0199997536838 647
14.0399997532368 623
14.0599997527897 596
14.0799997523427 657
14.0999997518957 583
14.1199997514486 631
14.1399997510016 664
14.1599997505546 633
14.1799997501075 623
14.1999997496605 662
14.2199997492135 629
14.2399997487664 631
14.2599997483194 616
14.2799997478724 637
14.2999997474253 646
14.3199997469783 615
14.3399997465312 629
14.3599997460842 619
14.3799997456372 654
14.3999997451901 581
14.4199997447431 611
14.4399997442961 598
14.459999743849 644
14.479999743402 651
14.499999742955 631
14.5199997425079 638
14.5399997420609 636
14.5599997416139 628
14.5799997411668 619
14.5999997407198 627
14.6199997402728 649
14.6399997398257 655
14.6599997393787 666
14.6799997389317 655
14.6999997384846 677
14.7199997380376 670
14.7399997375906 675
14.7599997371435 603
14.7799997366965 627
14.7999997362494 674
14.8199997358024 683
14.8399997353554 649
14.8599997349083 650
14.8799997344613 636
14.8999997340143 657
14.9199997335672 645
14.9399997331202 621
14.9599997326732 672
14.9799997322261 641
14.9999997317791 626
15.0199997313321 659
15.039999730885 718
15.059999730438 684
15.079999729991 699
15.0999997295439 675
15.1199997290969 703
15.1399997286499 657
15.1599997282028 680
15.1799997277558 694
15.1999997273088 674
15.2199997268617 685
15.2399997264147 711
15.2599997259676 706
15.2799997255206 693
15.2999997250736 698
15.3199997246265 724
15.3399997241795 716
15.3599997237325 666
15.3799997232854 693
15.3999997228384 721
15.4199997223914 727
15.4399997219443 737
15.4599997214973 705
15.4799997210503 726
15.4999997206032 665
15.5199997201562 724
15.5399997197092 681
15.5599997192621 761
15.5799997188151 723
15.5999997183681 725
15.619999717921 704
15.639999717474 722
15.659999717027 735
15.6799997165799 701
15.6999997161329 736
15.7199997156858 720
15.7399997152388 698
15.7599997147918 739
15.7799997143447 727
15.7999997138977 688
15.8199997134507 709
15.8399997130036 753
15.8599997125566 750
15.8799997121096 730
15.8999997116625 728
15.9199997112155 724
15.9399997107685 753
15.9599997103214 763
15.9799997098744 732
15.9999997094274 741
16.0199997089803 760
16.0399997085333 732
16.0599997080863 750
16.0799997076392 764
16.0999997071922 794
16.1199997067451 725
16.1399997062981 742
16.1599997058511 750
16.179999705404 758
16.199999704957 765
16.21999970451 735
16.2399997040629 817
16.2599997036159 777
16.2799997031689 812
16.2999997027218 811
16.3199997022748 722
16.3399997018278 765
16.3599997013807 793
16.3799997009337 737
16.3999997004867 732
16.4199997000396 827
16.4399996995926 820
16.4599996991456 781
16.4799996986985 817
16.4999996982515 821
16.5199996978045 874
16.5399996973574 833
16.5599996969104 797
16.5799996964633 796
16.5999996960163 805
16.6199996955693 823
16.6399996951222 830
16.6599996946752 813
16.6799996942282 841
16.6999996937811 916
16.7199996933341 895
16.7399996928871 875
16.75999969244 898
16.779999691993 960
16.799999691546 984
16.8199996910989 987
16.8399996906519 1076
16.8599996902049 1059
16.8799996897578 1112
16.8999996893108 1170
16.9199996888638 1314
16.9399996884167 1471
16.9599996879697 1814
16.9799996875226 2103
16.9999996870756 2341
17.0199996866286 2779
17.0399996861815 3065
17.0599996857345 3046
17.0799996852875 3081
17.0999996848404 2478
17.1199996843934 1874
17.1399996839464 1781
17.1599996834993 1464
17.1799996830523 1153
17.1999996826053 1118
17.2199996821582 942
17.2399996817112 896
17.2599996812642 919
17.2799996808171 902
17.2999996803701 948
17.3199996799231 893
17.339999679476 960
17.359999679029 926
17.379999678582 904
17.3999996781349 991
17.4199996776879 917
17.4399996772408 900
17.4599996767938 922
17.4799996763468 884
17.4999996758997 891
17.5199996754527 882
17.5399996750057 922
17.5599996745586 962
17.5799996741116 967
17.5999996736646 944
17.6199996732175 940
17.6399996727705 970
17.6599996723235 961
17.6799996718764 928
17.6999996714294 916
17.7199996709824 928
17.7399996705353 918
17.7599996700883 950
17.7799996696413 934
17.7999996691942 966
17.8199996687472 961
17.8399996683002 980
17.8599996678531 994
17.8799996674061 1065
17.899999666959 1021
17.919999666512 976
17.939999666065 1024
17.9599996656179 987
17.9799996651709 986
17.9999996647239 1037
18.0199996642768 1014
18.0399996638298 978
18.0599996633828 1010
18.0799996629357 997
18.0999996624887 1009
18.1199996620417 990
18.1399996615946 1032
18.1599996611476 1048
18.1799996607006 1019
18.1999996602535 1038
18.2199996598065 1089
18.2399996593595 1040
18.2599996589124 1045
18.2799996584654 1008
18.2999996580184 974
18.3199996575713 1043
18.3399996571243 1058
18.3599996566772 1087
18.3799996562302 1054
18.3999996557832 996
18.4199996553361 1126
18.4399996548891 1083
18.4599996544421 1038
18.479999653995 1070
18.499999653548 1080
18.519999653101 1009
18.5399996526539 1059
18.5599996522069 1077
18.5799996517599 1078
18.5999996513128 1067
18.6199996508658 1106
18.6399996504188 1052
18.6599996499717 1098
18.6799996495247 1045
18.6999996490777 1055
18.7199996486306 1095
18.7399996481836 1139
18.7599996477366 1074
18.7799996472895 1112
18.7999996468425 1028
18.8199996463954 1098
18.8399996459484 1100
18.8599996455014 1132
18.8799996450543 1143
18.8999996446073 1122
18.9199996441603 1084
18.9399996437132 1130
18.9599996432662 1158
18.9799996428192 1100
18.9999996423721 1075
19.0199996419251 1126
19.0399996414781 1155
19.059999641031 1119
19.079999640584 1119
19.099999640137 1142
19.1199996396899 1140
19.1399996392429 1180
19.1599996387959 1166
19.1799996383488 1167
19.1999996379018 1135
19.2199996374547 1184
19.2399996370077 1252
19.2599996365607 1175
19.2799996361136 1155
19.2999996356666 1116
19.3199996352196 1212
19.3399996347725 1281
19.3599996343255 1258
19.3799996338785 1186
19.3999996334314 1215
19.4199996329844 1166
19.4399996325374 1204
19.4599996320903 1203
19.4799996316433 1223
19.4999996311963 1176
19.5199996307492 1210
19.5399996303022 1161
19.5599996298552 1192
19.5799996294081 1232
19.5999996289611 1170
19.6199996285141 1253
19.639999628067 1178
19.65999962762 1201
19.6799996271729 1288
19.6999996267259 1178
19.7199996262789 1234
19.7399996258318 1239
19.7599996253848 1218
19.7799996249378 1272
19.7999996244907 1283
19.8199996240437 1163
19.8399996235967 1245
19.8599996231496 1206
19.8799996227026 1251
19.8999996222556 1267
19.9199996218085 1263
19.9399996213615 1279
19.9599996209145 1364
19.9799996204674 1307
19.9999996200204 1267
