3 3146
3.01999999955297 2882
3.03999999910593 2758
3.0599999986589 2642
3.07999999821186 2534
3.09999999776483 2515
3.11999999731779 2453
3.13999999687076 2374
3.15999999642372 2378
3.17999999597669 2295
3.19999999552965 2282
3.21999999508262 2310
3.23999999463558 2273
3.25999999418855 2342
3.27999999374151 2254
3.29999999329448 2198
3.31999999284744 2215
3.33999999240041 2153
3.35999999195337 2137
3.37999999150634 2201
3.3999999910593 2207
3.41999999061227 2195
3.43999999016523 2177
3.4599999897182 2133
3.47999998927116 2110
3.49999998882413 2143
3.51999998837709 2062
3.53999998793006 2075
3.55999998748302 1976
3.57999998703599 1994
3.59999998658895 2066
3.61999998614192 2001
3.63999998569489 1957
3.65999998524785 2007
3.67999998480082 2066
3.69999998435378 1974
3.71999998390675 1997
3.73999998345971 1964
3.75999998301268 1917
3.77999998256564 1834
3.79999998211861 1877
3.81999998167157 1873
3.83999998122454 1874
3.8599999807775 1920
3.87999998033047 1837
3.89999997988343 1807
3.9199999794364 1842
3.93999997898936 1794
3.95999997854233 1792
3.97999997809529 1857
3.99999997764826 1816
4.01999997720122 1812
4.03999997675419 1817
4.05999997630715 1764
4.07999997586012 1747
4.09999997541308 1757
4.11999997496605 1798
4.13999997451901 1737
4.15999997407198 1735
4.17999997362494 1781
4.19999997317791 1804
4.21999997273087 1753
4.23999997228384 1696
4.25999997183681 1725
4.27999997138977 1674
4.29999997094274 1761
4.3199999704957 1663
4.33999997004867 1738
4.35999996960163 1730
4.3799999691546 1720
4.39999996870756 1646
4.41999996826053 1579
4.43999996781349 1617
4.45999996736646 1648
4.47999996691942 1644
4.49999996647239 1620
4.51999996602535 1621
4.53999996557832 1639
4.55999996513128 1617
4.57999996468425 1589
4.59999996423721 1602
4.61999996379018 1629
4.63999996334314 1606
4.65999996289611 1559
4.67999996244907 1591
4.69999996200204 1601
4.719999961555 1566
4.73999996110797 1523
4.75999996066093 1518
4.7799999602139 1531
4.79999995976686 1529
4.81999995931983 1524
4.83999995887279 1580
4.85999995842576 1624
4.87999995797873 1583
4.89999995753169 1640
4.91999995708466 1576
4.93999995663762 1553
4.95999995619059 1521
4.97999995574355 1579
4.99999995529652 1614
5.01999995484948 1572
5.03999995440245 1555
5.05999995395541 1632
5.07999995350838 1510
5.09999995306134 1584
5.11999995261431 1597
5.13999995216727 1552
5.15999995172024 1612
5.1799999512732 1689
5.19999995082617 1640
5.21999995037913 1674
5.2399999499321 1757
5.25999994948506 1812
5.27999994903803 1766
5.29999994859099 1922
5.31999994814396 1944
5.33999994769692 2062
5.35999994724989 2251
5.37999994680285 2447
5.39999994635582 2611
5.41999994590878 2583
5.43999994546175 2085
5.45999994501471 1759
5.47999994456768 1548
5.49999994412065 1462
5.51999994367361 1431
5.53999994322658 1416
5.55999994277954 1328
5.57999994233251 1276
5.59999994188547 1252
5.61999994143844 1237
5.6399999409914 1213
5.65999994054437 1226
5.67999994009733 1238
5.6999999396503 1219
5.71999993920326 1168
5.73999993875623 1137
5.75999993830919 1117
5.77999993786216 1108
5.79999993741512 1152
5.81999993696809 1087
5.83999993652105 1110
5.85999993607402 1063
5.87999993562698 1018
5.89999993517995 1069
5.91999993473291 1089
5.93999993428588 1050
5.95999993383884 978
5.97999993339181 1053
5.99999993294477 995
6.01999993249774 993
6.0399999320507 1038
6.05999993160367 930
6.07999993115663 931
6.0999999307096 960
6.11999993026257 986
6.13999992981553 975
6.1599999293685 900
6.17999992892146 977
6.19999992847443 950
6.21999992802739 954
6.23999992758036 926
6.25999992713332 928
6.27999992668629 901
6.29999992623925 878
6.31999992579222 879
6.33999992534518 891
6.35999992489815 873
6.37999992445111 870
6.39999992400408 833
6.41999992355704 845
6.43999992311001 831
6.45999992266297 854
6.47999992221594 888
6.4999999217689 813
6.51999992132187 844
6.53999992087483 779
6.5599999204278 820
6.57999991998076 810
6.59999991953373 839
6.61999991908669 849
6.63999991863966 770
6.65999991819262 836
6.67999991774559 786
6.69999991729855 749
6.71999991685152 815
6.73999991640449 812
6.75999991595745 784
6.77999991551042 752
6.79999991506338 781
6.81999991461635 802
6.83999991416931 760
6.85999991372228 734
6.87999991327524 753
6.89999991282821 734
6.91999991238117 697
6.93999991193414 747
6.9599999114871 799
6.97999991104007 768
6.99999991059303 761
7.019999910146 730
7.03999990969896 726
7.05999990925193 801
7.07999990880489 747
7.09999990835786 787
7.11999990791082 773
7.13999990746379 727
7.15999990701675 744
7.17999990656972 694
7.19999990612268 720
7.21999990567565 776
7.23999990522861 703
7.25999990478158 741
7.27999990433454 723
7.29999990388751 732
7.31999990344047 755
7.33999990299344 704
7.35999990254641 732
7.37999990209937 744
7.39999990165234 746
7.4199999012053 747
7.43999990075827 740
7.45999990031123 715
7.4799998998642 687
7.49999989941716 724
7.51999989897013 701
7.53999989852309 734
7.55999989807606 721
7.57999989762902 697
7.59999989718199 708
7.61999989673495 751
7.63999989628792 703
7.65999989584088 681
7.67999989539385 655
7.69999989494681 727
7.71999989449978 689
7.73999989405274 695
7.75999989360571 698
7.77999989315867 672
7.79999989271164 609
7.8199998922646 709
7.83999989181757 732
7.85999989137053 671
7.8799998909235 671
7.89999989047646 659
7.91999989002943 719
7.9399998895824 696
7.95999988913536 640
7.97999988868833 662
7.99999988824129 693
8.01999988779426 642
8.03999988734722 637
8.05999988690019 695
8.07999988645315 636
8.09999988600612 662
8.11999988555908 661
8.13999988511205 662
8.15999988466501 700
8.17999988421798 686
8.19999988377094 649
8.21999988332391 690
8.23999988287687 684
8.25999988242984 651
8.2799998819828 718
8.29999988153577 664
8.31999988108873 641
8.3399998806417 665
8.35999988019466 614
8.37999987974763 622
8.39999987930059 670
8.41999987885356 650
8.43999987840652 663
8.45999987795949 642
8.47999987751245 647
8.49999987706542 671
8.51999987661839 666
8.53999987617135 631
8.55999987572432 643
8.57999987527728 671
8.59999987483025 685
8.61999987438321 664
8.63999987393618 635
8.65999987348914 635
8.67999987304211 651
8.69999987259507 670
8.71999987214804 666
8.739999871701 656
8.75999987125397 615
8.77999987080693 689
8.7999998703599 710
8.81999986991286 650
8.83999986946583 644
8.85999986901879 644
8.87999986857176 639
8.89999986812472 662
8.91999986767769 655
8.93999986723065 664
8.95999986678362 685
8.97999986633658 633
8.99999986588955 664
9.01999986544251 670
9.03999986499548 670
9.05999986454844 679
9.07999986410141 708
9.09999986365438 670
9.11999986320734 725
9.13999986276031 687
9.15999986231327 715
9.17999986186624 730
9.1999998614192 769
9.21999986097217 755
9.23999986052513 797
9.2599998600781 847
9.27999985963106 941
9.29999985918403 957
9.31999985873699 1044
9.33999985828996 946
9.35999985784292 878
9.37999985739589 786
9.39999985694885 713
9.41999985650182 709
9.43999985605478 659
9.45999985560775 702
9.47999985516071 663
9.49999985471368 678
9.51999985426664 665
9.53999985381961 647
9.55999985337257 588
9.57999985292554 613
9.5999998524785 607
9.61999985203147 618
9.63999985158443 594
9.6599998511374 663
9.67999985069037 637
9.69999985024333 633
9.7199998497963 647
9.73999984934926 659
9.75999984890223 632
9.77999984845519 626
9.79999984800816 623
9.81999984756112 615
9.83999984711409 559
9.85999984666705 630
9.87999984622002 595
9.89999984577298 605
9.91999984532595 634
9.93999984487891 604
9.95999984443188 595
9.97999984398484 652
9.99999984353781 600
10.0199998430908 619
10.0399998426437 576
10.0599998421967 624
10.0799998417497 597
10.0999998413026 578
10.1199998408556 647
10.1399998404086 651
10.1599998399615 605
10.1799998395145 585
10.1999998390675 628
10.2199998386204 576
10.2399998381734 582
10.2599998377264 572
10.2799998372793 673
10.2999998368323 613
10.3199998363853 582
10.3399998359382 663
10.3599998354912 635
10.3799998350441 594
10.3999998345971 637
10.4199998341501 605
10.439999833703 589
10.459999833256 598
10.479999832809 602
10.4999998323619 631
10.5199998319149 607
10.5399998314679 632
10.5599998310208 635
10.5799998305738 602
10.5999998301268 628
10.6199998296797 665
10.6399998292327 668
10.6599998287857 696
10.6799998283386 686
10.6999998278916 731
10.7199998274446 756
10.7399998269975 756
10.7599998265505 776
10.7799998261034 759
10.7999998256564 699
10.8199998252094 670
10.8399998247623 670
10.8599998243153 673
10.8799998238683 644
10.8999998234212 598
10.9199998229742 583
10.9399998225272 609
10.9599998220801 583
10.9799998216331 604
10.9999998211861 544
11.019999820739 572
11.039999820292 603
11.059999819845 614
11.0799998193979 589
11.0999998189509 546
11.1199998185039 556
11.1399998180568 593
11.1599998176098 590
11.1799998171628 546
11.1999998167157 591
11.2199998162687 593
11.2399998158216 565
11.2599998153746 558
11.2799998149276 542
11.2999998144805 602
11.3199998140335 580
11.3399998135865 535
11.3599998131394 582
11.3799998126924 503
11.3999998122454 559
11.4199998117983 562
11.4399998113513 546
11.4599998109043 558
11.4799998104572 541
11.4999998100102 514
11.5199998095632 562
11.5399998091161 595
11.5599998086691 564
11.5799998082221 564
11.599999807775 553
11.619999807328 570
11.639999806881 559
11.6599998064339 602
11.6799998059869 543
11.6999998055398 587
11.7199998050928 547
11.7399998046458 589
11.7599998041987 567
11.7799998037517 565
11.7999998033047 540
11.8199998028576 577
11.8399998024106 578
11.8599998019636 540
11.8799998015165 587
11.8999998010695 559
11.9199998006225 598
11.9399998001754 575
11.9599997997284 575
11.9799997992814 580
11.9999997988343 563
12.0199997983873 551
12.0399997979403 598
12.0599997974932 567
12.0799997970462 568
12.0999997965992 556
12.1199997961521 584
12.1399997957051 597
12.159999795258 591
12.179999794811 544
12.199999794364 578
12.2199997939169 565
12.2399997934699 599
12.2599997930229 604
12.2799997925758 571
12.2999997921288 578
12.3199997916818 584
12.3399997912347 601
12.3599997907877 571
12.3799997903407 600
12.3999997898936 568
12.4199997894466 601
12.4399997889996 581
12.4599997885525 560
12.4799997881055 612
12.4999997876585 553
12.5199997872114 574
12.5399997867644 597
12.5599997863173 579
12.5799997858703 552
12.5999997854233 535
12.6199997849762 570
12.6399997845292 595
12.6599997840822 567
12.6799997836351 533
12.6999997831881 616
12.7199997827411 563
12.739999782294 558
12.759999781847 588
12.7799997814 591
12.7999997809529 585
12.8199997805059 588
12.8399997800589 545
12.8599997796118 589
12.8799997791648 611
12.8999997787178 604
12.9199997782707 552
12.9399997778237 574
12.9599997773767 588
12.9799997769296 568
12.9999997764826 609
13.0199997760355 573
13.0399997755885 580
13.0599997751415 581
13.0799997746944 574
13.0999997742474 595
13.1199997738004 580
13.1399997733533 562
13.1599997729063 605
13.1799997724593 597
13.1999997720122 573
13.2199997715652 600
13.2399997711182 634
13.2599997706711 549
13.2799997702241 599
13.2999997697771 618
13.31999976933 593
13.339999768883 619
13.359999768436 630
13.3799997679889 556
13.3999997675419 585
13.4199997670949 554
13.4399997666478 596
13.4599997662008 586
13.4799997657537 605
13.4999997653067 571
13.5199997648597 581
13.5399997644126 600
13.5599997639656 613
13.5799997635186 596
13.5999997630715 597
13.6199997626245 554
13.6399997621775 607
13.6599997617304 610
13.6799997612834 591
13.6999997608364 600
13.7199997603893 602
13.7399997599423 605
13.7599997594953 593
13.7799997590482 608
13.7999997586012 610
13.8199997581542 608
13.8399997577071 593
13.8599997572601 608
13.879999756813 585
13.899999756366 618
13.919999755919 634
13.9399997554719 632
13.9599997550249 577
13.9799997545779 595
13.9999997541308 614
14.0199997536838 596
14.0399997532368 635
14.0599997527897 602
14.0799997523427 642
14.0999997518957 629
14.1199997514486 579
14.1399997510016 610
14.1599997505546 597
14.1799997501075 674
14.1999997496605 615
14.2199997492135 626
14.2399997487664 661
14.2599997483194 655
14.2799997478724 616
14.2999997474253 589
14.3199997469783 577
14.3399997465312 629
14.3599997460842 587
14.3799997456372 591
14.3999997451901 624
14.4199997447431 624
14.4399997442961 651
14.459999743849 606
14.479999743402 601
14.499999742955 594
14.5199997425079 622
14.5399997420609 623
14.5599997416139 586
14.5799997411668 608
14.5999997407198 652
14.6199997402728 605
14.6399997398257 587
14.6599997393787 649
14.6799997389317 610
14.6999997384846 643
14.7199997380376 632
14.7399997375906 592
14.7599997371435 627
14.7799997366965 629
14.7999997362494 650
14.8199997358024 638
14.8399997353554 586
14.8599997349083 607
14.8799997344613 610
14.8999997340143 635
14.9199997335672 585
14.9399997331202 615
14.9599997326732 593
14.9799997322261 624
14.9999997317791 651
15.0199997313321 631
15.039999730885 692
15.059999730438 611
15.079999729991 614
15.0999997295439 634
15.1199997290969 639
15.1399997286499 628
15.1599997282028 625
15.1799997277558 593
15.1999997273088 608
15.2199997268617 659
15.2399997264147 672
15.2599997259676 622
15.2799997255206 656
15.2999997250736 673
15.3199997246265 679
15.3399997241795 664
15.3599997237325 633
15.3799997232854 631
15.3999997228384 680
15.4199997223914 659
15.4399997219443 648
15.4599997214973 670
15.4799997210503 645
15.4999997206032 660
15.5199997201562 679
15.5399997197092 653
15.5599997192621 607
15.5799997188151 661
15.5999997183681 667
15.619999717921 696
15.639999717474 725
15.659999717027 680
15.6799997165799 664
15.6999997161329 681
15.7199997156858 664
15.7399997152388 594
15.7599997147918 649
15.7799997143447 702
15.7999997138977 679
15.8199997134507 672
15.8399997130036 681
15.8599997125566 716
15.8799997121096 672
15.8999997116625 674
15.9199997112155 681
15.9399997107685 677
15.9599997103214 696
15.9799997098744 697
15.9999997094274 662
16.0199997089803 676
16.0399997085333 700
16.0599997080863 688
16.0799997076392 713
16.0999997071922 678
16.1199997067451 710
16.1399997062981 734
16.1599997058511 667
16.179999705404 680
16.199999704957 754
16.21999970451 702
16.2399997040629 704
16.2599997036159 689
16.2799997031689 663
16.2999997027218 700
16.3199997022748 749
16.3399997018278 716
16.3599997013807 722
16.3799997009337 712
16.3999997004867 736
16.4199997000396 673
16.4399996995926 700
16.4599996991456 739
16.4799996986985 728
16.4999996982515 734
16.5199996978045 725
16.5399996973574 728
16.5599996969104 730
16.5799996964633 729
16.5999996960163 703
16.6199996955693 684
16.6399996951222 776
16.6599996946752 746
16.6799996942282 725
16.6999996937811 760
16.7199996933341 709
16.7399996928871 775
16.75999969244 787
16.779999691993 773
16.799999691546 793
16.8199996910989 801
16.8399996906519 852
16.8599996902049 873
16.8799996897578 847
16.8999996893108 862
16.9199996888638 916
16.9399996884167 1019
16.9599996879697 1248
16.9799996875226 2163
16.9999996870756 2060
17.0199996866286 2009
17.0399996861815 1695
17.0599996857345 1140
17.0799996852875 990
17.0999996848404 874
17.1199996843934 845
17.1399996839464 755
17.1599996834993 814
17.1799996830523 779
17.1999996826053 764
17.2199996821582 790
17.2399996817112 775
17.2599996812642 782
17.2799996808171 876
17.2999996803701 832
17.3199996799231 841
17.339999679476 770
17.359999679029 775
17.379999678582 772
17.3999996781349 769
17.4199996776879 866
17.4399996772408 753
17.4599996767938 844
17.4799996763468 846
17.4999996758997 861
17.5199996754527 778
17.5399996750057 823
17.5599996745586 808
17.5799996741116 859
17.5999996736646 778
17.6199996732175 808
17.6399996727705 815
17.6599996723235 798
17.6799996718764 773
17.6999996714294 824
17.7199996709824 835
17.7399996705353 797
17.7599996700883 861
17.7799996696413 820
17.7999996691942 820
17.8199996687472 835
17.8399996683002 805
17.8599996678531 838
17.8799996674061 811
17.899999666959 791
17.919999666512 765
17.939999666065 846
17.9599996656179 812
17.9799996651709 827
17.9999996647239 827
18.0199996642768 789
18.0399996638298 830
18.0599996633828 832
18.0799996629357 840
18.0999996624887 826
18.1199996620417 810
18.1399996615946 846
18.1599996611476 872
18.1799996607006 816
18.1999996602535 855
18.2199996598065 836
18.2399996593595 850
18.2599996589124 847
18.2799996584654 875
18.2999996580184 802
18.3199996575713 889
18.3399996571243 872
18.3599996566772 870
18.3799996562302 834
18.3999996557832 851
18.4199996553361 829
18.4399996548891 858
18.4599996544421 901
18.479999653995 887
18.499999653548 850
18.519999653101 872
18.5399996526539 828
18.5599996522069 884
18.5799996517599 846
18.5999996513128 882
18.6199996508658 911
18.6399996504188 952
18.6599996499717 951
18.6799996495247 915
18.6999996490777 905
18.7199996486306 980
18.7399996481836 888
18.7599996477366 926
18.7799996472895 894
18.7999996468425 922
18.8199996463954 915
18.8399996459484 929
18.8599996455014 936
18.8799996450543 945
18.8999996446073 903
18.9199996441603 923
18.9399996437132 929
18.9599996432662 902
18.9799996428192 925
18.9999996423721 975
19.0199996419251 1009
19.0399996414781 939
19.059999641031 982
19.079999640584 943
19.099999640137 949
19.1199996396899 950
19.1399996392429 935
19.1599996387959 912
19.1799996383488 968
19.1999996379018 959
19.2199996374547 973
19.2399996370077 987
19.2599996365607 1002
19.2799996361136 938
19.2999996356666 959
19.3199996352196 977
19.3399996347725 957
19.3599996343255 1034
19.3799996338785 1026
19.3999996334314 1066
19.4199996329844 1029
19.4399996325374 1072
19.4599996320903 1064
19.4799996316433 1034
19.4999996311963 1038
19.5199996307492 997
19.5399996303022 995
19.5599996298552 967
19.5799996294081 1002
19.5999996289611 981
19.6199996285141 991
19.639999628067 1031
19.65999962762 956
19.6799996271729 1019
19.6999996267259 1024
19.7199996262789 984
19.7399996258318 1021
19.7599996253848 1015
19.7799996249378 996
19.7999996244907 978
19.8199996240437 1020
19.8399996235967 995
19.8599996231496 1009
19.8799996227026 985
19.8999996222556 1068
19.9199996218085 1048
19.9399996213615 1039
19.9599996209145 1000
19.9799996204674 968
19.9999996200204 1003
