3 2403
3.01999999955297 2212
3.03999999910593 2068
3.0599999986589 2044
3.07999999821186 1913
3.09999999776483 1862
3.11999999731779 1844
3.13999999687076 1738
3.15999999642372 1834
3.17999999597669 1711
3.19999999552965 1709
3.21999999508262 1667
3.23999999463558 1701
3.25999999418855 1657
3.27999999374151 1583
3.29999999329448 1621
3.31999999284744 1646
3.33999999240041 1588
3.35999999195337 1579
3.37999999150634 1592
3.3999999910593 1611
3.41999999061227 1591
3.43999999016523 1564
3.4599999897182 1534
3.47999998927116 1518
3.49999998882413 1500
3.51999998837709 1412
3.53999998793006 1423
3.55999998748302 1458
3.57999998703599 1471
3.59999998658895 1391
3.61999998614192 1447
3.63999998569489 1404
3.65999998524785 1443
3.67999998480082 1414
3.69999998435378 1373
3.71999998390675 1323
3.73999998345971 1362
3.75999998301268 1361
3.77999998256564 1382
3.79999998211861 1321
3.81999998167157 1294
3.83999998122454 1261
3.8599999807775 1262
3.87999998033047 1318
3.89999997988343 1315
3.9199999794364 1217
3.93999997898936 1269
3.95999997854233 1264
3.97999997809529 1262
3.99999997764826 1223
4.01999997720122 1236
4.03999997675419 1232
4.05999997630715 1181
4.07999997586012 1184
4.09999997541308 1163
4.11999997496605 1151
4.13999997451901 1182
4.15999997407198 1221
4.17999997362494 1228
4.19999997317791 1206
4.21999997273087 1146
4.23999997228384 1126
4.25999997183681 1126
4.27999997138977 1123
4.29999997094274 1087
4.3199999704957 1122
4.33999997004867 1087
4.35999996960163 1143
4.3799999691546 1081
4.39999996870756 1089
4.41999996826053 1048
4.43999996781349 1076
4.45999996736646 1105
4.47999996691942 1071
4.49999996647239 1037
4.51999996602535 1107
4.53999996557832 1076
4.55999996513128 1094
4.57999996468425 1070
4.59999996423721 1037
4.61999996379018 1085
4.63999996334314 1013
4.65999996289611 1000
4.67999996244907 1037
4.69999996200204 970
4.719999961555 1039
4.73999996110797 1020
4.75999996066093 999
4.7799999602139 974
4.79999995976686 970
4.81999995931983 954
4.83999995887279 973
4.85999995842576 920
4.87999995797873 954
4.89999995753169 989
4.91999995708466 1003
4.93999995663762 1025
4.95999995619059 960
4.97999995574355 929
4.99999995529652 936
5.01999995484948 974
5.03999995440245 986
5.05999995395541 903
5.07999995350838 935
5.09999995306134 952
5.11999995261431 921
5.13999995216727 938
5.15999995172024 877
5.1799999512732 955
5.19999995082617 973
5.21999995037913 909
5.2399999499321 914
5.25999994948506 930
5.27999994903803 865
5.29999994859099 967
5.31999994814396 961
5.33999994769692 894
5.35999994724989 892
5.37999994680285 911
5.39999994635582 967
5.41999994590878 921
5.43999994546175 948
5.45999994501471 974
5.47999994456768 928
5.49999994412065 938
5.51999994367361 971
5.53999994322658 932
5.55999994277954 910
5.57999994233251 883
5.59999994188547 853
5.61999994143844 861
5.6399999409914 872
5.65999994054437 785
5.67999994009733 790
5.6999999396503 776
5.71999993920326 806
5.73999993875623 809
5.75999993830919 827
5.77999993786216 779
5.79999993741512 827
5.81999993696809 823
5.83999993652105 811
5.85999993607402 759
5.87999993562698 808
5.89999993517995 748
5.91999993473291 759
5.93999993428588 763
5.95999993383884 705
5.97999993339181 752
5.99999993294477 713
6.01999993249774 761
6.0399999320507 718
6.05999993160367 715
6.07999993115663 738
6.0999999307096 732
6.11999993026257 740
6.13999992981553 750
6.1599999293685 766
6.17999992892146 702
6.19999992847443 750
6.21999992802739 714
6.23999992758036 727
6.25999992713332 698
6.27999992668629 712
6.29999992623925 732
6.31999992579222 735
6.33999992534518 701
6.35999992489815 693
6.37999992445111 671
6.39999992400408 714
6.41999992355704 694
6.43999992311001 605
6.45999992266297 657
6.47999992221594 665
6.4999999217689 639
6.51999992132187 640
6.53999992087483 676
6.5599999204278 662
6.57999991998076 652
6.59999991953373 653
6.61999991908669 669
6.63999991863966 638
6.65999991819262 650
6.67999991774559 648
6.69999991729855 643
6.71999991685152 665
6.73999991640449 645
6.75999991595745 663
6.77999991551042 637
6.79999991506338 662
6.81999991461635 669
6.83999991416931 665
6.85999991372228 623
6.87999991327524 665
6.89999991282821 613
6.91999991238117 666
6.93999991193414 600
6.9599999114871 638
6.97999991104007 639
6.99999991059303 651
7.019999910146 626
7.03999990969896 636
7.05999990925193 675
7.07999990880489 622
7.09999990835786 613
7.11999990791082 618
7.13999990746379 607
7.15999990701675 626
7.17999990656972 632
7.19999990612268 624
7.21999990567565 620
7.23999990522861 585
7.25999990478158 598
7.27999990433454 559
7.29999990388751 619
7.31999990344047 671
7.33999990299344 597
7.35999990254641 612
7.37999990209937 636
7.39999990165234 608
7.4199999012053 560
7.43999990075827 621
7.45999990031123 614
7.4799998998642 635
7.49999989941716 592
7.51999989897013 594
7.53999989852309 598
7.55999989807606 536
7.57999989762902 593
7.59999989718199 602
7.61999989673495 637
7.63999989628792 580
7.65999989584088 614
7.67999989539385 578
7.69999989494681 609
7.71999989449978 584
7.73999989405274 604
7.75999989360571 590
7.77999989315867 583
7.79999989271164 595
7.8199998922646 611
7.83999989181757 613
7.85999989137053 548
7.8799998909235 620
7.89999989047646 585
7.91999989002943 580
7.9399998895824 531
7.95999988913536 615
7.97999988868833 579
7.99999988824129 589
8.01999988779426 574
8.03999988734722 530
8.05999988690019 563
8.07999988645315 534
8.09999988600612 542
8.11999988555908 569
8.13999988511205 558
8.15999988466501 588
8.17999988421798 565
8.19999988377094 577
8.21999988332391 588
8.23999988287687 562
8.25999988242984 565
8.2799998819828 557
8.29999988153577 634
8.31999988108873 579
8.3399998806417 555
8.35999988019466 569
8.37999987974763 552
8.39999987930059 579
8.41999987885356 515
8.43999987840652 570
8.45999987795949 541
8.47999987751245 527
8.49999987706542 568
8.51999987661839 552
8.53999987617135 593
8.55999987572432 578
8.57999987527728 566
8.59999987483025 554
8.61999987438321 588
8.63999987393618 573
8.65999987348914 568
8.67999987304211 541
8.69999987259507 590
8.71999987214804 560
8.739999871701 564
8.75999987125397 551
8.77999987080693 553
8.7999998703599 556
8.81999986991286 579
8.83999986946583 542
8.85999986901879 550
8.87999986857176 555
8.89999986812472 588
8.91999986767769 545
8.93999986723065 561
8.95999986678362 541
8.97999986633658 556
8.99999986588955 550
9.01999986544251 570
9.03999986499548 552
9.05999986454844 574
9.07999986410141 545
9.09999986365438 574
9.11999986320734 538
9.13999986276031 553
9.15999986231327 513
9.17999986186624 560
9.1999998614192 520
9.21999986097217 542
9.23999986052513 572
9.2599998600781 520
9.27999985963106 571
9.29999985918403 566
9.31999985873699 547
9.33999985828996 622
9.35999985784292 588
9.37999985739589 540
9.39999985694885 573
9.41999985650182 596
9.43999985605478 537
9.45999985560775 566
9.47999985516071 591
9.49999985471368 569
9.51999985426664 544
9.53999985381961 519
9.55999985337257 552
9.57999985292554 522
9.5999998524785 555
9.61999985203147 590
9.63999985158443 535
9.6599998511374 517
9.67999985069037 489
9.69999985024333 543
9.7199998497963 525
9.73999984934926 521
9.75999984890223 531
9.77999984845519 570
9.79999984800816 531
9.81999984756112 510
9.83999984711409 491
9.85999984666705 506
9.87999984622002 536
9.89999984577298 543
9.91999984532595 499
9.93999984487891 539
9.95999984443188 529
9.97999984398484 471
9.99999984353781 590
10.0199998430908 539
10.0399998426437 536
10.0599998421967 550
10.0799998417497 534
10.0999998413026 475
10.1199998408556 531
10.1399998404086 524
10.1599998399615 545
10.1799998395145 488
10.1999998390675 543
10.2199998386204 559
10.2399998381734 500
10.2599998377264 550
10.2799998372793 502
10.2999998368323 530
10.3199998363853 507
10.3399998359382 473
10.3599998354912 515
10.3799998350441 533
10.3999998345971 545
10.4199998341501 487
10.439999833703 513
10.459999833256 524
10.479999832809 531
10.4999998323619 490
10.5199998319149 467
10.5399998314679 525
10.5599998310208 517
10.5799998305738 473
10.5999998301268 513
10.6199998296797 530
10.6399998292327 488
10.6599998287857 469
10.6799998283386 509
10.6999998278916 512
10.7199998274446 503
10.7399998269975 512
10.7599998265505 495
10.7799998261034 519
10.7999998256564 545
10.8199998252094 532
10.8399998247623 493
10.8599998243153 496
10.8799998238683 503
10.8999998234212 542
10.9199998229742 497
10.9399998225272 538
10.9599998220801 494
10.9799998216331 479
10.9999998211861 470
11.019999820739 503
11.039999820292 517
11.059999819845 530
11.0799998193979 484
11.0999998189509 500
11.1199998185039 504
11.1399998180568 528
11.1599998176098 510
11.1799998171628 492
11.1999998167157 525
11.2199998162687 481
11.2399998158216 485
11.2599998153746 495
11.2799998149276 475
11.2999998144805 495
11.3199998140335 490
11.3399998135865 497
11.3599998131394 535
11.3799998126924 472
11.3999998122454 484
11.4199998117983 491
11.4399998113513 549
11.4599998109043 552
11.4799998104572 509
11.4999998100102 491
11.5199998095632 472
11.5399998091161 508
11.5599998086691 468
11.5799998082221 490
11.599999807775 510
11.619999807328 495
11.639999806881 488
11.6599998064339 509
11.6799998059869 508
11.6999998055398 484
11.7199998050928 478
11.7399998046458 504
11.7599998041987 460
11.7799998037517 476
11.7999998033047 477
11.8199998028576 470
11.8399998024106 442
11.8599998019636 505
11.8799998015165 479
11.8999998010695 467
11.9199998006225 454
11.9399998001754 491
11.9599997997284 487
11.9799997992814 495
11.9999997988343 527
12.0199997983873 472
12.0399997979403 463
12.0599997974932 476
12.0799997970462 485
12.0999997965992 530
12.1199997961521 541
12.1399997957051 489
12.159999795258 490
12.179999794811 511
12.199999794364 517
12.2199997939169 481
12.2399997934699 484
12.2599997930229 494
12.2799997925758 488
12.2999997921288 483
12.3199997916818 466
12.3399997912347 477
12.3599997907877 492
12.3799997903407 505
12.3999997898936 501
12.4199997894466 484
12.4399997889996 517
12.4599997885525 515
12.4799997881055 474
12.4999997876585 488
12.5199997872114 526
12.5399997867644 509
12.5599997863173 493
12.5799997858703 555
12.5999997854233 516
12.6199997849762 551
12.6399997845292 535
12.6599997840822 510
12.6799997836351 517
12.6999997831881 542
12.7199997827411 477
12.739999782294 510
12.759999781847 487
12.7799997814 540
12.7999997809529 506
12.8199997805059 488
12.8399997800589 509
12.8599997796118 502
12.8799997791648 521
12.8999997787178 496
12.9199997782707 499
12.9399997778237 478
12.9599997773767 503
12.9799997769296 501
12.9999997764826 518
13.0199997760355 539
13.0399997755885 546
13.0599997751415 505
13.0799997746944 531
13.0999997742474 509
13.1199997738004 487
13.1399997733533 517
13.1599997729063 522
13.1799997724593 556
13.1999997720122 556
13.2199997715652 515
13.2399997711182 494
13.2599997706711 503
13.2799997702241 545
13.2999997697771 566
13.31999976933 509
13.339999768883 496
13.359999768436 478
13.3799997679889 514
13.3999997675419 489
13.4199997670949 548
13.4399997666478 517
13.4599997662008 509
13.4799997657537 540
13.4999997653067 500
13.5199997648597 547
13.5399997644126 489
13.5599997639656 536
13.5799997635186 547
13.5999997630715 524
13.6199997626245 493
13.6399997621775 563
13.6599997617304 542
13.6799997612834 506
13.6999997608364 512
13.7199997603893 532
13.7399997599423 538
13.7599997594953 521
13.7799997590482 542
13.7999997586012 544
13.8199997581542 515
13.8399997577071 575
13.8599997572601 525
13.879999756813 509
13.899999756366 557
13.919999755919 539
13.9399997554719 593
13.9599997550249 513
13.9799997545779 537
13.9999997541308 534
14.0199997536838 553
14.0399997532368 534
14.0599997527897 598
14.0799997523427 520
14.0999997518957 563
14.1199997514486 530
14.1399997510016 550
14.1599997505546 519
14.1799997501075 511
14.1999997496605 502
14.2199997492135 572
14.2399997487664 577
14.2599997483194 521
14.2799997478724 566
14.2999997474253 551
14.3199997469783 554
14.3399997465312 598
14.3599997460842 557
14.3799997456372 564
14.3999997451901 566
14.4199997447431 597
14.4399997442961 592
14.459999743849 565
14.479999743402 558
14.499999742955 536
14.5199997425079 538
14.5399997420609 572
14.5599997416139 553
14.5799997411668 587
14.5999997407198 579
14.6199997402728 579
14.6399997398257 579
14.6599997393787 583
14.6799997389317 554
14.6999997384846 614
14.7199997380376 587
14.7399997375906 560
14.7599997371435 583
14.7799997366965 608
14.7999997362494 611
14.8199997358024 585
14.8399997353554 572
14.8599997349083 604
14.8799997344613 593
14.8999997340143 586
14.9199997335672 617
14.9399997331202 537
14.9599997326732 593
14.9799997322261 589
14.9999997317791 578
15.0199997313321 608
15.039999730885 609
15.059999730438 597
15.079999729991 595
15.0999997295439 612
15.1199997290969 599
15.1399997286499 641
15.1599997282028 551
15.1799997277558 597
15.1999997273088 585
15.2199997268617 596
15.2399997264147 604
15.2599997259676 604
15.2799997255206 619
15.2999997250736 654
15.3199997246265 598
15.3399997241795 564
15.3599997237325 602
15.3799997232854 619
15.3999997228384 613
15.4199997223914 652
15.4399997219443 621
15.4599997214973 585
15.4799997210503 612
15.4999997206032 601
15.5199997201562 608
15.5399997197092 620
15.5599997192621 615
15.5799997188151 559
15.5999997183681 593
15.619999717921 647
15.639999717474 583
15.659999717027 672
15.6799997165799 628
15.6999997161329 624
15.7199997156858 650
15.7399997152388 589
15.7599997147918 627
15.7799997143447 624
15.7999997138977 616
15.8199997134507 639
15.8399997130036 634
15.8599997125566 661
15.8799997121096 658
15.8999997116625 644
15.9199997112155 653
15.9399997107685 682
15.9599997103214 680
15.9799997098744 676
15.9999997094274 657
16.0199997089803 682
16.0399997085333 634
16.0599997080863 647
16.0799997076392 658
16.0999997071922 607
16.1199997067451 652
16.1399997062981 652
16.1599997058511 712
16.179999705404 635
16.199999704957 633
16.21999970451 695
16.2399997040629 717
16.2599997036159 646
16.2799997031689 626
16.2999997027218 691
16.3199997022748 736
16.3399997018278 712
16.3599997013807 674
16.3799997009337 675
16.3999997004867 711
16.4199997000396 714
16.4399996995926 696
16.4599996991456 692
16.4799996986985 683
16.4999996982515 722
16.5199996978045 702
16.5399996973574 689
16.5599996969104 694
16.5799996964633 702
16.5999996960163 674
16.6199996955693 686
16.6399996951222 717
16.6599996946752 738
16.6799996942282 700
16.6999996937811 699
16.7199996933341 705
16.7399996928871 700
16.75999969244 722
16.779999691993 712
16.799999691546 723
16.8199996910989 731
16.8399996906519 747
16.8599996902049 787
16.8799996897578 795
16.8999996893108 754
16.9199996888638 794
16.9399996884167 845
16.9599996879697 846
16.9799996875226 981
16.9999996870756 1027
17.0199996866286 1166
17.0399996861815 1292
17.0599996857345 1367
17.0799996852875 1332
17.0999996848404 1362
17.1199996843934 1241
17.1399996839464 1156
17.1599996834993 966
17.1799996830523 876
17.1999996826053 815
17.2199996821582 766
17.2399996817112 811
17.2599996812642 781
17.2799996808171 720
17.2999996803701 736
17.3199996799231 730
17.339999679476 790
17.359999679029 800
17.379999678582 800
17.3999996781349 739
17.4199996776879 770
17.4399996772408 793
17.4599996767938 710
17.4799996763468 712
17.4999996758997 712
17.5199996754527 752
17.5399996750057 795
17.5599996745586 813
17.5799996741116 798
17.5999996736646 809
17.6199996732175 759
17.6399996727705 759
17.6599996723235 842
17.6799996718764 822
17.6999996714294 848
17.7199996709824 803
17.7399996705353 848
17.7599996700883 803
17.7799996696413 811
17.7999996691942 829
17.8199996687472 769
17.8399996683002 798
17.8599996678531 800
17.8799996674061 807
17.899999666959 778
17.919999666512 839
17.939999666065 821
17.9599996656179 814
17.9799996651709 849
17.9999996647239 828
18.0199996642768 832
18.0399996638298 823
18.0599996633828 832
18.0799996629357 840
18.0999996624887 849
18.1199996620417 825
18.1399996615946 814
18.1599996611476 847
18.1799996607006 865
18.1999996602535 838
18.2199996598065 864
18.2399996593595 910
18.2599996589124 878
18.2799996584654 883
18.2999996580184 787
18.3199996575713 843
18.3399996571243 838
18.3599996566772 803
18.3799996562302 905
18.3999996557832 887
18.4199996553361 874
18.4399996548891 836
18.4599996544421 897
18.479999653995 838
18.499999653548 895
18.519999653101 844
18.5399996526539 901
18.5599996522069 898
18.5799996517599 897
18.5999996513128 890
18.6199996508658 841
18.6399996504188 839
18.6599996499717 980
18.6799996495247 913
18.6999996490777 918
18.7199996486306 990
18.7399996481836 914
18.7599996477366 942
18.7799996472895 938
18.7999996468425 928
18.8199996463954 967
18.8399996459484 931
18.8599996455014 931
18.8799996450543 882
18.8999996446073 894
18.9199996441603 904
18.9399996437132 972
18.9599996432662 939
18.9799996428192 961
18.9999996423721 966
19.0199996419251 896
19.0399996414781 934
19.059999641031 942
19.079999640584 949
19.099999640137 971
19.1199996396899 965
19.1399996392429 949
19.1599996387959 964
19.1799996383488 979
19.1999996379018 951
19.2199996374547 961
19.2399996370077 980
19.2599996365607 995
19.2799996361136 998
19.2999996356666 1010
19.3199996352196 945
19.3399996347725 1010
19.3599996343255 984
19.3799996338785 975
19.3999996334314 980
19.4199996329844 1010
19.4399996325374 984
19.4599996320903 943
19.4799996316433 957
19.4999996311963 957
19.5199996307492 982
19.5399996303022 931
19.5599996298552 1041
19.5799996294081 968
19.5999996289611 1052
19.6199996285141 1048
19.639999628067 990
19.65999962762 1057
19.6799996271729 1004
19.6999996267259 994
19.7199996262789 1020
19.7399996258318 1065
19.7599996253848 1034
19.7799996249378 1033
19.7999996244907 1043
19.8199996240437 1059
19.8399996235967 1005
19.8599996231496 1053
19.8799996227026 1058
19.8999996222556 1035
19.9199996218085 1047
19.9399996213615 1059
19.9599996209145 1072
19.9799996204674 1036
19.9999996200204 1111
