3 3106
3.01999999955297 2958
3.03999999910593 2723
3.0599999986589 2589
3.07999999821186 2595
3.09999999776483 2529
3.11999999731779 2421
3.13999999687076 2308
3.15999999642372 2328
3.17999999597669 2322
3.19999999552965 2253
3.21999999508262 2209
3.23999999463558 2274
3.25999999418855 2181
3.27999999374151 2155
3.29999999329448 2194
3.31999999284744 2160
3.33999999240041 2020
3.35999999195337 2046
3.37999999150634 1968
3.3999999910593 2009
3.41999999061227 1945
3.43999999016523 1870
3.4599999897182 1893
3.47999998927116 1890
3.49999998882413 1846
3.51999998837709 1815
3.53999998793006 1808
3.55999998748302 1751
3.57999998703599 1777
3.59999998658895 1776
3.61999998614192 1702
3.63999998569489 1798
3.65999998524785 1724
3.67999998480082 1674
3.69999998435378 1672
3.71999998390675 1644
3.73999998345971 1605
3.75999998301268 1602
3.77999998256564 1598
3.79999998211861 1593
3.81999998167157 1569
3.83999998122454 1532
3.8599999807775 1552
3.87999998033047 1530
3.89999997988343 1569
3.9199999794364 1495
3.93999997898936 1455
3.95999997854233 1493
3.97999997809529 1467
3.99999997764826 1461
4.01999997720122 1411
4.03999997675419 1416
4.05999997630715 1413
4.07999997586012 1383
4.09999997541308 1423
4.11999997496605 1367
4.13999997451901 1384
4.15999997407198 1324
4.17999997362494 1330
4.19999997317791 1299
4.21999997273087 1302
4.23999997228384 1223
4.25999997183681 1268
4.27999997138977 1337
4.29999997094274 1226
4.3199999704957 1277
4.33999997004867 1305
4.35999996960163 1289
4.3799999691546 1192
4.39999996870756 1202
4.41999996826053 1214
4.43999996781349 1201
4.45999996736646 1188
4.47999996691942 1250
4.49999996647239 1213
4.51999996602535 1185
4.53999996557832 1121
4.55999996513128 1174
4.57999996468425 1135
4.59999996423721 1146
4.61999996379018 1154
4.63999996334314 1161
4.65999996289611 1103
4.67999996244907 1130
4.69999996200204 1116
4.719999961555 1181
4.73999996110797 1107
4.75999996066093 1060
4.7799999602139 1046
4.79999995976686 1082
4.81999995931983 1032
4.83999995887279 1016
4.85999995842576 1033
4.87999995797873 1052
4.89999995753169 1068
4.91999995708466 1091
4.93999995663762 941
4.95999995619059 1018
4.97999995574355 1062
4.99999995529652 993
5.01999995484948 975
5.03999995440245 967
5.05999995395541 988
5.07999995350838 972
5.09999995306134 977
5.11999995261431 956
5.13999995216727 982
5.15999995172024 928
5.1799999512732 950
5.19999995082617 1019
5.21999995037913 990
5.2399999499321 941
5.25999994948506 970
5.27999994903803 902
5.29999994859099 921
5.31999994814396 958
5.33999994769692 907
5.35999994724989 904
5.37999994680285 945
5.39999994635582 932
5.41999994590878 846
5.43999994546175 934
5.45999994501471 911
5.47999994456768 887
5.49999994412065 852
5.51999994367361 869
5.53999994322658 879
5.55999994277954 875
5.57999994233251 828
5.59999994188547 850
5.61999994143844 815
5.6399999409914 864
5.65999994054437 861
5.67999994009733 763
5.6999999396503 834
5.71999993920326 849
5.73999993875623 852
5.75999993830919 823
5.77999993786216 824
5.79999993741512 773
5.81999993696809 836
5.83999993652105 803
5.85999993607402 797
5.87999993562698 765
5.89999993517995 798
5.91999993473291 799
5.93999993428588 848
5.95999993383884 796
5.97999993339181 841
5.99999993294477 773
6.01999993249774 777
6.0399999320507 754
6.05999993160367 760
6.07999993115663 767
6.0999999307096 755
6.11999993026257 736
6.13999992981553 759
6.1599999293685 770
6.17999992892146 734
6.19999992847443 743
6.21999992802739 746
6.23999992758036 770
6.25999992713332 690
6.27999992668629 710
6.29999992623925 723
6.31999992579222 745
6.33999992534518 701
6.35999992489815 684
6.37999992445111 672
6.39999992400408 681
6.41999992355704 720
6.43999992311001 699
6.45999992266297 658
6.47999992221594 664
6.4999999217689 701
6.51999992132187 679
6.53999992087483 717
6.5599999204278 730
6.57999991998076 707
6.59999991953373 744
6.61999991908669 692
6.63999991863966 733
6.65999991819262 715
6.67999991774559 699
6.69999991729855 674
6.71999991685152 680
6.73999991640449 682
6.75999991595745 684
6.77999991551042 648
6.79999991506338 713
6.81999991461635 683
6.83999991416931 688
6.85999991372228 653
6.87999991327524 634
6.89999991282821 668
6.91999991238117 708
6.93999991193414 600
6.9599999114871 720
6.97999991104007 659
6.99999991059303 620
7.019999910146 664
7.03999990969896 675
7.05999990925193 674
7.07999990880489 693
7.09999990835786 629
7.11999990791082 656
7.13999990746379 647
7.15999990701675 681
7.17999990656972 632
7.19999990612268 664
7.21999990567565 639
7.23999990522861 687
7.25999990478158 678
7.27999990433454 664
7.29999990388751 581
7.31999990344047 601
7.33999990299344 656
7.35999990254641 649
7.37999990209937 658
7.39999990165234 623
7.4199999012053 613
7.43999990075827 683
7.45999990031123 633
7.4799998998642 675
7.49999989941716 653
7.51999989897013 623
7.53999989852309 623
7.55999989807606 664
7.57999989762902 642
7.59999989718199 625
7.61999989673495 662
7.63999989628792 643
7.65999989584088 645
7.67999989539385 652
7.69999989494681 614
7.71999989449978 622
7.73999989405274 588
7.75999989360571 643
7.77999989315867 666
7.79999989271164 645
7.8199998922646 575
7.83999989181757 618
7.85999989137053 648
7.8799998909235 652
7.89999989047646 604
7.91999989002943 613
7.9399998895824 619
7.95999988913536 602
7.97999988868833 634
7.99999988824129 628
8.01999988779426 582
8.03999988734722 612
8.05999988690019 581
8.07999988645315 585
8.09999988600612 573
8.11999988555908 572
8.13999988511205 592
8.15999988466501 592
8.17999988421798 618
8.19999988377094 596
8.21999988332391 603
8.23999988287687 598
8.25999988242984 609
8.2799998819828 620
8.29999988153577 655
8.31999988108873 612
8.3399998806417 542
8.35999988019466 593
8.37999987974763 621
8.39999987930059 629
8.41999987885356 606
8.43999987840652 593
8.45999987795949 587
8.47999987751245 598
8.49999987706542 619
8.51999987661839 613
8.53999987617135 605
8.55999987572432 596
8.57999987527728 577
8.59999987483025 609
8.61999987438321 587
8.63999987393618 649
8.65999987348914 575
8.67999987304211 609
8.69999987259507 625
8.71999987214804 611
8.739999871701 577
8.75999987125397 619
8.77999987080693 586
8.7999998703599 565
8.81999986991286 588
8.83999986946583 602
8.85999986901879 581
8.87999986857176 579
8.89999986812472 606
8.91999986767769 586
8.93999986723065 631
8.95999986678362 573
8.97999986633658 628
8.99999986588955 631
9.01999986544251 562
9.03999986499548 584
9.05999986454844 587
9.07999986410141 587
9.09999986365438 585
9.11999986320734 600
9.13999986276031 574
9.15999986231327 598
9.17999986186624 598
9.1999998614192 614
9.21999986097217 593
9.23999986052513 588
9.2599998600781 564
9.27999985963106 585
9.29999985918403 611
9.31999985873699 600
9.33999985828996 595
9.35999985784292 588
9.37999985739589 626
9.39999985694885 582
9.41999985650182 609
9.43999985605478 586
9.45999985560775 575
9.47999985516071 580
9.49999985471368 564
9.51999985426664 597
9.53999985381961 632
9.55999985337257 609
9.57999985292554 545
9.5999998524785 565
9.61999985203147 592
9.63999985158443 596
9.6599998511374 557
9.67999985069037 558
9.69999985024333 522
9.7199998497963 597
9.73999984934926 531
9.75999984890223 584
9.77999984845519 573
9.79999984800816 584
9.81999984756112 556
9.83999984711409 548
9.85999984666705 565
9.87999984622002 575
9.89999984577298 529
9.91999984532595 540
9.93999984487891 558
9.95999984443188 575
9.97999984398484 538
9.99999984353781 526
10.0199998430908 562
10.0399998426437 564
10.0599998421967 562
10.0799998417497 576
10.0999998413026 541
10.1199998408556 509
10.1399998404086 511
10.1599998399615 524
10.1799998395145 530
10.1999998390675 542
10.2199998386204 555
10.2399998381734 554
10.2599998377264 622
10.2799998372793 539
10.2999998368323 536
10.3199998363853 545
10.3399998359382 546
10.3599998354912 544
10.3799998350441 552
10.3999998345971 547
10.4199998341501 587
10.439999833703 538
10.459999833256 571
10.479999832809 515
10.4999998323619 520
10.5199998319149 563
10.5399998314679 512
10.5599998310208 523
10.5799998305738 518
10.5999998301268 563
10.6199998296797 546
10.6399998292327 545
10.6599998287857 493
10.6799998283386 544
10.6999998278916 559
10.7199998274446 561
10.7399998269975 552
10.7599998265505 541
10.7799998261034 541
10.7999998256564 528
10.8199998252094 515
10.8399998247623 527
10.8599998243153 547
10.8799998238683 488
10.8999998234212 548
10.9199998229742 504
10.9399998225272 539
10.9599998220801 488
10.9799998216331 527
10.9999998211861 520
11.019999820739 552
11.039999820292 523
11.059999819845 532
11.0799998193979 549
11.0999998189509 532
11.1199998185039 525
11.1399998180568 563
11.1599998176098 497
11.1799998171628 511
11.1999998167157 531
11.2199998162687 535
11.2399998158216 531
11.2599998153746 542
11.2799998149276 495
11.2999998144805 546
11.3199998140335 539
11.3399998135865 545
11.3599998131394 527
11.3799998126924 539
11.3999998122454 495
11.4199998117983 500
11.4399998113513 533
11.4599998109043 521
11.4799998104572 539
11.4999998100102 496
11.5199998095632 558
11.5399998091161 533
11.5599998086691 518
11.5799998082221 494
11.599999807775 543
11.619999807328 514
11.639999806881 471
11.6599998064339 510
11.6799998059869 492
11.6999998055398 561
11.7199998050928 509
11.7399998046458 472
11.7599998041987 499
11.7799998037517 539
11.7999998033047 558
11.8199998028576 528
11.8399998024106 491
11.8599998019636 497
11.8799998015165 527
11.8999998010695 543
11.9199998006225 508
11.9399998001754 506
11.9599997997284 488
11.9799997992814 505
11.9999997988343 479
12.0199997983873 499
12.0399997979403 529
12.0599997974932 484
12.0799997970462 547
12.0999997965992 526
12.1199997961521 517
12.1399997957051 537
12.159999795258 502
12.179999794811 539
12.199999794364 528
12.2199997939169 550
12.2399997934699 534
12.2599997930229 569
12.2799997925758 515
12.2999997921288 560
12.3199997916818 527
12.3399997912347 490
12.3599997907877 532
12.3799997903407 514
12.3999997898936 504
12.4199997894466 515
12.4399997889996 514
12.4599997885525 512
12.4799997881055 506
12.4999997876585 528
12.5199997872114 502
12.5399997867644 515
12.5599997863173 493
12.5799997858703 539
12.5999997854233 535
12.6199997849762 477
12.6399997845292 546
12.6599997840822 555
12.6799997836351 523
12.6999997831881 524
12.7199997827411 504
12.739999782294 503
12.759999781847 505
12.7799997814 535
12.7999997809529 536
12.8199997805059 533
12.8399997800589 546
12.8599997796118 532
12.8799997791648 553
12.8999997787178 522
12.9199997782707 537
12.9399997778237 540
12.9599997773767 546
12.9799997769296 519
12.9999997764826 518
13.0199997760355 544
13.0399997755885 518
13.0599997751415 493
13.0799997746944 560
13.0999997742474 527
13.1199997738004 536
13.1399997733533 510
13.1599997729063 535
13.1799997724593 504
13.1999997720122 560
13.2199997715652 562
13.2399997711182 577
13.2599997706711 551
13.2799997702241 541
13.2999997697771 541
13.31999976933 541
13.339999768883 513
13.359999768436 589
13.3799997679889 561
13.3999997675419 542
13.4199997670949 566
13.4399997666478 555
13.4599997662008 502
13.4799997657537 553
13.4999997653067 547
13.5199997648597 561
13.5399997644126 529
13.5599997639656 519
13.5799997635186 524
13.5999997630715 512
13.6199997626245 583
13.6399997621775 573
13.6599997617304 528
13.6799997612834 538
13.6999997608364 521
13.7199997603893 514
13.7399997599423 534
13.7599997594953 545
13.7799997590482 531
13.7999997586012 540
13.8199997581542 544
13.8399997577071 543
13.8599997572601 569
13.879999756813 526
13.899999756366 549
13.919999755919 547
13.9399997554719 573
13.9599997550249 561
13.9799997545779 567
13.9999997541308 578
14.0199997536838 555
14.0399997532368 548
14.0599997527897 580
14.0799997523427 567
14.0999997518957 550
14.1199997514486 560
14.1399997510016 501
14.1599997505546 526
14.1799997501075 543
14.1999997496605 583
14.2199997492135 593
14.2399997487664 517
14.2599997483194 553
14.2799997478724 614
14.2999997474253 539
14.3199997469783 594
14.3399997465312 571
14.3599997460842 603
14.3799997456372 543
14.3999997451901 590
14.4199997447431 552
14.4399997442961 603
14.459999743849 582
14.479999743402 569
14.499999742955 592
14.5199997425079 604
14.5399997420609 583
14.5599997416139 555
14.5799997411668 576
14.5999997407198 611
14.6199997402728 535
14.6399997398257 527
14.6599997393787 574
14.6799997389317 573
14.6999997384846 618
14.7199997380376 575
14.7399997375906 551
14.7599997371435 573
14.7799997366965 564
14.7999997362494 566
14.8199997358024 612
14.8399997353554 607
14.8599997349083 608
14.8799997344613 588
14.8999997340143 566
14.9199997335672 583
14.9399997331202 574
14.9599997326732 560
14.9799997322261 569
14.9999997317791 564
15.0199997313321 608
15.039999730885 587
15.059999730438 559
15.079999729991 561
15.0999997295439 600
15.1199997290969 595
15.1399997286499 616
15.1599997282028 617
15.1799997277558 624
15.1999997273088 627
15.2199997268617 626
15.2399997264147 584
15.2599997259676 602
15.2799997255206 610
15.2999997250736 622
15.3199997246265 612
15.3399997241795 582
15.3599997237325 591
15.3799997232854 601
15.3999997228384 573
15.4199997223914 600
15.4399997219443 634
15.4599997214973 607
15.4799997210503 640
15.4999997206032 644
15.5199997201562 601
15.5399997197092 573
15.5599997192621 619
15.5799997188151 658
15.5999997183681 581
15.619999717921 645
15.639999717474 603
15.659999717027 613
15.6799997165799 585
15.6999997161329 650
15.7199997156858 658
15.7399997152388 614
15.7599997147918 608
15.7799997143447 630
15.7999997138977 587
15.8199997134507 613
15.8399997130036 651
15.8599997125566 653
15.8799997121096 657
15.8999997116625 635
15.9199997112155 659
15.9399997107685 623
15.9599997103214 642
15.9799997098744 643
15.9999997094274 623
16.0199997089803 618
16.0399997085333 616
16.0599997080863 644
16.0799997076392 591
16.0999997071922 728
16.1199997067451 651
16.1399997062981 621
16.1599997058511 690
16.179999705404 663
16.199999704957 644
16.21999970451 655
16.2399997040629 587
16.2599997036159 683
16.2799997031689 651
16.2999997027218 657
16.3199997022748 622
16.3399997018278 656
16.3599997013807 681
16.3799997009337 683
16.3999997004867 624
16.4199997000396 605
16.4399996995926 691
16.4599996991456 659
16.4799996986985 654
16.4999996982515 681
16.5199996978045 689
16.5399996973574 689
16.5599996969104 710
16.5799996964633 653
16.5999996960163 673
16.6199996955693 723
16.6399996951222 703
16.6599996946752 741
16.6799996942282 672
16.6999996937811 714
16.7199996933341 723
16.7399996928871 754
16.75999969244 767
16.779999691993 787
16.799999691546 802
16.8199996910989 881
16.8399996906519 907
16.8599996902049 904
16.8799996897578 1046
16.8999996893108 1164
16.9199996888638 1377
16.9399996884167 1431
16.9599996879697 1504
16.9799996875226 1407
16.9999996870756 1366
17.0199996866286 1091
17.0399996861815 987
17.0599996857345 828
17.0799996852875 768
17.0999996848404 773
17.1199996843934 721
17.1399996839464 757
17.1599996834993 744
17.1799996830523 701
17.1999996826053 732
17.2199996821582 758
17.2399996817112 737
17.2599996812642 695
17.2799996808171 749
17.2999996803701 686
17.3199996799231 709
17.339999679476 709
17.359999679029 736
17.379999678582 767
17.3999996781349 733
17.4199996776879 726
17.4399996772408 747
17.4599996767938 775
17.4799996763468 745
17.4999996758997 736
17.5199996754527 775
17.5399996750057 724
17.5599996745586 710
17.5799996741116 761
17.5999996736646 719
17.6199996732175 771
17.6399996727705 733
17.6599996723235 786
17.6799996718764 795
17.6999996714294 744
17.7199996709824 738
17.7399996705353 732
17.7599996700883 748
17.7799996696413 720
17.7999996691942 757
17.8199996687472 762
17.8399996683002 788
17.8599996678531 784
17.8799996674061 707
17.899999666959 742
17.919999666512 717
17.939999666065 756
17.9599996656179 772
17.9799996651709 853
17.9999996647239 789
18.0199996642768 779
18.0399996638298 784
18.0599996633828 783
18.0799996629357 778
18.0999996624887 767
18.1199996620417 821
18.1399996615946 784
18.1599996611476 782
18.1799996607006 815
18.1999996602535 796
18.2199996598065 841
18.2399996593595 796
18.2599996589124 782
18.2799996584654 810
18.2999996580184 772
18.3199996575713 835
18.3399996571243 815
18.3599996566772 769
18.3799996562302 808
18.3999996557832 849
18.4199996553361 851
18.4399996548891 824
18.4599996544421 838
18.479999653995 836
18.499999653548 769
18.519999653101 839
18.5399996526539 812
18.5599996522069 859
18.5799996517599 831
18.5999996513128 788
18.6199996508658 788
18.6399996504188 838
18.6599996499717 877
18.6799996495247 858
18.6999996490777 828
18.7199996486306 856
18.7399996481836 843
18.7599996477366 883
18.7799996472895 841
18.7999996468425 805
18.8199996463954 818
18.8399996459484 841
18.8599996455014 892
18.8799996450543 874
18.8999996446073 806
18.9199996441603 882
18.9399996437132 871
18.9599996432662 851
18.9799996428192 861
18.9999996423721 832
19.0199996419251 858
19.0399996414781 868
19.059999641031 872
19.079999640584 952
19.099999640137 867
19.1199996396899 851
19.1399996392429 842
19.1599996387959 919
19.1799996383488 847
19.1999996379018 909
19.2199996374547 854
19.2399996370077 888
19.2599996365607 941
19.2799996361136 892
19.2999996356666 850
19.3199996352196 905
19.3399996347725 890
19.3599996343255 893
19.3799996338785 892
19.3999996334314 882
19.4199996329844 913
19.4399996325374 940
19.4599996320903 961
19.4799996316433 960
19.4999996311963 893
19.5199996307492 890
19.5399996303022 933
19.5599996298552 976
19.5799996294081 938
19.5999996289611 918
19.6199996285141 943
19.639999628067 929
19.65999962762 910
19.6799996271729 929
19.6999996267259 892
19.7199996262789 968
19.7399996258318 945
19.7599996253848 958
19.7799996249378 916
19.7999996244907 953
19.8199996240437 967
19.8399996235967 886
19.8599996231496 994
19.8799996227026 904
19.8999996222556 915
19.9199996218085 946
19.9399996213615 1014
19.9599996209145 921
19.9799996204674 964
19.9999996200204 964
