3 2501
3.01999999955297 2397
3.03999999910593 2153
3.0599999986589 2088
3.07999999821186 1969
3.09999999776483 1938
3.11999999731779 1840
3.13999999687076 1813
3.15999999642372 1794
3.17999999597669 1735
3.19999999552965 1707
3.21999999508262 1633
3.23999999463558 1694
3.25999999418855 1635
3.27999999374151 1615
3.29999999329448 1618
3.31999999284744 1591
3.33999999240041 1610
3.35999999195337 1557
3.37999999150634 1548
3.3999999910593 1502
3.41999999061227 1453
3.43999999016523 1433
3.4599999897182 1431
3.47999998927116 1461
3.49999998882413 1443
3.51999998837709 1385
3.53999998793006 1420
3.55999998748302 1426
3.57999998703599 1389
3.59999998658895 1377
3.61999998614192 1312
3.63999998569489 1354
3.65999998524785 1292
3.67999998480082 1272
3.69999998435378 1329
3.71999998390675 1342
3.73999998345971 1223
3.75999998301268 1228
3.77999998256564 1292
3.79999998211861 1223
3.81999998167157 1295
3.83999998122454 1238
3.8599999807775 1152
3.87999998033047 1165
3.89999997988343 1186
3.9199999794364 1149
3.93999997898936 1063
3.95999997854233 1233
3.97999997809529 1146
3.99999997764826 1107
4.01999997720122 1129
4.03999997675419 1094
4.05999997630715 1071
4.07999997586012 1116
4.09999997541308 1084
4.11999997496605 1094
4.13999997451901 1042
4.15999997407198 1085
4.17999997362494 1038
4.19999997317791 1063
4.21999997273087 1088
4.23999997228384 1000
4.25999997183681 1015
4.27999997138977 1010
4.29999997094274 984
4.3199999704957 1021
4.33999997004867 991
4.35999996960163 1007
4.3799999691546 982
4.39999996870756 987
4.41999996826053 966
4.43999996781349 1048
4.45999996736646 971
4.47999996691942 979
4.49999996647239 950
4.51999996602535 1013
4.53999996557832 943
4.55999996513128 898
4.57999996468425 944
4.59999996423721 965
4.61999996379018 947
4.63999996334314 969
4.65999996289611 937
4.67999996244907 909
4.69999996200204 902
4.719999961555 968
4.73999996110797 927
4.75999996066093 860
4.7799999602139 847
4.79999995976686 894
4.81999995931983 930
4.83999995887279 897
4.85999995842576 887
4.87999995797873 911
4.89999995753169 871
4.91999995708466 868
4.93999995663762 872
4.95999995619059 867
4.97999995574355 812
4.99999995529652 910
5.01999995484948 895
5.03999995440245 885
5.05999995395541 878
5.07999995350838 844
5.09999995306134 872
5.11999995261431 809
5.13999995216727 827
5.15999995172024 840
5.1799999512732 789
5.19999995082617 851
5.21999995037913 847
5.2399999499321 821
5.25999994948506 814
5.27999994903803 811
5.29999994859099 871
5.31999994814396 844
5.33999994769692 800
5.35999994724989 796
5.37999994680285 833
5.39999994635582 770
5.41999994590878 783
5.43999994546175 732
5.45999994501471 803
5.47999994456768 812
5.49999994412065 764
5.51999994367361 789
5.53999994322658 801
5.55999994277954 755
5.57999994233251 744
5.59999994188547 721
5.61999994143844 756
5.6399999409914 716
5.65999994054437 737
5.67999994009733 754
5.6999999396503 737
5.71999993920326 728
5.73999993875623 744
5.75999993830919 769
5.77999993786216 740
5.79999993741512 722
5.81999993696809 736
5.83999993652105 762
5.85999993607402 735
5.87999993562698 709
5.89999993517995 689
5.91999993473291 669
5.93999993428588 754
5.95999993383884 687
5.97999993339181 710
5.99999993294477 668
6.01999993249774 664
6.0399999320507 686
6.05999993160367 711
6.07999993115663 669
6.0999999307096 659
6.11999993026257 666
6.13999992981553 725
6.1599999293685 728
6.17999992892146 714
6.19999992847443 689
6.21999992802739 674
6.23999992758036 680
6.25999992713332 702
6.27999992668629 650
6.29999992623925 685
6.31999992579222 676
6.33999992534518 627
6.35999992489815 658
6.37999992445111 688
6.39999992400408 673
6.41999992355704 654
6.43999992311001 650
6.45999992266297 676
6.47999992221594 620
6.4999999217689 629
6.51999992132187 724
6.53999992087483 685
6.5599999204278 671
6.57999991998076 630
6.59999991953373 689
6.61999991908669 659
6.63999991863966 657
6.65999991819262 653
6.67999991774559 631
6.69999991729855 625
6.71999991685152 652
6.73999991640449 642
6.75999991595745 639
6.77999991551042 657
6.79999991506338 686
6.81999991461635 656
6.83999991416931 648
6.85999991372228 646
6.87999991327524 631
6.89999991282821 635
6.91999991238117 624
6.93999991193414 603
6.9599999114871 594
6.97999991104007 625
6.99999991059303 664
7.019999910146 640
7.03999990969896 638
7.05999990925193 589
7.07999990880489 612
7.09999990835786 624
7.11999990791082 629
7.13999990746379 635
7.15999990701675 609
7.17999990656972 632
7.19999990612268 592
7.21999990567565 617
7.23999990522861 680
7.25999990478158 631
7.27999990433454 592
7.29999990388751 611
7.31999990344047 611
7.33999990299344 597
7.35999990254641 604
7.37999990209937 586
7.39999990165234 585
7.4199999012053 642
7.43999990075827 626
7.45999990031123 598
7.4799998998642 647
7.49999989941716 584
7.51999989897013 614
7.53999989852309 623
7.55999989807606 642
7.57999989762902 589
7.59999989718199 636
7.61999989673495 630
7.63999989628792 602
7.65999989584088 602
7.67999989539385 608
7.69999989494681 624
7.71999989449978 562
7.73999989405274 582
7.75999989360571 577
7.77999989315867 561
7.79999989271164 669
7.8199998922646 596
7.83999989181757 598
7.85999989137053 627
7.8799998909235 578
7.89999989047646 599
7.91999989002943 613
7.9399998895824 597
7.95999988913536 620
7.97999988868833 611
7.99999988824129 613
8.01999988779426 597
8.03999988734722 581
8.05999988690019 586
8.07999988645315 594
8.09999988600612 631
8.11999988555908 618
8.13999988511205 602
8.15999988466501 586
8.17999988421798 548
8.19999988377094 568
8.21999988332391 587
8.23999988287687 578
8.25999988242984 577
8.2799998819828 636
8.29999988153577 581
8.31999988108873 574
8.3399998806417 594
8.35999988019466 563
8.37999987974763 558
8.39999987930059 581
8.41999987885356 538
8.43999987840652 581
8.45999987795949 597
8.47999987751245 564
8.49999987706542 606
8.51999987661839 565
8.53999987617135 581
8.55999987572432 553
8.57999987527728 572
8.59999987483025 572
8.61999987438321 587
8.63999987393618 578
8.65999987348914 603
8.67999987304211 569
8.69999987259507 565
8.71999987214804 581
8.739999871701 617
8.75999987125397 586
8.77999987080693 558
8.7999998703599 579
8.81999986991286 552
8.83999986946583 583
8.85999986901879 595
8.87999986857176 564
8.89999986812472 608
8.91999986767769 527
8.93999986723065 553
8.95999986678362 529
8.97999986633658 565
8.99999986588955 558
9.01999986544251 547
9.03999986499548 531
9.05999986454844 513
9.07999986410141 542
9.09999986365438 524
9.11999986320734 567
9.13999986276031 582
9.15999986231327 553
9.17999986186624 533
9.1999998614192 540
9.21999986097217 560
9.23999986052513 565
9.2599998600781 541
9.27999985963106 556
9.29999985918403 550
9.31999985873699 624
9.33999985828996 562
9.35999985784292 567
9.37999985739589 569
9.39999985694885 567
9.41999985650182 578
9.43999985605478 593
9.45999985560775 554
9.47999985516071 572
9.49999985471368 548
9.51999985426664 580
9.53999985381961 566
9.55999985337257 557
9.57999985292554 566
9.5999998524785 511
9.61999985203147 549
9.63999985158443 575
9.6599998511374 550
9.67999985069037 518
9.69999985024333 542
9.7199998497963 559
9.73999984934926 555
9.75999984890223 564
9.77999984845519 591
9.79999984800816 569
9.81999984756112 572
9.83999984711409 575
9.85999984666705 553
9.87999984622002 558
9.89999984577298 552
9.91999984532595 531
9.93999984487891 555
9.95999984443188 535
9.97999984398484 556
9.99999984353781 521
10.0199998430908 530
10.0399998426437 562
10.0599998421967 525
10.0799998417497 524
10.0999998413026 541
10.1199998408556 529
10.1399998404086 532
10.1599998399615 532
10.1799998395145 559
10.1999998390675 521
10.2199998386204 570
10.2399998381734 532
10.2599998377264 545
10.2799998372793 500
10.2999998368323 527
10.3199998363853 536
10.3399998359382 511
10.3599998354912 548
10.3799998350441 524
10.3999998345971 526
10.4199998341501 547
10.439999833703 562
10.459999833256 532
10.479999832809 542
10.4999998323619 514
10.5199998319149 519
10.5399998314679 551
10.5599998310208 525
10.5799998305738 487
10.5999998301268 518
10.6199998296797 539
10.6399998292327 501
10.6599998287857 547
10.6799998283386 534
10.6999998278916 539
10.7199998274446 500
10.7399998269975 526
10.7599998265505 563
10.7799998261034 609
10.7999998256564 565
10.8199998252094 569
10.8399998247623 581
10.8599998243153 563
10.8799998238683 567
10.8999998234212 550
10.9199998229742 518
10.9399998225272 514
10.9599998220801 523
10.9799998216331 548
10.9999998211861 540
11.019999820739 550
11.039999820292 581
11.059999819845 535
11.0799998193979 544
11.0999998189509 549
11.1199998185039 530
11.1399998180568 580
11.1599998176098 544
11.1799998171628 537
11.1999998167157 520
11.2199998162687 540
11.2399998158216 546
11.2599998153746 523
11.2799998149276 535
11.2999998144805 569
11.3199998140335 536
11.3399998135865 561
11.3599998131394 553
11.3799998126924 543
11.3999998122454 497
11.4199998117983 509
11.4399998113513 536
11.4599998109043 516
11.4799998104572 541
11.4999998100102 531
11.5199998095632 506
11.5399998091161 522
11.5599998086691 505
11.5799998082221 567
11.599999807775 555
11.619999807328 507
11.639999806881 504
11.6599998064339 547
11.6799998059869 529
11.6999998055398 541
11.7199998050928 528
11.7399998046458 527
11.7599998041987 516
11.7799998037517 548
11.7999998033047 529
11.8199998028576 517
11.8399998024106 498
11.8599998019636 552
11.8799998015165 550
11.8999998010695 539
11.9199998006225 531
11.9399998001754 570
11.9599997997284 589
11.9799997992814 550
11.9999997988343 515
12.0199997983873 510
12.0399997979403 535
12.0599997974932 546
12.0799997970462 541
12.0999997965992 533
12.1199997961521 575
12.1399997957051 534
12.159999795258 552
12.179999794811 590
12.199999794364 546
12.2199997939169 538
12.2399997934699 564
12.2599997930229 550
12.2799997925758 531
12.2999997921288 518
12.3199997916818 576
12.3399997912347 605
12.3599997907877 535
12.3799997903407 540
12.3999997898936 580
12.4199997894466 571
12.4399997889996 531
12.4599997885525 566
12.4799997881055 565
12.4999997876585 515
12.5199997872114 513
12.5399997867644 532
12.5599997863173 557
12.5799997858703 536
12.5999997854233 537
12.6199997849762 561
12.6399997845292 552
12.6599997840822 544
12.6799997836351 568
12.6999997831881 562
12.7199997827411 523
12.739999782294 553
12.759999781847 561
12.7799997814 541
12.7999997809529 531
12.8199997805059 537
12.8399997800589 563
12.8599997796118 561
12.8799997791648 605
12.8999997787178 543
12.9199997782707 567
12.9399997778237 594
12.9599997773767 556
12.9799997769296 540
12.9999997764826 559
13.0199997760355 572
13.0399997755885 553
13.0599997751415 556
13.0799997746944 574
13.0999997742474 559
13.1199997738004 572
13.1399997733533 573
13.1599997729063 547
13.1799997724593 540
13.1999997720122 545
13.2199997715652 542
13.2399997711182 592
13.2599997706711 575
13.2799997702241 570
13.2999997697771 556
13.31999976933 546
13.339999768883 585
13.359999768436 571
13.3799997679889 572
13.3999997675419 564
13.4199997670949 585
13.4399997666478 560
13.4599997662008 553
13.4799997657537 581
13.4999997653067 586
13.5199997648597 554
13.5399997644126 582
13.5599997639656 612
13.5799997635186 566
13.5999997630715 572
13.6199997626245 573
13.6399997621775 586
13.6599997617304 591
13.6799997612834 549
13.6999997608364 614
13.7199997603893 579
13.7399997599423 570
13.7599997594953 583
13.7799997590482 584
13.7999997586012 609
13.8199997581542 610
13.8399997577071 585
13.8599997572601 528
13.879999756813 601
13.899999756366 598
13.919999755919 558
13.9399997554719 588
13.9599997550249 585
13.9799997545779 586
13.9999997541308 619
14.0199997536838 579
14.0399997532368 623
14.0599997527897 618
14.0799997523427 582
14.0999997518957 588
14.1199997514486 621
14.1399997510016 620
14.1599997505546 574
14.1799997501075 604
14.1999997496605 639
14.2199997492135 630
14.2399997487664 592
14.2599997483194 597
14.2799997478724 583
14.2999997474253 594
14.3199997469783 582
14.3399997465312 592
14.3599997460842 616
14.3799997456372 602
14.3999997451901 634
14.4199997447431 596
14.4399997442961 608
14.459999743849 617
14.479999743402 608
14.499999742955 601
14.5199997425079 618
14.5399997420609 580
14.5599997416139 622
14.5799997411668 571
14.5999997407198 631
14.6199997402728 636
14.6399997398257 565
14.6599997393787 635
14.6799997389317 610
14.6999997384846 602
14.7199997380376 667
14.7399997375906 630
14.7599997371435 621
14.7799997366965 624
14.7999997362494 588
14.8199997358024 650
14.8399997353554 651
14.8599997349083 607
14.8799997344613 657
14.8999997340143 624
14.9199997335672 672
14.9399997331202 691
14.9599997326732 608
14.9799997322261 668
14.9999997317791 645
15.0199997313321 662
15.039999730885 652
15.059999730438 655
15.079999729991 644
15.0999997295439 635
15.1199997290969 696
15.1399997286499 652
15.1599997282028 656
15.1799997277558 671
15.1999997273088 615
15.2199997268617 660
15.2399997264147 659
15.2599997259676 645
15.2799997255206 663
15.2999997250736 673
15.3199997246265 647
15.3399997241795 671
15.3599997237325 646
15.3799997232854 665
15.3999997228384 691
15.4199997223914 687
15.4399997219443 654
15.4599997214973 706
15.4799997210503 677
15.4999997206032 661
15.5199997201562 676
15.5399997197092 669
15.5599997192621 677
15.5799997188151 676
15.5999997183681 666
15.619999717921 717
15.639999717474 661
15.659999717027 693
15.6799997165799 705
15.6999997161329 663
15.7199997156858 655
15.7399997152388 683
15.7599997147918 677
15.7799997143447 702
15.7999997138977 734
15.8199997134507 669
15.8399997130036 756
15.8599997125566 714
15.8799997121096 670
15.8999997116625 659
15.9199997112155 689
15.9399997107685 655
15.9599997103214 699
15.9799997098744 683
15.9999997094274 690
16.0199997089803 703
16.0399997085333 673
16.0599997080863 699
16.0799997076392 677
16.0999997071922 718
16.1199997067451 709
16.1399997062981 731
16.1599997058511 713
16.179999705404 661
16.199999704957 651
16.21999970451 744
16.2399997040629 707
16.2599997036159 732
16.2799997031689 738
16.2999997027218 730
16.3199997022748 750
16.3399997018278 729
16.3599997013807 753
16.3799997009337 706
16.3999997004867 761
16.4199997000396 721
16.4399996995926 666
16.4599996991456 752
16.4799996986985 785
16.4999996982515 720
16.5199996978045 751
16.5399996973574 750
16.5599996969104 751
16.5799996964633 700
16.5999996960163 782
16.6199996955693 755
16.6399996951222 768
16.6599996946752 759
16.6799996942282 709
16.6999996937811 775
16.7199996933341 777
16.7399996928871 748
16.75999969244 789
16.779999691993 785
16.799999691546 761
16.8199996910989 838
16.8399996906519 798
16.8599996902049 941
16.8799996897578 888
16.8999996893108 914
16.9199996888638 946
16.9399996884167 1013
16.9599996879697 1116
16.9799996875226 1253
16.9999996870756 1327
17.0199996866286 1370
17.0399996861815 1386
17.0599996857345 1238
17.0799996852875 1009
17.0999996848404 992
17.1199996843934 880
17.1399996839464 829
17.1599996834993 792
17.1799996830523 851
17.1999996826053 826
17.2199996821582 840
17.2399996817112 835
17.2599996812642 823
17.2799996808171 858
17.2999996803701 798
17.3199996799231 757
17.339999679476 844
17.359999679029 824
17.379999678582 816
17.3999996781349 815
17.4199996776879 793
17.4399996772408 787
17.4599996767938 838
17.4799996763468 849
17.4999996758997 820
17.5199996754527 841
17.5399996750057 827
17.5599996745586 827
17.5799996741116 842
17.5999996736646 816
17.6199996732175 874
17.6399996727705 903
17.6599996723235 901
17.6799996718764 798
17.6999996714294 860
17.7199996709824 898
17.7399996705353 793
17.7599996700883 848
17.7799996696413 862
17.7999996691942 843
17.8199996687472 908
17.8399996683002 895
17.8599996678531 835
17.8799996674061 823
17.899999666959 877
17.919999666512 919
17.939999666065 915
17.9599996656179 884
17.9799996651709 940
17.9999996647239 893
18.0199996642768 910
18.0399996638298 884
18.0599996633828 898
18.0799996629357 857
18.0999996624887 903
18.1199996620417 878
18.1399996615946 923
18.1599996611476 935
18.1799996607006 859
18.1999996602535 940
18.2199996598065 925
18.2399996593595 942
18.2599996589124 905
18.2799996584654 951
18.2999996580184 855
18.3199996575713 911
18.3399996571243 947
18.3599996566772 931
18.3799996562302 913
18.3999996557832 943
18.4199996553361 936
18.4399996548891 927
18.4599996544421 982
18.479999653995 977
18.499999653548 960
18.519999653101 954
18.5399996526539 912
18.5599996522069 923
18.5799996517599 962
18.5999996513128 951
18.6199996508658 1004
18.6399996504188 962
18.6599996499717 946
18.6799996495247 996
18.6999996490777 947
18.7199996486306 968
18.7399996481836 962
18.7599996477366 979
18.7799996472895 976
18.7999996468425 1009
18.8199996463954 983
18.8399996459484 981
18.8599996455014 980
18.8799996450543 968
18.8999996446073 959
18.9199996441603 1007
18.9399996437132 1016
18.9599996432662 1002
18.9799996428192 981
18.9999996423721 1007
19.0199996419251 987
19.0399996414781 1025
19.059999641031 1028
19.079999640584 1067
19.099999640137 1019
19.1199996396899 1077
19.1399996392429 1022
19.1599996387959 1066
19.1799996383488 1105
19.1999996379018 1033
19.2199996374547 997
19.2399996370077 1074
19.2599996365607 1031
19.2799996361136 999
19.2999996356666 980
19.3199996352196 1058
19.3399996347725 1052
19.3599996343255 1048
19.3799996338785 1091
19.3999996334314 999
19.4199996329844 1059
19.4399996325374 998
19.4599996320903 1045
19.4799996316433 1076
19.4999996311963 1049
19.5199996307492 1032
19.5399996303022 1052
19.5599996298552 1035
19.5799996294081 1040
19.5999996289611 1100
19.6199996285141 1114
19.639999628067 1078
19.65999962762 1112
19.6799996271729 1057
19.6999996267259 1096
19.7199996262789 1131
19.7399996258318 1119
19.7599996253848 1119
19.7799996249378 1091
19.7999996244907 1063
19.8199996240437 1142
19.8399996235967 1098
19.8599996231496 1145
19.8799996227026 1086
19.8999996222556 1090
19.9199996218085 1163
19.9399996213615 1116
19.9599996209145 1184
19.9799996204674 1066
19.9999996200204 1101
