3 2668
3.01999999955297 2493
3.03999999910593 2288
3.0599999986589 2224
3.07999999821186 2096
3.09999999776483 1991
3.11999999731779 2006
3.13999999687076 1895
3.15999999642372 1919
3.17999999597669 1890
3.19999999552965 1863
3.21999999508262 1809
3.23999999463558 1824
3.25999999418855 1738
3.27999999374151 1694
3.29999999329448 1681
3.31999999284744 1671
3.33999999240041 1690
3.35999999195337 1724
3.37999999150634 1645
3.3999999910593 1642
3.41999999061227 1632
3.43999999016523 1653
3.4599999897182 1601
3.47999998927116 1615
3.49999998882413 1550
3.51999998837709 1530
3.53999998793006 1571
3.55999998748302 1457
3.57999998703599 1503
3.59999998658895 1510
3.61999998614192 1500
3.63999998569489 1492
3.65999998524785 1442
3.67999998480082 1397
3.69999998435378 1427
3.71999998390675 1400
3.73999998345971 1431
3.75999998301268 1408
3.77999998256564 1377
3.79999998211861 1423
3.81999998167157 1433
3.83999998122454 1432
3.8599999807775 1397
3.87999998033047 1335
3.89999997988343 1372
3.9199999794364 1278
3.93999997898936 1276
3.95999997854233 1341
3.97999997809529 1303
3.99999997764826 1365
4.01999997720122 1313
4.03999997675419 1320
4.05999997630715 1318
4.07999997586012 1288
4.09999997541308 1256
4.11999997496605 1266
4.13999997451901 1257
4.15999997407198 1275
4.17999997362494 1223
4.19999997317791 1229
4.21999997273087 1196
4.23999997228384 1257
4.25999997183681 1202
4.27999997138977 1238
4.29999997094274 1223
4.3199999704957 1164
4.33999997004867 1191
4.35999996960163 1154
4.3799999691546 1173
4.39999996870756 1155
4.41999996826053 1121
4.43999996781349 1145
4.45999996736646 1144
4.47999996691942 1102
4.49999996647239 1117
4.51999996602535 1144
4.53999996557832 1076
4.55999996513128 1060
4.57999996468425 1120
4.59999996423721 1102
4.61999996379018 1087
4.63999996334314 1066
4.65999996289611 1087
4.67999996244907 1044
4.69999996200204 1103
4.719999961555 1044
4.73999996110797 1062
4.75999996066093 1072
4.7799999602139 1072
4.79999995976686 1072
4.81999995931983 1053
4.83999995887279 1098
4.85999995842576 1083
4.87999995797873 1037
4.89999995753169 981
4.91999995708466 1035
4.93999995663762 1043
4.95999995619059 1026
4.97999995574355 1030
4.99999995529652 976
5.01999995484948 1067
5.03999995440245 966
5.05999995395541 1035
5.07999995350838 1008
5.09999995306134 1055
5.11999995261431 1044
5.13999995216727 1063
5.15999995172024 1028
5.1799999512732 1033
5.19999995082617 1057
5.21999995037913 1145
5.2399999499321 1091
5.25999994948506 1085
5.27999994903803 1130
5.29999994859099 1159
5.31999994814396 1127
5.33999994769692 1172
5.35999994724989 1293
5.37999994680285 1353
5.39999994635582 1386
5.41999994590878 1313
5.43999994546175 1145
5.45999994501471 1030
5.47999994456768 1039
5.49999994412065 1012
5.51999994367361 1036
5.53999994322658 967
5.55999994277954 1013
5.57999994233251 982
5.59999994188547 978
5.61999994143844 994
5.6399999409914 993
5.65999994054437 1024
5.67999994009733 1038
5.6999999396503 989
5.71999993920326 1006
5.73999993875623 1012
5.75999993830919 1034
5.77999993786216 983
5.79999993741512 927
5.81999993696809 852
5.83999993652105 810
5.85999993607402 806
5.87999993562698 836
5.89999993517995 806
5.91999993473291 781
5.93999993428588 772
5.95999993383884 805
5.97999993339181 787
5.99999993294477 759
6.01999993249774 767
6.0399999320507 797
6.05999993160367 792
6.07999993115663 730
6.0999999307096 765
6.11999993026257 735
6.13999992981553 776
6.1599999293685 731
6.17999992892146 707
6.19999992847443 723
6.21999992802739 661
6.23999992758036 739
6.25999992713332 765
6.27999992668629 703
6.29999992623925 720
6.31999992579222 745
6.33999992534518 737
6.35999992489815 745
6.37999992445111 749
6.39999992400408 708
6.41999992355704 656
6.43999992311001 678
6.45999992266297 729
6.47999992221594 702
6.4999999217689 706
6.51999992132187 700
6.53999992087483 736
6.5599999204278 713
6.57999991998076 706
6.59999991953373 697
6.61999991908669 709
6.63999991863966 706
6.65999991819262 696
6.67999991774559 718
6.69999991729855 681
6.71999991685152 694
6.73999991640449 657
6.75999991595745 684
6.77999991551042 625
6.79999991506338 652
6.81999991461635 684
6.83999991416931 677
6.85999991372228 652
6.87999991327524 658
6.89999991282821 698
6.91999991238117 639
6.93999991193414 674
6.9599999114871 663
6.97999991104007 651
6.99999991059303 673
7.019999910146 665
7.03999990969896 680
7.05999990925193 632
7.07999990880489 681
7.09999990835786 657
7.11999990791082 680
7.13999990746379 659
7.15999990701675 653
7.17999990656972 629
7.19999990612268 587
7.21999990567565 667
7.23999990522861 658
7.25999990478158 638
7.27999990433454 671
7.29999990388751 614
7.31999990344047 629
7.33999990299344 616
7.35999990254641 648
7.37999990209937 699
7.39999990165234 648
7.4199999012053 617
7.43999990075827 661
7.45999990031123 661
7.4799998998642 635
7.49999989941716 650
7.51999989897013 651
7.53999989852309 621
7.55999989807606 633
7.57999989762902 635
7.59999989718199 629
7.61999989673495 646
7.63999989628792 664
7.65999989584088 647
7.67999989539385 649
7.69999989494681 604
7.71999989449978 629
7.73999989405274 606
7.75999989360571 607
7.77999989315867 660
7.79999989271164 626
7.8199998922646 637
7.83999989181757 658
7.85999989137053 640
7.8799998909235 683
7.89999989047646 652
7.91999989002943 591
7.9399998895824 663
7.95999988913536 630
7.97999988868833 615
7.99999988824129 609
8.01999988779426 599
8.03999988734722 629
8.05999988690019 643
8.07999988645315 635
8.09999988600612 619
8.11999988555908 649
8.13999988511205 624
8.15999988466501 645
8.17999988421798 656
8.19999988377094 592
8.21999988332391 588
8.23999988287687 580
8.25999988242984 606
8.2799998819828 601
8.29999988153577 576
8.31999988108873 642
8.3399998806417 582
8.35999988019466 590
8.37999987974763 641
8.39999987930059 641
8.41999987885356 581
8.43999987840652 613
8.45999987795949 616
8.47999987751245 582
8.49999987706542 626
8.51999987661839 624
8.53999987617135 619
8.55999987572432 594
8.57999987527728 606
8.59999987483025 605
8.61999987438321 584
8.63999987393618 626
8.65999987348914 596
8.67999987304211 616
8.69999987259507 623
8.71999987214804 600
8.739999871701 588
8.75999987125397 593
8.77999987080693 568
8.7999998703599 591
8.81999986991286 584
8.83999986946583 603
8.85999986901879 607
8.87999986857176 613
8.89999986812472 541
8.91999986767769 599
8.93999986723065 560
8.95999986678362 619
8.97999986633658 603
8.99999986588955 585
9.01999986544251 580
9.03999986499548 571
9.05999986454844 609
9.07999986410141 621
9.09999986365438 644
9.11999986320734 630
9.13999986276031 648
9.15999986231327 606
9.17999986186624 637
9.1999998614192 679
9.21999986097217 675
9.23999986052513 699
9.2599998600781 680
9.27999985963106 792
9.29999985918403 749
9.31999985873699 773
9.33999985828996 785
9.35999985784292 678
9.37999985739589 676
9.39999985694885 613
9.41999985650182 611
9.43999985605478 637
9.45999985560775 587
9.47999985516071 579
9.49999985471368 603
9.51999985426664 575
9.53999985381961 599
9.55999985337257 589
9.57999985292554 554
9.5999998524785 575
9.61999985203147 606
9.63999985158443 597
9.6599998511374 589
9.67999985069037 534
9.69999985024333 603
9.7199998497963 599
9.73999984934926 577
9.75999984890223 589
9.77999984845519 564
9.79999984800816 561
9.81999984756112 598
9.83999984711409 564
9.85999984666705 578
9.87999984622002 557
9.89999984577298 593
9.91999984532595 586
9.93999984487891 592
9.95999984443188 551
9.97999984398484 547
9.99999984353781 581
10.0199998430908 582
10.0399998426437 569
10.0599998421967 587
10.0799998417497 568
10.0999998413026 560
10.1199998408556 572
10.1399998404086 581
10.1599998399615 570
10.1799998395145 619
10.1999998390675 557
10.2199998386204 590
10.2399998381734 587
10.2599998377264 566
10.2799998372793 596
10.2999998368323 551
10.3199998363853 528
10.3399998359382 555
10.3599998354912 535
10.3799998350441 596
10.3999998345971 566
10.4199998341501 548
10.439999833703 558
10.459999833256 540
10.479999832809 552
10.4999998323619 606
10.5199998319149 521
10.5399998314679 551
10.5599998310208 584
10.5799998305738 557
10.5999998301268 580
10.6199998296797 580
10.6399998292327 555
10.6599998287857 594
10.6799998283386 615
10.6999998278916 609
10.7199998274446 652
10.7399998269975 643
10.7599998265505 607
10.7799998261034 608
10.7999998256564 626
10.8199998252094 589
10.8399998247623 582
10.8599998243153 641
10.8799998238683 567
10.8999998234212 611
10.9199998229742 606
10.9399998225272 611
10.9599998220801 625
10.9799998216331 568
10.9999998211861 558
11.019999820739 544
11.039999820292 568
11.059999819845 517
11.0799998193979 556
11.0999998189509 541
11.1199998185039 560
11.1399998180568 554
11.1599998176098 588
11.1799998171628 557
11.1999998167157 565
11.2199998162687 518
11.2399998158216 524
11.2599998153746 562
11.2799998149276 547
11.2999998144805 538
11.3199998140335 551
11.3399998135865 517
11.3599998131394 540
11.3799998126924 526
11.3999998122454 572
11.4199998117983 572
11.4399998113513 561
11.4599998109043 563
11.4799998104572 558
11.4999998100102 544
11.5199998095632 568
11.5399998091161 601
11.5599998086691 587
11.5799998082221 537
11.599999807775 554
11.619999807328 554
11.639999806881 564
11.6599998064339 583
11.6799998059869 517
11.6999998055398 570
11.7199998050928 534
11.7399998046458 585
11.7599998041987 586
11.7799998037517 538
11.7999998033047 548
11.8199998028576 534
11.8399998024106 587
11.8599998019636 551
11.8799998015165 579
11.8999998010695 565
11.9199998006225 572
11.9399998001754 539
11.9599997997284 517
11.9799997992814 559
11.9999997988343 558
12.0199997983873 564
12.0399997979403 563
12.0599997974932 583
12.0799997970462 570
12.0999997965992 562
12.1199997961521 551
12.1399997957051 543
12.159999795258 574
12.179999794811 575
12.199999794364 581
12.2199997939169 561
12.2399997934699 574
12.2599997930229 565
12.2799997925758 553
12.2999997921288 571
12.3199997916818 565
12.3399997912347 563
12.3599997907877 593
12.3799997903407 572
12.3999997898936 568
12.4199997894466 575
12.4399997889996 567
12.4599997885525 519
12.4799997881055 570
12.4999997876585 571
12.5199997872114 604
12.5399997867644 551
12.5599997863173 544
12.5799997858703 563
12.5999997854233 559
12.6199997849762 536
12.6399997845292 539
12.6599997840822 562
12.6799997836351 605
12.6999997831881 578
12.7199997827411 561
12.739999782294 542
12.759999781847 610
12.7799997814 603
12.7999997809529 589
12.8199997805059 594
12.8399997800589 580
12.8599997796118 594
12.8799997791648 574
12.8999997787178 612
12.9199997782707 578
12.9399997778237 530
12.9599997773767 597
12.9799997769296 581
12.9999997764826 568
13.0199997760355 542
13.0399997755885 596
13.0599997751415 598
13.0799997746944 564
13.0999997742474 517
13.1199997738004 578
13.1399997733533 564
13.1599997729063 546
13.1799997724593 608
13.1999997720122 605
13.2199997715652 566
13.2399997711182 561
13.2599997706711 601
13.2799997702241 525
13.2999997697771 596
13.31999976933 628
13.339999768883 547
13.359999768436 597
13.3799997679889 608
13.3999997675419 577
13.4199997670949 622
13.4399997666478 570
13.4599997662008 599
13.4799997657537 610
13.4999997653067 602
13.5199997648597 554
13.5399997644126 575
13.5599997639656 592
13.5799997635186 583
13.5999997630715 627
13.6199997626245 639
13.6399997621775 560
13.6599997617304 641
13.6799997612834 588
13.6999997608364 583
13.7199997603893 615
13.7399997599423 615
13.7599997594953 604
13.7799997590482 618
13.7999997586012 590
13.8199997581542 625
13.8399997577071 598
13.8599997572601 621
13.879999756813 634
13.899999756366 618
13.919999755919 608
13.9399997554719 607
13.9599997550249 604
13.9799997545779 596
13.9999997541308 604
14.0199997536838 617
14.0399997532368 602
14.0599997527897 658
14.0799997523427 636
14.0999997518957 606
14.1199997514486 615
14.1399997510016 643
14.1599997505546 618
14.1799997501075 661
14.1999997496605 605
14.2199997492135 648
14.2399997487664 664
14.2599997483194 606
14.2799997478724 613
14.2999997474253 665
14.3199997469783 671
14.3399997465312 631
14.3599997460842 613
14.3799997456372 635
14.3999997451901 653
14.4199997447431 670
14.4399997442961 620
14.459999743849 670
14.479999743402 638
14.499999742955 645
14.5199997425079 665
14.5399997420609 648
14.5599997416139 636
14.5799997411668 644
14.5999997407198 619
14.6199997402728 654
14.6399997398257 669
14.6599997393787 669
14.6799997389317 597
14.6999997384846 687
14.7199997380376 659
14.7399997375906 677
14.7599997371435 672
14.7799997366965 688
14.7999997362494 639
14.8199997358024 638
14.8399997353554 701
14.8599997349083 654
14.8799997344613 667
14.8999997340143 688
14.9199997335672 666
14.9399997331202 693
14.9599997326732 668
14.9799997322261 684
14.9999997317791 674
15.0199997313321 692
15.039999730885 692
15.059999730438 655
15.079999729991 663
15.0999997295439 690
15.1199997290969 668
15.1399997286499 632
15.1599997282028 639
15.1799997277558 708
15.1999997273088 733
15.2199997268617 716
15.2399997264147 695
15.2599997259676 649
15.2799997255206 679
15.2999997250736 695
15.3199997246265 694
15.3399997241795 701
15.3599997237325 686
15.3799997232854 709
15.3999997228384 755
15.4199997223914 672
15.4399997219443 736
15.4599997214973 690
15.4799997210503 717
15.4999997206032 716
15.5199997201562 695
15.5399997197092 736
15.5599997192621 768
15.5799997188151 719
15.5999997183681 712
15.619999717921 735
15.639999717474 687
15.659999717027 710
15.6799997165799 702
15.6999997161329 757
15.7199997156858 699
15.7399997152388 683
15.7599997147918 727
15.7799997143447 706
15.7999997138977 732
15.8199997134507 723
15.8399997130036 737
15.8599997125566 745
15.8799997121096 737
15.8999997116625 764
15.9199997112155 745
15.9399997107685 738
15.9599997103214 735
15.9799997098744 751
15.9999997094274 727
16.0199997089803 744
16.0399997085333 775
16.0599997080863 690
16.0799997076392 712
16.0999997071922 747
16.1199997067451 781
16.1399997062981 772
16.1599997058511 771
16.179999705404 758
16.199999704957 741
16.21999970451 776
16.2399997040629 745
16.2599997036159 804
16.2799997031689 796
16.2999997027218 776
16.3199997022748 818
16.3399997018278 749
16.3599997013807 733
16.3799997009337 792
16.3999997004867 827
16.4199997000396 789
16.4399996995926 776
16.4599996991456 801
16.4799996986985 766
16.4999996982515 816
16.5199996978045 805
16.5399996973574 856
16.5599996969104 794
16.5799996964633 740
16.5999996960163 828
16.6199996955693 808
16.6399996951222 839
16.6599996946752 796
16.6799996942282 791
16.6999996937811 817
16.7199996933341 822
16.7399996928871 876
16.75999969244 914
16.779999691993 798
16.799999691546 886
16.8199996910989 870
16.8399996906519 867
16.8599996902049 904
16.8799996897578 977
16.8999996893108 987
16.9199996888638 1014
16.9399996884167 1169
16.9599996879697 1267
16.9799996875226 1292
16.9999996870756 1231
17.0199996866286 1065
17.0399996861815 930
17.0599996857345 904
17.0799996852875 820
17.0999996848404 817
17.1199996843934 877
17.1399996839464 902
17.1599996834993 868
17.1799996830523 910
17.1999996826053 846
17.2199996821582 826
17.2399996817112 866
17.2599996812642 876
17.2799996808171 894
17.2999996803701 920
17.3199996799231 945
17.339999679476 899
17.359999679029 884
17.379999678582 939
17.3999996781349 933
17.4199996776879 945
17.4399996772408 981
17.4599996767938 876
17.4799996763468 970
17.4999996758997 994
17.5199996754527 925
17.5399996750057 919
17.5599996745586 924
17.5799996741116 926
17.5999996736646 959
17.6199996732175 849
17.6399996727705 902
17.6599996723235 938
17.6799996718764 908
17.6999996714294 870
17.7199996709824 952
17.7399996705353 991
17.7599996700883 955
17.7799996696413 948
17.7999996691942 997
17.8199996687472 974
17.8399996683002 991
17.8599996678531 1023
17.8799996674061 959
17.899999666959 939
17.919999666512 959
17.939999666065 967
17.9599996656179 973
17.9799996651709 950
17.9999996647239 971
18.0199996642768 1019
18.0399996638298 958
18.0599996633828 979
18.0799996629357 965
18.0999996624887 966
18.1199996620417 982
18.1399996615946 986
18.1599996611476 1029
18.1799996607006 1007
18.1999996602535 1015
18.2199996598065 996
18.2399996593595 1000
18.2599996589124 993
18.2799996584654 997
18.2999996580184 982
18.3199996575713 993
18.3399996571243 1067
18.3599996566772 1019
18.3799996562302 1009
18.3999996557832 999
18.4199996553361 998
18.4399996548891 1101
18.4599996544421 1053
18.479999653995 1045
18.499999653548 1000
18.519999653101 1041
18.5399996526539 1084
18.5599996522069 1093
18.5799996517599 1046
18.5999996513128 1100
18.6199996508658 1053
18.6399996504188 1048
18.6599996499717 1099
18.6799996495247 1034
18.6999996490777 1095
18.7199996486306 1120
18.7399996481836 1071
18.7599996477366 1114
18.7799996472895 1124
18.7999996468425 1127
18.8199996463954 1050
18.8399996459484 1056
18.8599996455014 1108
18.8799996450543 1082
18.8999996446073 1102
18.9199996441603 1091
18.9399996437132 1071
18.9599996432662 1151
18.9799996428192 1112
18.9999996423721 1095
19.0199996419251 1122
19.0399996414781 1169
19.059999641031 1112
19.079999640584 1149
19.099999640137 1101
19.1199996396899 1094
19.1399996392429 1143
19.1599996387959 1132
19.1799996383488 1133
19.1999996379018 1126
19.2199996374547 1126
19.2399996370077 1158
19.2599996365607 1128
19.2799996361136 1144
19.2999996356666 1197
19.3199996352196 1137
19.3399996347725 1141
19.3599996343255 1142
19.3799996338785 1150
19.3999996334314 1147
19.4199996329844 1158
19.4399996325374 1200
19.4599996320903 1228
19.4799996316433 1198
19.4999996311963 1200
19.5199996307492 1150
19.5399996303022 1263
19.5599996298552 1218
19.5799996294081 1260
19.5999996289611 1224
19.6199996285141 1188
19.639999628067 1186
19.65999962762 1136
19.6799996271729 1192
19.6999996267259 1205
19.7199996262789 1228
19.7399996258318 1193
19.7599996253848 1224
19.7799996249378 1201
19.7999996244907 1210
19.8199996240437 1239
19.8399996235967 1257
19.8599996231496 1227
19.8799996227026 1178
19.8999996222556 1295
19.9199996218085 1187
19.9399996213615 1195
19.9599996209145 1211
19.9799996204674 1233
19.9999996200204 1196
