3 2387
3.01999999955297 2383
3.03999999910593 2182
3.0599999986589 1902
3.07999999821186 1837
3.09999999776483 1790
3.11999999731779 1692
3.13999999687076 1688
3.15999999642372 1688
3.17999999597669 1644
3.19999999552965 1641
3.21999999508262 1634
3.23999999463558 1565
3.25999999418855 1564
3.27999999374151 1487
3.29999999329448 1523
3.31999999284744 1468
3.33999999240041 1463
3.35999999195337 1414
3.37999999150634 1449
3.3999999910593 1443
3.41999999061227 1439
3.43999999016523 1320
3.4599999897182 1369
3.47999998927116 1358
3.49999998882413 1437
3.51999998837709 1356
3.53999998793006 1375
3.55999998748302 1295
3.57999998703599 1284
3.59999998658895 1286
3.61999998614192 1231
3.63999998569489 1258
3.65999998524785 1203
3.67999998480082 1172
3.69999998435378 1220
3.71999998390675 1223
3.73999998345971 1211
3.75999998301268 1191
3.77999998256564 1196
3.79999998211861 1188
3.81999998167157 1146
3.83999998122454 1127
3.8599999807775 1182
3.87999998033047 1139
3.89999997988343 1153
3.9199999794364 1146
3.93999997898936 1182
3.95999997854233 1113
3.97999997809529 1141
3.99999997764826 1133
4.01999997720122 1107
4.03999997675419 1142
4.05999997630715 1066
4.07999997586012 1135
4.09999997541308 1100
4.11999997496605 1073
4.13999997451901 1073
4.15999997407198 1088
4.17999997362494 1151
4.19999997317791 1050
4.21999997273087 1090
4.23999997228384 1061
4.25999997183681 1013
4.27999997138977 993
4.29999997094274 1009
4.3199999704957 1012
4.33999997004867 1003
4.35999996960163 980
4.3799999691546 1010
4.39999996870756 973
4.41999996826053 1006
4.43999996781349 925
4.45999996736646 959
4.47999996691942 941
4.49999996647239 919
4.51999996602535 919
4.53999996557832 921
4.55999996513128 927
4.57999996468425 934
4.59999996423721 913
4.61999996379018 902
4.63999996334314 887
4.65999996289611 883
4.67999996244907 859
4.69999996200204 882
4.719999961555 888
4.73999996110797 881
4.75999996066093 861
4.7799999602139 897
4.79999995976686 864
4.81999995931983 838
4.83999995887279 818
4.85999995842576 850
4.87999995797873 874
4.89999995753169 880
4.91999995708466 881
4.93999995663762 863
4.95999995619059 865
4.97999995574355 872
4.99999995529652 924
5.01999995484948 880
5.03999995440245 899
5.05999995395541 914
5.07999995350838 887
5.09999995306134 888
5.11999995261431 888
5.13999995216727 907
5.15999995172024 883
5.1799999512732 897
5.19999995082617 951
5.21999995037913 966
5.2399999499321 973
5.25999994948506 964
5.27999994903803 1001
5.29999994859099 1003
5.31999994814396 1042
5.33999994769692 1149
5.35999994724989 1101
5.37999994680285 1143
5.39999994635582 1235
5.41999994590878 1305
5.43999994546175 1386
5.45999994501471 1438
5.47999994456768 1492
5.49999994412065 1497
5.51999994367361 1579
5.53999994322658 1683
5.55999994277954 1789
5.57999994233251 1805
5.59999994188547 1733
5.61999994143844 1625
5.6399999409914 1326
5.65999994054437 1312
5.67999994009733 1324
5.6999999396503 1263
5.71999993920326 1251
5.73999993875623 1263
5.75999993830919 1290
5.77999993786216 1246
5.79999993741512 1355
5.81999993696809 1319
5.83999993652105 1310
5.85999993607402 1377
5.87999993562698 1345
5.89999993517995 1369
5.91999993473291 1306
5.93999993428588 1271
5.95999993383884 1221
5.97999993339181 1070
5.99999993294477 937
6.01999993249774 811
6.0399999320507 800
6.05999993160367 756
6.07999993115663 721
6.0999999307096 723
6.11999993026257 736
6.13999992981553 710
6.1599999293685 671
6.17999992892146 679
6.19999992847443 645
6.21999992802739 627
6.23999992758036 677
6.25999992713332 648
6.27999992668629 683
6.29999992623925 640
6.31999992579222 646
6.33999992534518 637
6.35999992489815 647
6.37999992445111 631
6.39999992400408 630
6.41999992355704 593
6.43999992311001 629
6.45999992266297 644
6.47999992221594 591
6.4999999217689 626
6.51999992132187 640
6.53999992087483 623
6.5599999204278 630
6.57999991998076 622
6.59999991953373 666
6.61999991908669 617
6.63999991863966 618
6.65999991819262 612
6.67999991774559 663
6.69999991729855 600
6.71999991685152 610
6.73999991640449 634
6.75999991595745 681
6.77999991551042 622
6.79999991506338 628
6.81999991461635 616
6.83999991416931 664
6.85999991372228 672
6.87999991327524 611
6.89999991282821 643
6.91999991238117 615
6.93999991193414 610
6.9599999114871 628
6.97999991104007 614
6.99999991059303 623
7.019999910146 573
7.03999990969896 629
7.05999990925193 572
7.07999990880489 571
7.09999990835786 608
7.11999990791082 561
7.13999990746379 572
7.15999990701675 550
7.17999990656972 589
7.19999990612268 601
7.21999990567565 556
7.23999990522861 582
7.25999990478158 543
7.27999990433454 543
7.29999990388751 540
7.31999990344047 594
7.33999990299344 581
7.35999990254641 597
7.37999990209937 541
7.39999990165234 538
7.4199999012053 579
7.43999990075827 531
7.45999990031123 566
7.4799998998642 562
7.49999989941716 557
7.51999989897013 529
7.53999989852309 567
7.55999989807606 573
7.57999989762902 588
7.59999989718199 582
7.61999989673495 563
7.63999989628792 577
7.65999989584088 547
7.67999989539385 558
7.69999989494681 574
7.71999989449978 552
7.73999989405274 525
7.75999989360571 554
7.77999989315867 500
7.79999989271164 536
7.8199998922646 537
7.83999989181757 549
7.85999989137053 525
7.8799998909235 505
7.89999989047646 583
7.91999989002943 549
7.9399998895824 545
7.95999988913536 518
7.97999988868833 513
7.99999988824129 569
8.01999988779426 540
8.03999988734722 517
8.05999988690019 561
8.07999988645315 591
8.09999988600612 529
8.11999988555908 551
8.13999988511205 561
8.15999988466501 527
8.17999988421798 598
8.19999988377094 526
8.21999988332391 510
8.23999988287687 522
8.25999988242984 556
8.2799998819828 536
8.29999988153577 551
8.31999988108873 596
8.3399998806417 557
8.35999988019466 565
8.37999987974763 508
8.39999987930059 530
8.41999987885356 533
8.43999987840652 548
8.45999987795949 538
8.47999987751245 515
8.49999987706542 527
8.51999987661839 530
8.53999987617135 511
8.55999987572432 553
8.57999987527728 549
8.59999987483025 502
8.61999987438321 540
8.63999987393618 538
8.65999987348914 534
8.67999987304211 535
8.69999987259507 506
8.71999987214804 532
8.739999871701 531
8.75999987125397 557
8.77999987080693 527
8.7999998703599 557
8.81999986991286 535
8.83999986946583 516
8.85999986901879 512
8.87999986857176 533
8.89999986812472 550
8.91999986767769 529
8.93999986723065 544
8.95999986678362 530
8.97999986633658 542
8.99999986588955 519
9.01999986544251 523
9.03999986499548 515
9.05999986454844 540
9.07999986410141 532
9.09999986365438 543
9.11999986320734 572
9.13999986276031 559
9.15999986231327 547
9.17999986186624 556
9.1999998614192 616
9.21999986097217 584
9.23999986052513 688
9.2599998600781 608
9.27999985963106 623
9.29999985918403 659
9.31999985873699 615
9.33999985828996 713
9.35999985784292 783
9.37999985739589 807
9.39999985694885 745
9.41999985650182 765
9.43999985605478 833
9.45999985560775 868
9.47999985516071 920
9.49999985471368 897
9.51999985426664 865
9.53999985381961 756
9.55999985337257 654
9.57999985292554 588
9.5999998524785 593
9.61999985203147 519
9.63999985158443 534
9.6599998511374 565
9.67999985069037 561
9.69999985024333 512
9.7199998497963 535
9.73999984934926 510
9.75999984890223 515
9.77999984845519 501
9.79999984800816 506
9.81999984756112 520
9.83999984711409 494
9.85999984666705 553
9.87999984622002 523
9.89999984577298 530
9.91999984532595 530
9.93999984487891 525
9.95999984443188 540
9.97999984398484 497
9.99999984353781 511
10.0199998430908 523
10.0399998426437 518
10.0599998421967 527
10.0799998417497 555
10.0999998413026 548
10.1199998408556 562
10.1399998404086 514
10.1599998399615 518
10.1799998395145 518
10.1999998390675 495
10.2199998386204 514
10.2399998381734 528
10.2599998377264 529
10.2799998372793 566
10.2999998368323 537
10.3199998363853 559
10.3399998359382 563
10.3599998354912 548
10.3799998350441 566
10.3999998345971 528
10.4199998341501 485
10.439999833703 517
10.459999833256 498
10.479999832809 547
10.4999998323619 514
10.5199998319149 503
10.5399998314679 513
10.5599998310208 501
10.5799998305738 506
10.5999998301268 516
10.6199998296797 555
10.6399998292327 521
10.6599998287857 509
10.6799998283386 530
10.6999998278916 547
10.7199998274446 547
10.7399998269975 561
10.7599998265505 585
10.7799998261034 590
10.7999998256564 583
10.8199998252094 616
10.8399998247623 630
10.8599998243153 617
10.8799998238683 653
10.8999998234212 715
10.9199998229742 714
10.9399998225272 723
10.9599998220801 695
10.9799998216331 632
10.9999998211861 677
11.019999820739 625
11.039999820292 658
11.059999819845 671
11.0799998193979 634
11.0999998189509 648
11.1199998185039 622
11.1399998180568 623
11.1599998176098 587
11.1799998171628 537
11.1999998167157 519
11.2199998162687 509
11.2399998158216 496
11.2599998153746 504
11.2799998149276 498
11.2999998144805 506
11.3199998140335 498
11.3399998135865 509
11.3599998131394 518
11.3799998126924 522
11.3999998122454 519
11.4199998117983 513
11.4399998113513 521
11.4599998109043 512
11.4799998104572 522
11.4999998100102 495
11.5199998095632 532
11.5399998091161 518
11.5599998086691 565
11.5799998082221 543
11.599999807775 565
11.619999807328 562
11.639999806881 537
11.6599998064339 487
11.6799998059869 569
11.6999998055398 558
11.7199998050928 519
11.7399998046458 541
11.7599998041987 498
11.7799998037517 515
11.7999998033047 533
11.8199998028576 472
11.8399998024106 528
11.8599998019636 524
11.8799998015165 518
11.8999998010695 543
11.9199998006225 490
11.9399998001754 506
11.9599997997284 522
11.9799997992814 489
11.9999997988343 537
12.0199997983873 512
12.0399997979403 517
12.0599997974932 539
12.0799997970462 515
12.0999997965992 501
12.1199997961521 507
12.1399997957051 532
12.159999795258 520
12.179999794811 518
12.199999794364 524
12.2199997939169 526
12.2399997934699 516
12.2599997930229 549
12.2799997925758 514
12.2999997921288 516
12.3199997916818 539
12.3399997912347 588
12.3599997907877 492
12.3799997903407 579
12.3999997898936 542
12.4199997894466 539
12.4399997889996 548
12.4599997885525 523
12.4799997881055 530
12.4999997876585 501
12.5199997872114 510
12.5399997867644 538
12.5599997863173 511
12.5799997858703 496
12.5999997854233 536
12.6199997849762 513
12.6399997845292 514
12.6599997840822 547
12.6799997836351 487
12.6999997831881 532
12.7199997827411 513
12.739999782294 533
12.759999781847 561
12.7799997814 499
12.7999997809529 517
12.8199997805059 504
12.8399997800589 508
12.8599997796118 537
12.8799997791648 516
12.8999997787178 516
12.9199997782707 538
12.9399997778237 502
12.9599997773767 500
12.9799997769296 491
12.9999997764826 541
13.0199997760355 511
13.0399997755885 528
13.0599997751415 525
13.0799997746944 516
13.0999997742474 514
13.1199997738004 517
13.1399997733533 537
13.1599997729063 544
13.1799997724593 530
13.1999997720122 565
13.2199997715652 556
13.2399997711182 539
13.2599997706711 538
13.2799997702241 560
13.2999997697771 569
13.31999976933 548
13.339999768883 582
13.359999768436 602
13.3799997679889 598
13.3999997675419 590
13.4199997670949 580
13.4399997666478 637
13.4599997662008 580
13.4799997657537 573
13.4999997653067 614
13.5199997648597 591
13.5399997644126 546
13.5599997639656 541
13.5799997635186 551
13.5999997630715 582
13.6199997626245 555
13.6399997621775 552
13.6599997617304 515
13.6799997612834 544
13.6999997608364 541
13.7199997603893 536
13.7399997599423 570
13.7599997594953 573
13.7799997590482 543
13.7999997586012 547
13.8199997581542 564
13.8399997577071 519
13.8599997572601 559
13.879999756813 583
13.899999756366 565
13.919999755919 535
13.9399997554719 558
13.9599997550249 537
13.9799997545779 576
13.9999997541308 556
14.0199997536838 555
14.0399997532368 602
14.0599997527897 589
14.0799997523427 573
14.0999997518957 565
14.1199997514486 611
14.1399997510016 578
14.1599997505546 547
14.1799997501075 565
14.1999997496605 596
14.2199997492135 525
14.2399997487664 578
14.2599997483194 620
14.2799997478724 552
14.2999997474253 570
14.3199997469783 591
14.3399997465312 565
14.3599997460842 586
14.3799997456372 589
14.3999997451901 632
14.4199997447431 624
14.4399997442961 603
14.459999743849 603
14.479999743402 600
14.499999742955 592
14.5199997425079 597
14.5399997420609 599
14.5599997416139 628
14.5799997411668 561
14.5999997407198 566
14.6199997402728 615
14.6399997398257 579
14.6599997393787 650
14.6799997389317 625
14.6999997384846 612
14.7199997380376 611
14.7399997375906 578
14.7599997371435 616
14.7799997366965 640
14.7999997362494 634
14.8199997358024 647
14.8399997353554 631
14.8599997349083 617
14.8799997344613 609
14.8999997340143 615
14.9199997335672 638
14.9399997331202 644
14.9599997326732 570
14.9799997322261 613
14.9999997317791 595
15.0199997313321 623
15.039999730885 637
15.059999730438 627
15.079999729991 614
15.0999997295439 617
15.1199997290969 599
15.1399997286499 624
15.1599997282028 621
15.1799997277558 641
15.1999997273088 608
15.2199997268617 651
15.2399997264147 640
15.2599997259676 628
15.2799997255206 623
15.2999997250736 651
15.3199997246265 629
15.3399997241795 648
15.3599997237325 660
15.3799997232854 662
15.3999997228384 591
15.4199997223914 611
15.4399997219443 631
15.4599997214973 607
15.4799997210503 617
15.4999997206032 675
15.5199997201562 646
15.5399997197092 679
15.5599997192621 673
15.5799997188151 634
15.5999997183681 648
15.619999717921 676
15.639999717474 649
15.659999717027 608
15.6799997165799 657
15.6999997161329 694
15.7199997156858 672
15.7399997152388 668
15.7599997147918 688
15.7799997143447 684
15.7999997138977 685
15.8199997134507 669
15.8399997130036 655
15.8599997125566 678
15.8799997121096 702
15.8999997116625 720
15.9199997112155 682
15.9399997107685 692
15.9599997103214 653
15.9799997098744 690
15.9999997094274 699
16.0199997089803 626
16.0399997085333 716
16.0599997080863 718
16.0799997076392 678
16.0999997071922 706
16.1199997067451 670
16.1399997062981 715
16.1599997058511 746
16.179999705404 701
16.199999704957 677
16.21999970451 729
16.2399997040629 758
16.2599997036159 742
16.2799997031689 716
16.2999997027218 728
16.3199997022748 698
16.3399997018278 728
16.3599997013807 783
16.3799997009337 724
16.3999997004867 761
16.4199997000396 734
16.4399996995926 764
16.4599996991456 738
16.4799996986985 748
16.4999996982515 744
16.5199996978045 746
16.5399996973574 772
16.5599996969104 769
16.5799996964633 757
16.5999996960163 786
16.6199996955693 765
16.6399996951222 763
16.6599996946752 770
16.6799996942282 773
16.6999996937811 796
16.7199996933341 753
16.7399996928871 769
16.75999969244 854
16.779999691993 815
16.799999691546 822
16.8199996910989 814
16.8399996906519 823
16.8599996902049 815
16.8799996897578 826
16.8999996893108 910
16.9199996888638 938
16.9399996884167 983
16.9599996879697 1014
16.9799996875226 1192
16.9999996870756 1295
17.0199996866286 1482
17.0399996861815 1479
17.0599996857345 1581
17.0799996852875 1799
17.0999996848404 2079
17.1199996843934 2273
17.1399996839464 2989
17.1599996834993 3258
17.1799996830523 3072
17.1999996826053 2512
17.2199996821582 1845
17.2399996817112 1301
17.2599996812642 1030
17.2799996808171 902
17.2999996803701 897
17.3199996799231 946
17.339999679476 897
17.359999679029 836
17.379999678582 871
17.3999996781349 885
17.4199996776879 915
17.4399996772408 917
17.4599996767938 855
17.4799996763468 877
17.4999996758997 850
17.5199996754527 860
17.5399996750057 871
17.5599996745586 856
17.5799996741116 969
17.5999996736646 890
17.6199996732175 888
17.6399996727705 867
17.6599996723235 877
17.6799996718764 907
17.6999996714294 932
17.7199996709824 877
17.7399996705353 890
17.7599996700883 873
17.7799996696413 867
17.7999996691942 904
17.8199996687472 905
17.8399996683002 921
17.8599996678531 943
17.8799996674061 938
17.899999666959 924
17.919999666512 885
17.939999666065 925
17.9599996656179 884
17.9799996651709 935
17.9999996647239 921
18.0199996642768 932
18.0399996638298 943
18.0599996633828 969
18.0799996629357 925
18.0999996624887 962
18.1199996620417 968
18.1399996615946 972
18.1599996611476 952
18.1799996607006 961
18.1999996602535 981
18.2199996598065 983
18.2399996593595 997
18.2599996589124 915
18.2799996584654 887
18.2999996580184 948
18.3199996575713 934
18.3399996571243 937
18.3599996566772 1021
18.3799996562302 978
18.3999996557832 967
18.4199996553361 963
18.4399996548891 1020
18.4599996544421 964
18.479999653995 981
18.499999653548 977
18.519999653101 963
18.5399996526539 999
18.5599996522069 1053
18.5799996517599 1029
18.5999996513128 1063
18.6199996508658 977
18.6399996504188 1016
18.6599996499717 1036
18.6799996495247 1027
18.6999996490777 994
18.7199996486306 1023
18.7399996481836 1036
18.7599996477366 982
18.7799996472895 1034
18.7999996468425 981
18.8199996463954 1009
18.8399996459484 1072
18.8599996455014 1061
18.8799996450543 1069
18.8999996446073 1096
18.9199996441603 1039
18.9399996437132 1036
18.9599996432662 1094
18.9799996428192 1034
18.9999996423721 1086
19.0199996419251 1120
19.0399996414781 1058
19.059999641031 1099
19.079999640584 1066
19.099999640137 1094
19.1199996396899 1089
19.1399996392429 1118
19.1599996387959 1214
19.1799996383488 1168
19.1999996379018 1105
19.2199996374547 1127
19.2399996370077 1086
19.2599996365607 1120
19.2799996361136 1164
19.2999996356666 1158
19.3199996352196 1188
19.3399996347725 1208
19.3599996343255 1193
19.3799996338785 1090
19.3999996334314 1113
19.4199996329844 1210
19.4399996325374 1188
19.4599996320903 1158
19.4799996316433 1222
19.4999996311963 1221
19.5199996307492 1201
19.5399996303022 1231
19.5599996298552 1245
19.5799996294081 1318
19.5999996289611 1292
19.6199996285141 1272
19.639999628067 1235
19.65999962762 1231
19.6799996271729 1210
19.6999996267259 1228
19.7199996262789 1268
19.7399996258318 1214
19.7599996253848 1199
19.7799996249378 1234
19.7999996244907 1248
19.8199996240437 1216
19.8399996235967 1195
19.8599996231496 1135
19.8799996227026 1220
19.8999996222556 1186
19.9199996218085 1209
19.9399996213615 1247
19.9599996209145 1244
19.9799996204674 1234
19.9999996200204 1246
