3 2489
3.01999999955297 2322
3.03999999910593 2204
3.0599999986589 2154
3.07999999821186 2022
3.09999999776483 1888
3.11999999731779 1858
3.13999999687076 1781
3.15999999642372 1735
3.17999999597669 1691
3.19999999552965 1692
3.21999999508262 1625
3.23999999463558 1671
3.25999999418855 1639
3.27999999374151 1617
3.29999999329448 1641
3.31999999284744 1637
3.33999999240041 1547
3.35999999195337 1582
3.37999999150634 1584
3.3999999910593 1590
3.41999999061227 1555
3.43999999016523 1501
3.4599999897182 1498
3.47999998927116 1541
3.49999998882413 1507
3.51999998837709 1518
3.53999998793006 1446
3.55999998748302 1486
3.57999998703599 1481
3.59999998658895 1483
3.61999998614192 1500
3.63999998569489 1358
3.65999998524785 1432
3.67999998480082 1432
3.69999998435378 1438
3.71999998390675 1406
3.73999998345971 1413
3.75999998301268 1419
3.77999998256564 1378
3.79999998211861 1432
3.81999998167157 1423
3.83999998122454 1434
3.8599999807775 1444
3.87999998033047 1413
3.89999997988343 1399
3.9199999794364 1351
3.93999997898936 1386
3.95999997854233 1459
3.97999997809529 1482
3.99999997764826 1481
4.01999997720122 1500
4.03999997675419 1576
4.05999997630715 1567
4.07999997586012 1529
4.09999997541308 1550
4.11999997496605 1467
4.13999997451901 1448
4.15999997407198 1436
4.17999997362494 1402
4.19999997317791 1385
4.21999997273087 1383
4.23999997228384 1360
4.25999997183681 1303
4.27999997138977 1267
4.29999997094274 1248
4.3199999704957 1275
4.33999997004867 1242
4.35999996960163 1166
4.3799999691546 1254
4.39999996870756 1201
4.41999996826053 1169
4.43999996781349 1238
4.45999996736646 1188
4.47999996691942 1219
4.49999996647239 1232
4.51999996602535 1180
4.53999996557832 1181
4.55999996513128 1214
4.57999996468425 1202
4.59999996423721 1198
4.61999996379018 1218
4.63999996334314 1213
4.65999996289611 1200
4.67999996244907 1200
4.69999996200204 1188
4.719999961555 1244
4.73999996110797 1216
4.75999996066093 1231
4.7799999602139 1225
4.79999995976686 1245
4.81999995931983 1274
4.83999995887279 1257
4.85999995842576 1239
4.87999995797873 1325
4.89999995753169 1289
4.91999995708466 1275
4.93999995663762 1350
4.95999995619059 1350
4.97999995574355 1317
4.99999995529652 1413
5.01999995484948 1456
5.03999995440245 1407
5.05999995395541 1496
5.07999995350838 1514
5.09999995306134 1512
5.11999995261431 1694
5.13999995216727 1645
5.15999995172024 1737
5.1799999512732 1787
5.19999995082617 1861
5.21999995037913 1875
5.2399999499321 1983
5.25999994948506 2101
5.27999994903803 2209
5.29999994859099 2371
5.31999994814396 2522
5.33999994769692 2657
5.35999994724989 2782
5.37999994680285 3077
5.39999994635582 3442
5.41999994590878 3714
5.43999994546175 3880
5.45999994501471 3899
5.47999994456768 3691
5.49999994412065 2985
5.51999994367361 2638
5.53999994322658 2579
5.55999994277954 2474
5.57999994233251 2338
5.59999994188547 2562
5.61999994143844 2397
5.6399999409914 2455
5.65999994054437 2522
5.67999994009733 2624
5.6999999396503 2757
5.71999993920326 2918
5.73999993875623 3043
5.75999993830919 3336
5.77999993786216 3442
5.79999993741512 3374
5.81999993696809 3224
5.83999993652105 2935
5.85999993607402 2349
5.87999993562698 1953
5.89999993517995 1565
5.91999993473291 1349
5.93999993428588 1211
5.95999993383884 1120
5.97999993339181 1016
5.99999993294477 957
6.01999993249774 983
6.0399999320507 928
6.05999993160367 931
6.07999993115663 955
6.0999999307096 914
6.11999993026257 842
6.13999992981553 889
6.1599999293685 809
6.17999992892146 862
6.19999992847443 809
6.21999992802739 872
6.23999992758036 832
6.25999992713332 876
6.27999992668629 819
6.29999992623925 850
6.31999992579222 837
6.33999992534518 786
6.35999992489815 778
6.37999992445111 810
6.39999992400408 770
6.41999992355704 831
6.43999992311001 801
6.45999992266297 834
6.47999992221594 804
6.4999999217689 800
6.51999992132187 816
6.53999992087483 787
6.5599999204278 816
6.57999991998076 810
6.59999991953373 869
6.61999991908669 773
6.63999991863966 837
6.65999991819262 813
6.67999991774559 896
6.69999991729855 887
6.71999991685152 904
6.73999991640449 871
6.75999991595745 915
6.77999991551042 890
6.79999991506338 847
6.81999991461635 879
6.83999991416931 884
6.85999991372228 824
6.87999991327524 784
6.89999991282821 715
6.91999991238117 730
6.93999991193414 687
6.9599999114871 724
6.97999991104007 731
6.99999991059303 690
7.019999910146 736
7.03999990969896 727
7.05999990925193 724
7.07999990880489 670
7.09999990835786 672
7.11999990791082 647
7.13999990746379 641
7.15999990701675 672
7.17999990656972 687
7.19999990612268 651
7.21999990567565 680
7.23999990522861 702
7.25999990478158 692
7.27999990433454 682
7.29999990388751 685
7.31999990344047 651
7.33999990299344 656
7.35999990254641 701
7.37999990209937 663
7.39999990165234 622
7.4199999012053 627
7.43999990075827 633
7.45999990031123 685
7.4799998998642 659
7.49999989941716 676
7.51999989897013 606
7.53999989852309 624
7.55999989807606 603
7.57999989762902 664
7.59999989718199 614
7.61999989673495 649
7.63999989628792 709
7.65999989584088 662
7.67999989539385 644
7.69999989494681 650
7.71999989449978 673
7.73999989405274 647
7.75999989360571 627
7.77999989315867 635
7.79999989271164 639
7.8199998922646 663
7.83999989181757 632
7.85999989137053 665
7.8799998909235 636
7.89999989047646 629
7.91999989002943 692
7.9399998895824 617
7.95999988913536 671
7.97999988868833 697
7.99999988824129 633
8.01999988779426 651
8.03999988734722 670
8.05999988690019 661
8.07999988645315 649
8.09999988600612 677
8.11999988555908 676
8.13999988511205 691
8.15999988466501 598
8.17999988421798 647
8.19999988377094 687
8.21999988332391 672
8.23999988287687 626
8.25999988242984 662
8.2799998819828 650
8.29999988153577 711
8.31999988108873 636
8.3399998806417 651
8.35999988019466 643
8.37999987974763 668
8.39999987930059 648
8.41999987885356 631
8.43999987840652 665
8.45999987795949 626
8.47999987751245 637
8.49999987706542 675
8.51999987661839 687
8.53999987617135 654
8.55999987572432 619
8.57999987527728 636
8.59999987483025 601
8.61999987438321 627
8.63999987393618 617
8.65999987348914 663
8.67999987304211 629
8.69999987259507 634
8.71999987214804 669
8.739999871701 648
8.75999987125397 624
8.77999987080693 670
8.7999998703599 668
8.81999986991286 674
8.83999986946583 627
8.85999986901879 654
8.87999986857176 685
8.89999986812472 704
8.91999986767769 737
8.93999986723065 684
8.95999986678362 703
8.97999986633658 702
8.99999986588955 677
9.01999986544251 686
9.03999986499548 753
9.05999986454844 766
9.07999986410141 743
9.09999986365438 765
9.11999986320734 795
9.13999986276031 841
9.15999986231327 844
9.17999986186624 855
9.1999998614192 964
9.21999986097217 945
9.23999986052513 1012
9.2599998600781 1092
9.27999985963106 1161
9.29999985918403 1250
9.31999985873699 1428
9.33999985828996 1623
9.35999985784292 1755
9.37999985739589 1833
9.39999985694885 1475
9.41999985650182 1179
9.43999985605478 918
9.45999985560775 777
9.47999985516071 788
9.49999985471368 723
9.51999985426664 762
9.53999985381961 669
9.55999985337257 671
9.57999985292554 703
9.5999998524785 666
9.61999985203147 693
9.63999985158443 625
9.6599998511374 631
9.67999985069037 635
9.69999985024333 642
9.7199998497963 657
9.73999984934926 674
9.75999984890223 662
9.77999984845519 619
9.79999984800816 648
9.81999984756112 659
9.83999984711409 650
9.85999984666705 683
9.87999984622002 607
9.89999984577298 645
9.91999984532595 655
9.93999984487891 645
9.95999984443188 657
9.97999984398484 671
9.99999984353781 674
10.0199998430908 675
10.0399998426437 697
10.0599998421967 713
10.0799998417497 710
10.0999998413026 747
10.1199998408556 748
10.1399998404086 756
10.1599998399615 778
10.1799998395145 815
10.1999998390675 838
10.2199998386204 772
10.2399998381734 765
10.2599998377264 749
10.2799998372793 733
10.2999998368323 669
10.3199998363853 689
10.3399998359382 657
10.3599998354912 657
10.3799998350441 624
10.3999998345971 661
10.4199998341501 663
10.439999833703 622
10.459999833256 657
10.479999832809 635
10.4999998323619 621
10.5199998319149 659
10.5399998314679 654
10.5599998310208 625
10.5799998305738 649
10.5999998301268 772
10.6199998296797 725
10.6399998292327 668
10.6599998287857 750
10.6799998283386 789
10.6999998278916 807
10.7199998274446 827
10.7399998269975 916
10.7599998265505 884
10.7799998261034 993
10.7999998256564 1024
10.8199998252094 1057
10.8399998247623 1033
10.8599998243153 985
10.8799998238683 925
10.8999998234212 973
10.9199998229742 937
10.9399998225272 1019
10.9599998220801 1041
10.9799998216331 1056
10.9999998211861 1048
11.019999820739 973
11.039999820292 907
11.059999819845 803
11.0799998193979 687
11.0999998189509 681
11.1199998185039 646
11.1399998180568 637
11.1599998176098 659
11.1799998171628 609
11.1999998167157 651
11.2199998162687 650
11.2399998158216 660
11.2599998153746 620
11.2799998149276 656
11.2999998144805 645
11.3199998140335 617
11.3399998135865 654
11.3599998131394 644
11.3799998126924 659
11.3999998122454 669
11.4199998117983 682
11.4399998113513 677
11.4599998109043 686
11.4799998104572 709
11.4999998100102 677
11.5199998095632 745
11.5399998091161 760
11.5599998086691 728
11.5799998082221 697
11.599999807775 715
11.619999807328 709
11.639999806881 647
11.6599998064339 605
11.6799998059869 644
11.6999998055398 638
11.7199998050928 635
11.7399998046458 602
11.7599998041987 576
11.7799998037517 622
11.7999998033047 599
11.8199998028576 625
11.8399998024106 631
11.8599998019636 567
11.8799998015165 645
11.8999998010695 624
11.9199998006225 580
11.9399998001754 586
11.9599997997284 607
11.9799997992814 645
11.9999997988343 623
12.0199997983873 631
12.0399997979403 613
12.0599997974932 659
12.0799997970462 586
12.0999997965992 625
12.1199997961521 597
12.1399997957051 629
12.159999795258 653
12.179999794811 699
12.199999794364 681
12.2199997939169 692
12.2399997934699 615
12.2599997930229 697
12.2799997925758 661
12.2999997921288 666
12.3199997916818 648
12.3399997912347 629
12.3599997907877 650
12.3799997903407 689
12.3999997898936 664
12.4199997894466 665
12.4399997889996 633
12.4599997885525 638
12.4799997881055 570
12.4999997876585 640
12.5199997872114 601
12.5399997867644 617
12.5599997863173 657
12.5799997858703 610
12.5999997854233 594
12.6199997849762 611
12.6399997845292 592
12.6599997840822 626
12.6799997836351 642
12.6999997831881 617
12.7199997827411 610
12.739999782294 568
12.759999781847 589
12.7799997814 651
12.7999997809529 647
12.8199997805059 674
12.8399997800589 605
12.8599997796118 620
12.8799997791648 641
12.8999997787178 641
12.9199997782707 633
12.9399997778237 596
12.9599997773767 608
12.9799997769296 598
12.9999997764826 618
13.0199997760355 573
13.0399997755885 579
13.0599997751415 611
13.0799997746944 630
13.0999997742474 612
13.1199997738004 610
13.1399997733533 663
13.1599997729063 605
13.1799997724593 636
13.1999997720122 615
13.2199997715652 683
13.2399997711182 593
13.2599997706711 586
13.2799997702241 625
13.2999997697771 658
13.31999976933 656
13.339999768883 691
13.359999768436 692
13.3799997679889 671
13.3999997675419 649
13.4199997670949 682
13.4399997666478 648
13.4599997662008 646
13.4799997657537 674
13.4999997653067 665
13.5199997648597 683
13.5399997644126 703
13.5599997639656 661
13.5799997635186 688
13.5999997630715 665
13.6199997626245 642
13.6399997621775 648
13.6599997617304 694
13.6799997612834 654
13.6999997608364 626
13.7199997603893 666
13.7399997599423 659
13.7599997594953 685
13.7799997590482 704
13.7999997586012 618
13.8199997581542 672
13.8399997577071 660
13.8599997572601 623
13.879999756813 645
13.899999756366 633
13.919999755919 666
13.9399997554719 649
13.9599997550249 624
13.9799997545779 636
13.9999997541308 717
14.0199997536838 697
14.0399997532368 696
14.0599997527897 696
14.0799997523427 724
14.0999997518957 683
14.1199997514486 688
14.1399997510016 658
14.1599997505546 683
14.1799997501075 692
14.1999997496605 670
14.2199997492135 654
14.2399997487664 706
14.2599997483194 762
14.2799997478724 748
14.2999997474253 699
14.3199997469783 729
14.3399997465312 704
14.3599997460842 691
14.3799997456372 665
14.3999997451901 736
14.4199997447431 710
14.4399997442961 725
14.459999743849 748
14.479999743402 683
14.499999742955 698
14.5199997425079 691
14.5399997420609 702
14.5599997416139 688
14.5799997411668 714
14.5999997407198 743
14.6199997402728 719
14.6399997398257 724
14.6599997393787 699
14.6799997389317 765
14.6999997384846 717
14.7199997380376 722
14.7399997375906 788
14.7599997371435 722
14.7799997366965 725
14.7999997362494 722
14.8199997358024 790
14.8399997353554 755
14.8599997349083 739
14.8799997344613 701
14.8999997340143 708
14.9199997335672 720
14.9399997331202 675
14.9599997326732 732
14.9799997322261 724
14.9999997317791 740
15.0199997313321 745
15.039999730885 726
15.059999730438 773
15.079999729991 685
15.0999997295439 752
15.1199997290969 705
15.1399997286499 724
15.1599997282028 765
15.1799997277558 776
15.1999997273088 738
15.2199997268617 746
15.2399997264147 795
15.2599997259676 730
15.2799997255206 756
15.2999997250736 725
15.3199997246265 801
15.3399997241795 725
15.3599997237325 756
15.3799997232854 790
15.3999997228384 728
15.4199997223914 733
15.4399997219443 777
15.4599997214973 762
15.4799997210503 724
15.4999997206032 709
15.5199997201562 793
15.5399997197092 715
15.5599997192621 748
15.5799997188151 729
15.5999997183681 750
15.619999717921 742
15.639999717474 725
15.659999717027 757
15.6799997165799 744
15.6999997161329 798
15.7199997156858 783
15.7399997152388 757
15.7599997147918 730
15.7799997143447 733
15.7999997138977 745
15.8199997134507 791
15.8399997130036 776
15.8599997125566 755
15.8799997121096 779
15.8999997116625 769
15.9199997112155 794
15.9399997107685 791
15.9599997103214 801
15.9799997098744 814
15.9999997094274 826
16.0199997089803 841
16.0399997085333 772
16.0599997080863 795
16.0799997076392 772
16.0999997071922 782
16.1199997067451 839
16.1399997062981 821
16.1599997058511 833
16.179999705404 817
16.199999704957 837
16.21999970451 843
16.2399997040629 829
16.2599997036159 868
16.2799997031689 905
16.2999997027218 909
16.3199997022748 840
16.3399997018278 858
16.3599997013807 840
16.3799997009337 864
16.3999997004867 819
16.4199997000396 835
16.4399996995926 848
16.4599996991456 865
16.4799996986985 830
16.4999996982515 878
16.5199996978045 839
16.5399996973574 878
16.5599996969104 836
16.5799996964633 856
16.5999996960163 839
16.6199996955693 838
16.6399996951222 899
16.6599996946752 827
16.6799996942282 890
16.6999996937811 865
16.7199996933341 878
16.7399996928871 908
16.75999969244 907
16.779999691993 869
16.799999691546 913
16.8199996910989 936
16.8399996906519 916
16.8599996902049 910
16.8799996897578 906
16.8999996893108 923
16.9199996888638 967
16.9399996884167 1044
16.9599996879697 1010
16.9799996875226 1049
16.9999996870756 1134
17.0199996866286 1259
17.0399996861815 1152
17.0599996857345 1002
17.0799996852875 964
17.0999996848404 968
17.1199996843934 950
17.1399996839464 912
17.1599996834993 956
17.1799996830523 943
17.1999996826053 957
17.2199996821582 922
17.2399996817112 914
17.2599996812642 1002
17.2799996808171 939
17.2999996803701 991
17.3199996799231 963
17.339999679476 935
17.359999679029 951
17.379999678582 963
17.3999996781349 932
17.4199996776879 948
17.4399996772408 983
17.4599996767938 1024
17.4799996763468 956
17.4999996758997 939
17.5199996754527 957
17.5399996750057 943
17.5599996745586 952
17.5799996741116 1005
17.5999996736646 997
17.6199996732175 966
17.6399996727705 956
17.6599996723235 979
17.6799996718764 980
17.6999996714294 986
17.7199996709824 1025
17.7399996705353 1009
17.7599996700883 988
17.7799996696413 967
17.7999996691942 963
17.8199996687472 1013
17.8399996683002 1002
17.8599996678531 1012
17.8799996674061 1026
17.899999666959 994
17.919999666512 944
17.939999666065 1020
17.9599996656179 989
17.9799996651709 1014
17.9999996647239 999
18.0199996642768 1008
18.0399996638298 1028
18.0599996633828 988
18.0799996629357 1052
18.0999996624887 1062
18.1199996620417 1015
18.1399996615946 998
18.1599996611476 994
18.1799996607006 1029
18.1999996602535 1026
18.2199996598065 1086
18.2399996593595 994
18.2599996589124 1052
18.2799996584654 1006
18.2999996580184 1051
18.3199996575713 1035
18.3399996571243 1048
18.3599996566772 1087
18.3799996562302 996
18.3999996557832 1042
18.4199996553361 1106
18.4399996548891 988
18.4599996544421 1022
18.479999653995 1086
18.499999653548 1091
18.519999653101 1088
18.5399996526539 1086
18.5599996522069 1122
18.5799996517599 1065
18.5999996513128 1075
18.6199996508658 1093
18.6399996504188 1166
18.6599996499717 1168
18.6799996495247 1148
18.6999996490777 1161
18.7199996486306 1235
18.7399996481836 1198
18.7599996477366 1161
18.7799996472895 1191
18.7999996468425 1132
18.8199996463954 1164
18.8399996459484 1199
18.8599996455014 1151
18.8799996450543 1110
18.8999996446073 1197
18.9199996441603 1168
18.9399996437132 1121
18.9599996432662 1201
18.9799996428192 1200
18.9999996423721 1200
19.0199996419251 1224
19.0399996414781 1145
19.059999641031 1171
19.079999640584 1273
19.099999640137 1171
19.1199996396899 1306
19.1399996392429 1243
19.1599996387959 1259
19.1799996383488 1289
19.1999996379018 1231
19.2199996374547 1244
19.2399996370077 1257
19.2599996365607 1181
19.2799996361136 1246
19.2999996356666 1202
19.3199996352196 1225
19.3399996347725 1224
19.3599996343255 1272
19.3799996338785 1288
19.3999996334314 1229
19.4199996329844 1348
19.4399996325374 1414
19.4599996320903 1428
19.4799996316433 1448
19.4999996311963 1417
19.5199996307492 1424
19.5399996303022 1347
19.5599996298552 1428
19.5799996294081 1407
19.5999996289611 1382
19.6199996285141 1354
19.639999628067 1338
19.65999962762 1272
19.6799996271729 1273
19.6999996267259 1285
19.7199996262789 1281
19.7399996258318 1334
19.7599996253848 1213
19.7799996249378 1263
19.7999996244907 1294
19.8199996240437 1284
19.8399996235967 1286
19.8599996231496 1299
19.8799996227026 1292
19.8999996222556 1306
19.9199996218085 1368
19.9399996213615 1340
19.9599996209145 1342
19.9799996204674 1276
19.9999996200204 1324
