3 2483
3.01999999955297 2288
3.03999999910593 2211
3.0599999986589 1998
3.07999999821186 1952
3.09999999776483 1846
3.11999999731779 1802
3.13999999687076 1783
3.15999999642372 1711
3.17999999597669 1705
3.19999999552965 1749
3.21999999508262 1779
3.23999999463558 1700
3.25999999418855 1665
3.27999999374151 1733
3.29999999329448 1645
3.31999999284744 1601
3.33999999240041 1585
3.35999999195337 1590
3.37999999150634 1562
3.3999999910593 1525
3.41999999061227 1556
3.43999999016523 1577
3.4599999897182 1457
3.47999998927116 1497
3.49999998882413 1487
3.51999998837709 1475
3.53999998793006 1490
3.55999998748302 1496
3.57999998703599 1382
3.59999998658895 1412
3.61999998614192 1413
3.63999998569489 1398
3.65999998524785 1403
3.67999998480082 1426
3.69999998435378 1427
3.71999998390675 1332
3.73999998345971 1280
3.75999998301268 1347
3.77999998256564 1354
3.79999998211861 1295
3.81999998167157 1345
3.83999998122454 1305
3.8599999807775 1223
3.87999998033047 1291
3.89999997988343 1264
3.9199999794364 1266
3.93999997898936 1297
3.95999997854233 1284
3.97999997809529 1234
3.99999997764826 1181
4.01999997720122 1211
4.03999997675419 1292
4.05999997630715 1177
4.07999997586012 1188
4.09999997541308 1240
4.11999997496605 1207
4.13999997451901 1186
4.15999997407198 1162
4.17999997362494 1198
4.19999997317791 1168
4.21999997273087 1128
4.23999997228384 1152
4.25999997183681 1124
4.27999997138977 1163
4.29999997094274 1133
4.3199999704957 1100
4.33999997004867 1141
4.35999996960163 1067
4.3799999691546 1094
4.39999996870756 1174
4.41999996826053 1150
4.43999996781349 1070
4.45999996736646 1088
4.47999996691942 1033
4.49999996647239 1000
4.51999996602535 1005
4.53999996557832 1087
4.55999996513128 1017
4.57999996468425 1037
4.59999996423721 1020
4.61999996379018 1040
4.63999996334314 1050
4.65999996289611 945
4.67999996244907 1016
4.69999996200204 1015
4.719999961555 986
4.73999996110797 1006
4.75999996066093 936
4.7799999602139 1002
4.79999995976686 973
4.81999995931983 991
4.83999995887279 938
4.85999995842576 937
4.87999995797873 1011
4.89999995753169 942
4.91999995708466 884
4.93999995663762 900
4.95999995619059 948
4.97999995574355 966
4.99999995529652 908
5.01999995484948 972
5.03999995440245 879
5.05999995395541 849
5.07999995350838 909
5.09999995306134 943
5.11999995261431 886
5.13999995216727 908
5.15999995172024 865
5.1799999512732 889
5.19999995082617 891
5.21999995037913 869
5.2399999499321 920
5.25999994948506 875
5.27999994903803 855
5.29999994859099 884
5.31999994814396 783
5.33999994769692 812
5.35999994724989 877
5.37999994680285 870
5.39999994635582 876
5.41999994590878 847
5.43999994546175 827
5.45999994501471 854
5.47999994456768 831
5.49999994412065 841
5.51999994367361 798
5.53999994322658 859
5.55999994277954 827
5.57999994233251 815
5.59999994188547 807
5.61999994143844 815
5.6399999409914 776
5.65999994054437 726
5.67999994009733 771
5.6999999396503 763
5.71999993920326 803
5.73999993875623 794
5.75999993830919 806
5.77999993786216 801
5.79999993741512 747
5.81999993696809 824
5.83999993652105 741
5.85999993607402 773
5.87999993562698 768
5.89999993517995 778
5.91999993473291 739
5.93999993428588 743
5.95999993383884 748
5.97999993339181 727
5.99999993294477 733
6.01999993249774 696
6.0399999320507 759
6.05999993160367 742
6.07999993115663 719
6.0999999307096 717
6.11999993026257 724
6.13999992981553 745
6.1599999293685 730
6.17999992892146 641
6.19999992847443 705
6.21999992802739 671
6.23999992758036 740
6.25999992713332 712
6.27999992668629 711
6.29999992623925 691
6.31999992579222 715
6.33999992534518 681
6.35999992489815 708
6.37999992445111 709
6.39999992400408 697
6.41999992355704 708
6.43999992311001 671
6.45999992266297 648
6.47999992221594 710
6.4999999217689 677
6.51999992132187 653
6.53999992087483 695
6.5599999204278 685
6.57999991998076 672
6.59999991953373 666
6.61999991908669 648
6.63999991863966 676
6.65999991819262 664
6.67999991774559 657
6.69999991729855 664
6.71999991685152 655
6.73999991640449 682
6.75999991595745 612
6.77999991551042 725
6.79999991506338 641
6.81999991461635 644
6.83999991416931 621
6.85999991372228 681
6.87999991327524 673
6.89999991282821 632
6.91999991238117 674
6.93999991193414 649
6.9599999114871 640
6.97999991104007 623
6.99999991059303 620
7.019999910146 697
7.03999990969896 627
7.05999990925193 617
7.07999990880489 649
7.09999990835786 661
7.11999990791082 678
7.13999990746379 656
7.15999990701675 656
7.17999990656972 655
7.19999990612268 663
7.21999990567565 645
7.23999990522861 650
7.25999990478158 653
7.27999990433454 635
7.29999990388751 610
7.31999990344047 621
7.33999990299344 659
7.35999990254641 631
7.37999990209937 647
7.39999990165234 640
7.4199999012053 571
7.43999990075827 672
7.45999990031123 645
7.4799998998642 582
7.49999989941716 639
7.51999989897013 627
7.53999989852309 629
7.55999989807606 600
7.57999989762902 622
7.59999989718199 646
7.61999989673495 630
7.63999989628792 598
7.65999989584088 614
7.67999989539385 571
7.69999989494681 612
7.71999989449978 613
7.73999989405274 592
7.75999989360571 575
7.77999989315867 593
7.79999989271164 625
7.8199998922646 627
7.83999989181757 584
7.85999989137053 645
7.8799998909235 587
7.89999989047646 618
7.91999989002943 647
7.9399998895824 587
7.95999988913536 631
7.97999988868833 591
7.99999988824129 612
8.01999988779426 627
8.03999988734722 584
8.05999988690019 640
8.07999988645315 584
8.09999988600612 584
8.11999988555908 595
8.13999988511205 609
8.15999988466501 614
8.17999988421798 643
8.19999988377094 651
8.21999988332391 638
8.23999988287687 614
8.25999988242984 583
8.2799998819828 582
8.29999988153577 562
8.31999988108873 599
8.3399998806417 595
8.35999988019466 606
8.37999987974763 569
8.39999987930059 615
8.41999987885356 584
8.43999987840652 628
8.45999987795949 595
8.47999987751245 574
8.49999987706542 580
8.51999987661839 584
8.53999987617135 605
8.55999987572432 587
8.57999987527728 561
8.59999987483025 562
8.61999987438321 560
8.63999987393618 576
8.65999987348914 590
8.67999987304211 586
8.69999987259507 595
8.71999987214804 577
8.739999871701 626
8.75999987125397 555
8.77999987080693 600
8.7999998703599 572
8.81999986991286 589
8.83999986946583 574
8.85999986901879 558
8.87999986857176 615
8.89999986812472 592
8.91999986767769 577
8.93999986723065 603
8.95999986678362 606
8.97999986633658 597
8.99999986588955 595
9.01999986544251 566
9.03999986499548 555
9.05999986454844 556
9.07999986410141 566
9.09999986365438 596
9.11999986320734 568
9.13999986276031 567
9.15999986231327 559
9.17999986186624 574
9.1999998614192 583
9.21999986097217 580
9.23999986052513 549
9.2599998600781 550
9.27999985963106 556
9.29999985918403 569
9.31999985873699 577
9.33999985828996 602
9.35999985784292 582
9.37999985739589 589
9.39999985694885 554
9.41999985650182 559
9.43999985605478 566
9.45999985560775 546
9.47999985516071 610
9.49999985471368 542
9.51999985426664 610
9.53999985381961 595
9.55999985337257 571
9.57999985292554 605
9.5999998524785 569
9.61999985203147 535
9.63999985158443 581
9.6599998511374 597
9.67999985069037 575
9.69999985024333 592
9.7199998497963 533
9.73999984934926 553
9.75999984890223 578
9.77999984845519 570
9.79999984800816 563
9.81999984756112 553
9.83999984711409 554
9.85999984666705 582
9.87999984622002 599
9.89999984577298 579
9.91999984532595 521
9.93999984487891 541
9.95999984443188 581
9.97999984398484 568
9.99999984353781 546
10.0199998430908 568
10.0399998426437 558
10.0599998421967 530
10.0799998417497 549
10.0999998413026 558
10.1199998408556 511
10.1399998404086 555
10.1599998399615 562
10.1799998395145 533
10.1999998390675 522
10.2199998386204 524
10.2399998381734 512
10.2599998377264 570
10.2799998372793 535
10.2999998368323 537
10.3199998363853 553
10.3399998359382 503
10.3599998354912 521
10.3799998350441 572
10.3999998345971 587
10.4199998341501 532
10.439999833703 526
10.459999833256 499
10.479999832809 553
10.4999998323619 533
10.5199998319149 571
10.5399998314679 559
10.5599998310208 498
10.5799998305738 554
10.5999998301268 573
10.6199998296797 573
10.6399998292327 561
10.6599998287857 494
10.6799998283386 538
10.6999998278916 511
10.7199998274446 545
10.7399998269975 493
10.7599998265505 534
10.7799998261034 527
10.7999998256564 515
10.8199998252094 504
10.8399998247623 487
10.8599998243153 535
10.8799998238683 574
10.8999998234212 571
10.9199998229742 555
10.9399998225272 549
10.9599998220801 520
10.9799998216331 545
10.9999998211861 502
11.019999820739 571
11.039999820292 546
11.059999819845 560
11.0799998193979 522
11.0999998189509 529
11.1199998185039 536
11.1399998180568 528
11.1599998176098 573
11.1799998171628 513
11.1999998167157 576
11.2199998162687 534
11.2399998158216 529
11.2599998153746 514
11.2799998149276 567
11.2999998144805 549
11.3199998140335 516
11.3399998135865 553
11.3599998131394 530
11.3799998126924 486
11.3999998122454 529
11.4199998117983 517
11.4399998113513 536
11.4599998109043 520
11.4799998104572 522
11.4999998100102 563
11.5199998095632 519
11.5399998091161 533
11.5599998086691 518
11.5799998082221 544
11.599999807775 537
11.619999807328 572
11.639999806881 532
11.6599998064339 524
11.6799998059869 552
11.6999998055398 487
11.7199998050928 535
11.7399998046458 525
11.7599998041987 507
11.7799998037517 551
11.7999998033047 507
11.8199998028576 546
11.8399998024106 512
11.8599998019636 498
11.8799998015165 539
11.8999998010695 512
11.9199998006225 516
11.9399998001754 544
11.9599997997284 522
11.9799997992814 525
11.9999997988343 504
12.0199997983873 540
12.0399997979403 505
12.0599997974932 541
12.0799997970462 557
12.0999997965992 546
12.1199997961521 531
12.1399997957051 529
12.159999795258 501
12.179999794811 559
12.199999794364 509
12.2199997939169 503
12.2399997934699 534
12.2599997930229 529
12.2799997925758 525
12.2999997921288 527
12.3199997916818 515
12.3399997912347 494
12.3599997907877 511
12.3799997903407 560
12.3999997898936 532
12.4199997894466 527
12.4399997889996 514
12.4599997885525 532
12.4799997881055 556
12.4999997876585 581
12.5199997872114 517
12.5399997867644 485
12.5599997863173 557
12.5799997858703 551
12.5999997854233 472
12.6199997849762 545
12.6399997845292 548
12.6599997840822 548
12.6799997836351 538
12.6999997831881 498
12.7199997827411 546
12.739999782294 517
12.759999781847 514
12.7799997814 479
12.7999997809529 559
12.8199997805059 549
12.8399997800589 551
12.8599997796118 539
12.8799997791648 525
12.8999997787178 539
12.9199997782707 540
12.9399997778237 536
12.9599997773767 525
12.9799997769296 524
12.9999997764826 541
13.0199997760355 563
13.0399997755885 585
13.0599997751415 539
13.0799997746944 557
13.0999997742474 541
13.1199997738004 524
13.1399997733533 573
13.1599997729063 553
13.1799997724593 536
13.1999997720122 574
13.2199997715652 566
13.2399997711182 553
13.2599997706711 541
13.2799997702241 536
13.2999997697771 550
13.31999976933 540
13.339999768883 579
13.359999768436 571
13.3799997679889 518
13.3999997675419 538
13.4199997670949 501
13.4399997666478 557
13.4599997662008 526
13.4799997657537 521
13.4999997653067 550
13.5199997648597 519
13.5399997644126 573
13.5599997639656 558
13.5799997635186 526
13.5999997630715 535
13.6199997626245 554
13.6399997621775 549
13.6599997617304 554
13.6799997612834 539
13.6999997608364 608
13.7199997603893 544
13.7399997599423 549
13.7599997594953 526
13.7799997590482 556
13.7999997586012 530
13.8199997581542 595
13.8399997577071 530
13.8599997572601 597
13.879999756813 579
13.899999756366 576
13.919999755919 567
13.9399997554719 551
13.9599997550249 554
13.9799997545779 551
13.9999997541308 567
14.0199997536838 560
14.0399997532368 554
14.0599997527897 575
14.0799997523427 563
14.0999997518957 535
14.1199997514486 541
14.1399997510016 583
14.1599997505546 577
14.1799997501075 607
14.1999997496605 573
14.2199997492135 608
14.2399997487664 582
14.2599997483194 582
14.2799997478724 613
14.2999997474253 612
14.3199997469783 595
14.3399997465312 604
14.3599997460842 556
14.3799997456372 523
14.3999997451901 549
14.4199997447431 543
14.4399997442961 616
14.459999743849 576
14.479999743402 568
14.499999742955 546
14.5199997425079 593
14.5399997420609 618
14.5599997416139 591
14.5799997411668 616
14.5999997407198 560
14.6199997402728 579
14.6399997398257 586
14.6599997393787 606
14.6799997389317 583
14.6999997384846 558
14.7199997380376 594
14.7399997375906 606
14.7599997371435 607
14.7799997366965 573
14.7999997362494 580
14.8199997358024 607
14.8399997353554 574
14.8599997349083 598
14.8799997344613 638
14.8999997340143 550
14.9199997335672 573
14.9399997331202 637
14.9599997326732 583
14.9799997322261 598
14.9999997317791 669
15.0199997313321 614
15.039999730885 611
15.059999730438 655
15.079999729991 602
15.0999997295439 646
15.1199997290969 651
15.1399997286499 653
15.1599997282028 621
15.1799997277558 616
15.1999997273088 644
15.2199997268617 635
15.2399997264147 601
15.2599997259676 627
15.2799997255206 622
15.2999997250736 616
15.3199997246265 633
15.3399997241795 640
15.3599997237325 580
15.3799997232854 631
15.3999997228384 617
15.4199997223914 625
15.4399997219443 600
15.4599997214973 669
15.4799997210503 673
15.4999997206032 653
15.5199997201562 658
15.5399997197092 619
15.5599997192621 626
15.5799997188151 659
15.5999997183681 652
15.619999717921 586
15.639999717474 594
15.659999717027 673
15.6799997165799 637
15.6999997161329 627
15.7199997156858 660
15.7399997152388 642
15.7599997147918 633
15.7799997143447 670
15.7999997138977 687
15.8199997134507 647
15.8399997130036 636
15.8599997125566 623
15.8799997121096 647
15.8999997116625 638
15.9199997112155 656
15.9399997107685 667
15.9599997103214 653
15.9799997098744 653
15.9999997094274 685
16.0199997089803 642
16.0399997085333 689
16.0599997080863 633
16.0799997076392 674
16.0999997071922 676
16.1199997067451 679
16.1399997062981 632
16.1599997058511 696
16.179999705404 665
16.199999704957 682
16.21999970451 631
16.2399997040629 622
16.2599997036159 651
16.2799997031689 697
16.2999997027218 653
16.3199997022748 653
16.3399997018278 670
16.3599997013807 715
16.3799997009337 694
16.3999997004867 650
16.4199997000396 615
16.4399996995926 685
16.4599996991456 700
16.4799996986985 718
16.4999996982515 685
16.5199996978045 688
16.5399996973574 685
16.5599996969104 718
16.5799996964633 731
16.5999996960163 705
16.6199996955693 716
16.6399996951222 733
16.6599996946752 743
16.6799996942282 738
16.6999996937811 827
16.7199996933341 790
16.7399996928871 858
16.75999969244 815
16.779999691993 821
16.799999691546 892
16.8199996910989 972
16.8399996906519 986
16.8599996902049 1039
16.8799996897578 1129
16.8999996893108 1305
16.9199996888638 1399
16.9399996884167 1475
16.9599996879697 1614
16.9799996875226 1693
16.9999996870756 1576
17.0199996866286 1461
17.0399996861815 1181
17.0599996857345 1008
17.0799996852875 915
17.0999996848404 896
17.1199996843934 813
17.1399996839464 778
17.1599996834993 742
17.1799996830523 750
17.1999996826053 792
17.2199996821582 789
17.2399996817112 809
17.2599996812642 746
17.2799996808171 766
17.2999996803701 762
17.3199996799231 755
17.339999679476 768
17.359999679029 763
17.379999678582 795
17.3999996781349 795
17.4199996776879 777
17.4399996772408 779
17.4599996767938 748
17.4799996763468 771
17.4999996758997 771
17.5199996754527 748
17.5399996750057 784
17.5599996745586 762
17.5799996741116 761
17.5999996736646 806
17.6199996732175 830
17.6399996727705 796
17.6599996723235 820
17.6799996718764 716
17.6999996714294 767
17.7199996709824 788
17.7399996705353 804
17.7599996700883 772
17.7799996696413 826
17.7999996691942 770
17.8199996687472 824
17.8399996683002 766
17.8599996678531 824
17.8799996674061 785
17.899999666959 762
17.919999666512 835
17.939999666065 805
17.9599996656179 805
17.9799996651709 817
17.9999996647239 822
18.0199996642768 802
18.0399996638298 838
18.0599996633828 840
18.0799996629357 835
18.0999996624887 847
18.1199996620417 791
18.1399996615946 881
18.1599996611476 840
18.1799996607006 817
18.1999996602535 815
18.2199996598065 874
18.2399996593595 845
18.2599996589124 850
18.2799996584654 852
18.2999996580184 867
18.3199996575713 856
18.3399996571243 881
18.3599996566772 864
18.3799996562302 893
18.3999996557832 814
18.4199996553361 851
18.4399996548891 841
18.4599996544421 843
18.479999653995 875
18.499999653548 833
18.519999653101 845
18.5399996526539 875
18.5599996522069 839
18.5799996517599 902
18.5999996513128 901
18.6199996508658 874
18.6399996504188 904
18.6599996499717 884
18.6799996495247 838
18.6999996490777 862
18.7199996486306 891
18.7399996481836 866
18.7599996477366 923
18.7799996472895 899
18.7999996468425 865
18.8199996463954 882
18.8399996459484 898
18.8599996455014 892
18.8799996450543 904
18.8999996446073 939
18.9199996441603 909
18.9399996437132 866
18.9599996432662 871
18.9799996428192 905
18.9999996423721 925
19.0199996419251 885
19.0399996414781 895
19.059999641031 935
19.079999640584 897
19.099999640137 924
19.1199996396899 946
19.1399996392429 931
19.1599996387959 901
19.1799996383488 920
19.1999996379018 910
19.2199996374547 923
19.2399996370077 949
19.2599996365607 970
19.2799996361136 966
19.2999996356666 928
19.3199996352196 927
19.3399996347725 1023
19.3599996343255 956
19.3799996338785 940
19.3999996334314 935
19.4199996329844 985
19.4399996325374 919
19.4599996320903 972
19.4799996316433 918
19.4999996311963 916
19.5199996307492 953
19.5399996303022 979
19.5599996298552 961
19.5799996294081 1004
19.5999996289611 1043
19.6199996285141 953
19.639999628067 1009
19.65999962762 990
19.6799996271729 983
19.6999996267259 975
19.7199996262789 1008
19.7399996258318 935
19.7599996253848 999
19.7799996249378 929
19.7999996244907 972
19.8199996240437 982
19.8399996235967 983
19.8599996231496 1004
19.8799996227026 1017
19.8999996222556 1020
19.9199996218085 1023
19.9399996213615 964
19.9599996209145 1045
19.9799996204674 979
19.9999996200204 1021
