3 3411
3.01999999955297 3253
3.03999999910593 3186
3.0599999986589 2992
3.07999999821186 2943
3.09999999776483 2785
3.11999999731779 2720
3.13999999687076 2770
3.15999999642372 2668
3.17999999597669 2608
3.19999999552965 2617
3.21999999508262 2567
3.23999999463558 2575
3.25999999418855 2606
3.27999999374151 2518
3.29999999329448 2587
3.31999999284744 2532
3.33999999240041 2498
3.35999999195337 2457
3.37999999150634 2483
3.3999999910593 2497
3.41999999061227 2371
3.43999999016523 2425
3.4599999897182 2415
3.47999998927116 2304
3.49999998882413 2381
3.51999998837709 2425
3.53999998793006 2312
3.55999998748302 2308
3.57999998703599 2387
3.59999998658895 2347
3.61999998614192 2397
3.63999998569489 2272
3.65999998524785 2317
3.67999998480082 2326
3.69999998435378 2264
3.71999998390675 2268
3.73999998345971 2344
3.75999998301268 2241
3.77999998256564 2285
3.79999998211861 2254
3.81999998167157 2223
3.83999998122454 2257
3.8599999807775 2245
3.87999998033047 2244
3.89999997988343 2214
3.9199999794364 2159
3.93999997898936 2205
3.95999997854233 2163
3.97999997809529 2109
3.99999997764826 2126
4.01999997720122 2124
4.03999997675419 2167
4.05999997630715 2137
4.07999997586012 2227
4.09999997541308 2074
4.11999997496605 2167
4.13999997451901 2070
4.15999997407198 2103
4.17999997362494 2081
4.19999997317791 2206
4.21999997273087 2048
4.23999997228384 2074
4.25999997183681 2133
4.27999997138977 2093
4.29999997094274 2034
4.3199999704957 2143
4.33999997004867 2050
4.35999996960163 2066
4.3799999691546 2107
4.39999996870756 1983
4.41999996826053 1981
4.43999996781349 2052
4.45999996736646 2021
4.47999996691942 2068
4.49999996647239 2040
4.51999996602535 2006
4.53999996557832 1926
4.55999996513128 1959
4.57999996468425 2029
4.59999996423721 1978
4.61999996379018 2018
4.63999996334314 1949
4.65999996289611 2048
4.67999996244907 2015
4.69999996200204 1973
4.719999961555 1913
4.73999996110797 1963
4.75999996066093 1923
4.7799999602139 1989
4.79999995976686 1966
4.81999995931983 1923
4.83999995887279 1901
4.85999995842576 2000
4.87999995797873 1955
4.89999995753169 1858
4.91999995708466 1905
4.93999995663762 1848
4.95999995619059 1907
4.97999995574355 1943
4.99999995529652 1962
5.01999995484948 1913
5.03999995440245 1962
5.05999995395541 1984
5.07999995350838 1873
5.09999995306134 1866
5.11999995261431 1864
5.13999995216727 1906
5.15999995172024 1791
5.1799999512732 1780
5.19999995082617 1843
5.21999995037913 1767
5.2399999499321 1771
5.25999994948506 1687
5.27999994903803 1767
5.29999994859099 1658
5.31999994814396 1665
5.33999994769692 1650
5.35999994724989 1576
5.37999994680285 1581
5.39999994635582 1518
5.41999994590878 1537
5.43999994546175 1511
5.45999994501471 1494
5.47999994456768 1566
5.49999994412065 1506
5.51999994367361 1467
5.53999994322658 1457
5.55999994277954 1434
5.57999994233251 1407
5.59999994188547 1386
5.61999994143844 1442
5.6399999409914 1414
5.65999994054437 1368
5.67999994009733 1401
5.6999999396503 1407
5.71999993920326 1355
5.73999993875623 1323
5.75999993830919 1287
5.77999993786216 1279
5.79999993741512 1264
5.81999993696809 1269
5.83999993652105 1316
5.85999993607402 1238
5.87999993562698 1271
5.89999993517995 1210
5.91999993473291 1314
5.93999993428588 1223
5.95999993383884 1165
5.97999993339181 1216
5.99999993294477 1199
6.01999993249774 1132
6.0399999320507 1163
6.05999993160367 1162
6.07999993115663 1127
6.0999999307096 1118
6.11999993026257 1116
6.13999992981553 1096
6.1599999293685 1077
6.17999992892146 1056
6.19999992847443 1129
6.21999992802739 1014
6.23999992758036 1084
6.25999992713332 1055
6.27999992668629 1077
6.29999992623925 1007
6.31999992579222 1060
6.33999992534518 994
6.35999992489815 1024
6.37999992445111 957
6.39999992400408 985
6.41999992355704 941
6.43999992311001 988
6.45999992266297 943
6.47999992221594 982
6.4999999217689 955
6.51999992132187 979
6.53999992087483 976
6.5599999204278 989
6.57999991998076 980
6.59999991953373 945
6.61999991908669 932
6.63999991863966 956
6.65999991819262 926
6.67999991774559 950
6.69999991729855 928
6.71999991685152 950
6.73999991640449 899
6.75999991595745 922
6.77999991551042 931
6.79999991506338 889
6.81999991461635 898
6.83999991416931 890
6.85999991372228 919
6.87999991327524 905
6.89999991282821 891
6.91999991238117 894
6.93999991193414 844
6.9599999114871 866
6.97999991104007 876
6.99999991059303 898
7.019999910146 879
7.03999990969896 903
7.05999990925193 892
7.07999990880489 838
7.09999990835786 864
7.11999990791082 862
7.13999990746379 886
7.15999990701675 842
7.17999990656972 886
7.19999990612268 877
7.21999990567565 858
7.23999990522861 866
7.25999990478158 866
7.27999990433454 816
7.29999990388751 809
7.31999990344047 836
7.33999990299344 827
7.35999990254641 808
7.37999990209937 760
7.39999990165234 811
7.4199999012053 878
7.43999990075827 789
7.45999990031123 798
7.4799998998642 787
7.49999989941716 813
7.51999989897013 791
7.53999989852309 841
7.55999989807606 829
7.57999989762902 815
7.59999989718199 827
7.61999989673495 820
7.63999989628792 781
7.65999989584088 854
7.67999989539385 801
7.69999989494681 776
7.71999989449978 794
7.73999989405274 789
7.75999989360571 806
7.77999989315867 735
7.79999989271164 793
7.8199998922646 769
7.83999989181757 800
7.85999989137053 792
7.8799998909235 754
7.89999989047646 767
7.91999989002943 735
7.9399998895824 788
7.95999988913536 742
7.97999988868833 750
7.99999988824129 798
8.01999988779426 784
8.03999988734722 741
8.05999988690019 779
8.07999988645315 763
8.09999988600612 753
8.11999988555908 758
8.13999988511205 779
8.15999988466501 761
8.17999988421798 697
8.19999988377094 732
8.21999988332391 776
8.23999988287687 745
8.25999988242984 740
8.2799998819828 739
8.29999988153577 773
8.31999988108873 741
8.3399998806417 758
8.35999988019466 738
8.37999987974763 699
8.39999987930059 709
8.41999987885356 731
8.43999987840652 733
8.45999987795949 725
8.47999987751245 719
8.49999987706542 719
8.51999987661839 730
8.53999987617135 714
8.55999987572432 685
8.57999987527728 738
8.59999987483025 743
8.61999987438321 734
8.63999987393618 703
8.65999987348914 719
8.67999987304211 700
8.69999987259507 746
8.71999987214804 810
8.739999871701 699
8.75999987125397 738
8.77999987080693 689
8.7999998703599 665
8.81999986991286 690
8.83999986946583 721
8.85999986901879 713
8.87999986857176 732
8.89999986812472 691
8.91999986767769 709
8.93999986723065 709
8.95999986678362 650
8.97999986633658 678
8.99999986588955 724
9.01999986544251 732
9.03999986499548 694
9.05999986454844 729
9.07999986410141 674
9.09999986365438 689
9.11999986320734 748
9.13999986276031 702
9.15999986231327 695
9.17999986186624 735
9.1999998614192 700
9.21999986097217 690
9.23999986052513 678
9.2599998600781 689
9.27999985963106 739
9.29999985918403 710
9.31999985873699 711
9.33999985828996 692
9.35999985784292 728
9.37999985739589 740
9.39999985694885 682
9.41999985650182 690
9.43999985605478 722
9.45999985560775 761
9.47999985516071 733
9.49999985471368 694
9.51999985426664 689
9.53999985381961 723
9.55999985337257 700
9.57999985292554 698
9.5999998524785 711
9.61999985203147 681
9.63999985158443 710
9.6599998511374 705
9.67999985069037 716
9.69999985024333 737
9.7199998497963 736
9.73999984934926 727
9.75999984890223 753
9.77999984845519 730
9.79999984800816 762
9.81999984756112 762
9.83999984711409 689
9.85999984666705 743
9.87999984622002 701
9.89999984577298 711
9.91999984532595 677
9.93999984487891 705
9.95999984443188 694
9.97999984398484 680
9.99999984353781 686
10.0199998430908 703
10.0399998426437 722
10.0599998421967 660
10.0799998417497 684
10.0999998413026 730
10.1199998408556 705
10.1399998404086 679
10.1599998399615 709
10.1799998395145 687
10.1999998390675 660
10.2199998386204 683
10.2399998381734 688
10.2599998377264 648
10.2799998372793 660
10.2999998368323 624
10.3199998363853 657
10.3399998359382 613
10.3599998354912 696
10.3799998350441 641
10.3999998345971 649
10.4199998341501 614
10.439999833703 627
10.459999833256 661
10.479999832809 627
10.4999998323619 642
10.5199998319149 675
10.5399998314679 671
10.5599998310208 608
10.5799998305738 653
10.5999998301268 669
10.6199998296797 626
10.6399998292327 661
10.6599998287857 631
10.6799998283386 619
10.6999998278916 632
10.7199998274446 649
10.7399998269975 613
10.7599998265505 637
10.7799998261034 663
10.7999998256564 644
10.8199998252094 602
10.8399998247623 623
10.8599998243153 670
10.8799998238683 648
10.8999998234212 617
10.9199998229742 603
10.9399998225272 652
10.9599998220801 649
10.9799998216331 636
10.9999998211861 643
11.019999820739 599
11.039999820292 650
11.059999819845 609
11.0799998193979 632
11.0999998189509 639
11.1199998185039 606
11.1399998180568 637
11.1599998176098 669
11.1799998171628 597
11.1999998167157 627
11.2199998162687 615
11.2399998158216 679
11.2599998153746 667
11.2799998149276 618
11.2999998144805 656
11.3199998140335 604
11.3399998135865 610
11.3599998131394 645
11.3799998126924 617
11.3999998122454 617
11.4199998117983 627
11.4399998113513 610
11.4599998109043 639
11.4799998104572 604
11.4999998100102 636
11.5199998095632 613
11.5399998091161 611
11.5599998086691 624
11.5799998082221 613
11.599999807775 606
11.619999807328 672
11.639999806881 623
11.6599998064339 620
11.6799998059869 615
11.6999998055398 614
11.7199998050928 661
11.7399998046458 650
11.7599998041987 577
11.7799998037517 611
11.7999998033047 640
11.8199998028576 667
11.8399998024106 626
11.8599998019636 598
11.8799998015165 637
11.8999998010695 609
11.9199998006225 625
11.9399998001754 632
11.9599997997284 646
11.9799997992814 586
11.9999997988343 604
12.0199997983873 609
12.0399997979403 637
12.0599997974932 647
12.0799997970462 632
12.0999997965992 606
12.1199997961521 619
12.1399997957051 592
12.159999795258 610
12.179999794811 639
12.199999794364 626
12.2199997939169 606
12.2399997934699 628
12.2599997930229 627
12.2799997925758 667
12.2999997921288 601
12.3199997916818 634
12.3399997912347 625
12.3599997907877 626
12.3799997903407 600
12.3999997898936 591
12.4199997894466 612
12.4399997889996 618
12.4599997885525 620
12.4799997881055 621
12.4999997876585 646
12.5199997872114 587
12.5399997867644 604
12.5599997863173 628
12.5799997858703 598
12.5999997854233 624
12.6199997849762 626
12.6399997845292 600
12.6599997840822 644
12.6799997836351 633
12.6999997831881 646
12.7199997827411 634
12.739999782294 573
12.759999781847 630
12.7799997814 638
12.7999997809529 620
12.8199997805059 611
12.8399997800589 639
12.8599997796118 641
12.8799997791648 672
12.8999997787178 619
12.9199997782707 611
12.9399997778237 614
12.9599997773767 602
12.9799997769296 623
12.9999997764826 649
13.0199997760355 626
13.0399997755885 641
13.0599997751415 645
13.0799997746944 610
13.0999997742474 633
13.1199997738004 588
13.1399997733533 617
13.1599997729063 629
13.1799997724593 666
13.1999997720122 661
13.2199997715652 619
13.2399997711182 655
13.2599997706711 690
13.2799997702241 624
13.2999997697771 659
13.31999976933 664
13.339999768883 632
13.359999768436 572
13.3799997679889 619
13.3999997675419 608
13.4199997670949 595
13.4399997666478 679
13.4599997662008 673
13.4799997657537 633
13.4999997653067 642
13.5199997648597 627
13.5399997644126 621
13.5599997639656 622
13.5799997635186 663
13.5999997630715 573
13.6199997626245 629
13.6399997621775 636
13.6599997617304 708
13.6799997612834 625
13.6999997608364 645
13.7199997603893 635
13.7399997599423 640
13.7599997594953 635
13.7799997590482 619
13.7999997586012 666
13.8199997581542 668
13.8399997577071 632
13.8599997572601 645
13.879999756813 652
13.899999756366 608
13.919999755919 648
13.9399997554719 629
13.9599997550249 651
13.9799997545779 620
13.9999997541308 625
14.0199997536838 674
14.0399997532368 691
14.0599997527897 691
14.0799997523427 645
14.0999997518957 659
14.1199997514486 684
14.1399997510016 643
14.1599997505546 650
14.1799997501075 652
14.1999997496605 663
14.2199997492135 658
14.2399997487664 652
14.2599997483194 673
14.2799997478724 650
14.2999997474253 666
14.3199997469783 682
14.3399997465312 654
14.3599997460842 669
14.3799997456372 699
14.3999997451901 628
14.4199997447431 654
14.4399997442961 656
14.459999743849 632
14.479999743402 667
14.499999742955 697
14.5199997425079 641
14.5399997420609 698
14.5599997416139 674
14.5799997411668 702
14.5999997407198 654
14.6199997402728 637
14.6399997398257 674
14.6599997393787 697
14.6799997389317 653
14.6999997384846 692
14.7199997380376 618
14.7399997375906 677
14.7599997371435 724
14.7799997366965 706
14.7999997362494 721
14.8199997358024 711
14.8399997353554 673
14.8599997349083 719
14.8799997344613 662
14.8999997340143 673
14.9199997335672 689
14.9399997331202 702
14.9599997326732 700
14.9799997322261 691
14.9999997317791 679
15.0199997313321 667
15.039999730885 686
15.059999730438 731
15.079999729991 668
15.0999997295439 694
15.1199997290969 684
15.1399997286499 708
15.1599997282028 709
15.1799997277558 708
15.1999997273088 679
15.2199997268617 721
15.2399997264147 718
15.2599997259676 676
15.2799997255206 691
15.2999997250736 709
15.3199997246265 739
15.3399997241795 762
15.3599997237325 786
15.3799997232854 736
15.3999997228384 739
15.4199997223914 722
15.4399997219443 757
15.4599997214973 731
15.4799997210503 721
15.4999997206032 739
15.5199997201562 745
15.5399997197092 686
15.5599997192621 662
15.5799997188151 732
15.5999997183681 673
15.619999717921 693
15.639999717474 660
15.659999717027 766
15.6799997165799 674
15.6999997161329 705
15.7199997156858 770
15.7399997152388 760
15.7599997147918 696
15.7799997143447 758
15.7999997138977 766
15.8199997134507 736
15.8399997130036 739
15.8599997125566 751
15.8799997121096 716
15.8999997116625 722
15.9199997112155 750
15.9399997107685 734
15.9599997103214 820
15.9799997098744 776
15.9999997094274 733
16.0199997089803 716
16.0399997085333 730
16.0599997080863 788
16.0799997076392 741
16.0999997071922 684
16.1199997067451 734
16.1399997062981 766
16.1599997058511 788
16.179999705404 769
16.199999704957 740
16.21999970451 734
16.2399997040629 748
16.2599997036159 782
16.2799997031689 789
16.2999997027218 801
16.3199997022748 781
16.3399997018278 789
16.3599997013807 799
16.3799997009337 813
16.3999997004867 796
16.4199997000396 866
16.4399996995926 838
16.4599996991456 830
16.4799996986985 858
16.4999996982515 800
16.5199996978045 884
16.5399996973574 836
16.5599996969104 854
16.5799996964633 871
16.5999996960163 878
16.6199996955693 944
16.6399996951222 854
16.6599996946752 874
16.6799996942282 966
16.6999996937811 943
16.7199996933341 955
16.7399996928871 1057
16.75999969244 1038
16.779999691993 1072
16.799999691546 1230
16.8199996910989 1400
16.8399996906519 1450
16.8599996902049 1512
16.8799996897578 1775
16.8999996893108 2094
16.9199996888638 2452
16.9399996884167 3199
16.9599996879697 4175
16.9799996875226 6118
16.9999996870756 8159
17.0199996866286 7670
17.0399996861815 5577
17.0599996857345 3974
17.0799996852875 2193
17.0999996848404 1312
17.1199996843934 1149
17.1399996839464 1128
17.1599996834993 1001
17.1799996830523 1014
17.1999996826053 955
17.2199996821582 951
17.2399996817112 913
17.2599996812642 890
17.2799996808171 865
17.2999996803701 985
17.3199996799231 940
17.339999679476 874
17.359999679029 886
17.379999678582 899
17.3999996781349 903
17.4199996776879 909
17.4399996772408 930
17.4599996767938 885
17.4799996763468 923
17.4999996758997 940
17.5199996754527 907
17.5399996750057 884
17.5599996745586 950
17.5799996741116 970
17.5999996736646 956
17.6199996732175 948
17.6399996727705 873
17.6599996723235 909
17.6799996718764 878
17.6999996714294 897
17.7199996709824 963
17.7399996705353 880
17.7599996700883 920
17.7799996696413 924
17.7999996691942 923
17.8199996687472 960
17.8399996683002 968
17.8599996678531 963
17.8799996674061 914
17.899999666959 979
17.919999666512 921
17.939999666065 891
17.9599996656179 928
17.9799996651709 950
17.9999996647239 942
18.0199996642768 941
18.0399996638298 943
18.0599996633828 947
18.0799996629357 935
18.0999996624887 899
18.1199996620417 925
18.1399996615946 959
18.1599996611476 972
18.1799996607006 959
18.1999996602535 972
18.2199996598065 956
18.2399996593595 1001
18.2599996589124 1049
18.2799996584654 983
18.2999996580184 1029
18.3199996575713 969
18.3399996571243 960
18.3599996566772 955
18.3799996562302 959
18.3999996557832 981
18.4199996553361 1006
18.4399996548891 957
18.4599996544421 942
18.479999653995 930
18.499999653548 1007
18.519999653101 1037
18.5399996526539 970
18.5599996522069 987
18.5799996517599 978
18.5999996513128 1009
18.6199996508658 994
18.6399996504188 981
18.6599996499717 1044
18.6799996495247 968
18.6999996490777 1005
18.7199996486306 993
18.7399996481836 1000
18.7599996477366 993
18.7799996472895 1015
18.7999996468425 1039
18.8199996463954 1015
18.8399996459484 982
18.8599996455014 1034
18.8799996450543 1020
18.8999996446073 1012
18.9199996441603 1026
18.9399996437132 1028
18.9599996432662 1013
18.9799996428192 994
18.9999996423721 1012
19.0199996419251 1051
19.0399996414781 1000
19.059999641031 1026
19.079999640584 1030
19.099999640137 1000
19.1199996396899 1026
19.1399996392429 1040
19.1599996387959 1095
19.1799996383488 1077
19.1999996379018 1079
19.2199996374547 1130
19.2399996370077 1106
19.2599996365607 1089
19.2799996361136 1064
19.2999996356666 1096
19.3199996352196 1129
19.3399996347725 1038
19.3599996343255 1109
19.3799996338785 998
19.3999996334314 1108
19.4199996329844 1049
19.4399996325374 1077
19.4599996320903 1069
19.4799996316433 1042
19.4999996311963 1043
19.5199996307492 1118
19.5399996303022 1092
19.5599996298552 1074
19.5799996294081 1082
19.5999996289611 1108
19.6199996285141 1123
19.639999628067 1108
19.65999962762 1120
19.6799996271729 1102
19.6999996267259 1062
19.7199996262789 1113
19.7399996258318 1159
19.7599996253848 1039
19.7799996249378 1088
19.7999996244907 1063
19.8199996240437 1089
19.8399996235967 1157
19.8599996231496 1105
19.8799996227026 1132
19.8999996222556 1127
19.9199996218085 1153
19.9399996213615 1177
19.9599996209145 1109
19.9799996204674 1107
19.9999996200204 1137
