3 2640
3.01999999955297 2348
3.03999999910593 2298
3.0599999986589 2191
3.07999999821186 2055
3.09999999776483 2028
3.11999999731779 1853
3.13999999687076 1878
3.15999999642372 1789
3.17999999597669 1833
3.19999999552965 1811
3.21999999508262 1819
3.23999999463558 1730
3.25999999418855 1802
3.27999999374151 1754
3.29999999329448 1685
3.31999999284744 1683
3.33999999240041 1668
3.35999999195337 1705
3.37999999150634 1698
3.3999999910593 1645
3.41999999061227 1684
3.43999999016523 1516
3.4599999897182 1626
3.47999998927116 1633
3.49999998882413 1607
3.51999998837709 1542
3.53999998793006 1492
3.55999998748302 1449
3.57999998703599 1500
3.59999998658895 1475
3.61999998614192 1523
3.63999998569489 1405
3.65999998524785 1417
3.67999998480082 1442
3.69999998435378 1498
3.71999998390675 1416
3.73999998345971 1450
3.75999998301268 1429
3.77999998256564 1480
3.79999998211861 1449
3.81999998167157 1386
3.83999998122454 1392
3.8599999807775 1372
3.87999998033047 1354
3.89999997988343 1419
3.9199999794364 1359
3.93999997898936 1354
3.95999997854233 1372
3.97999997809529 1323
3.99999997764826 1254
4.01999997720122 1279
4.03999997675419 1234
4.05999997630715 1327
4.07999997586012 1276
4.09999997541308 1269
4.11999997496605 1224
4.13999997451901 1244
4.15999997407198 1208
4.17999997362494 1272
4.19999997317791 1236
4.21999997273087 1207
4.23999997228384 1155
4.25999997183681 1220
4.27999997138977 1180
4.29999997094274 1110
4.3199999704957 1123
4.33999997004867 1119
4.35999996960163 1116
4.3799999691546 1144
4.39999996870756 1157
4.41999996826053 1151
4.43999996781349 1129
4.45999996736646 1116
4.47999996691942 1091
4.49999996647239 1138
4.51999996602535 1104
4.53999996557832 1086
4.55999996513128 1054
4.57999996468425 1089
4.59999996423721 986
4.61999996379018 1082
4.63999996334314 1003
4.65999996289611 1085
4.67999996244907 1053
4.69999996200204 1052
4.719999961555 1046
4.73999996110797 1048
4.75999996066093 1032
4.7799999602139 1001
4.79999995976686 1036
4.81999995931983 1035
4.83999995887279 958
4.85999995842576 1011
4.87999995797873 998
4.89999995753169 962
4.91999995708466 952
4.93999995663762 965
4.95999995619059 935
4.97999995574355 894
4.99999995529652 947
5.01999995484948 950
5.03999995440245 980
5.05999995395541 918
5.07999995350838 926
5.09999995306134 938
5.11999995261431 940
5.13999995216727 929
5.15999995172024 875
5.1799999512732 885
5.19999995082617 914
5.21999995037913 907
5.2399999499321 875
5.25999994948506 940
5.27999994903803 917
5.29999994859099 869
5.31999994814396 943
5.33999994769692 908
5.35999994724989 888
5.37999994680285 895
5.39999994635582 856
5.41999994590878 903
5.43999994546175 870
5.45999994501471 920
5.47999994456768 857
5.49999994412065 853
5.51999994367361 871
5.53999994322658 843
5.55999994277954 760
5.57999994233251 861
5.59999994188547 845
5.61999994143844 842
5.6399999409914 850
5.65999994054437 835
5.67999994009733 875
5.6999999396503 840
5.71999993920326 819
5.73999993875623 844
5.75999993830919 852
5.77999993786216 849
5.79999993741512 806
5.81999993696809 834
5.83999993652105 827
5.85999993607402 777
5.87999993562698 775
5.89999993517995 797
5.91999993473291 804
5.93999993428588 783
5.95999993383884 798
5.97999993339181 833
5.99999993294477 790
6.01999993249774 772
6.0399999320507 822
6.05999993160367 785
6.07999993115663 780
6.0999999307096 697
6.11999993026257 726
6.13999992981553 706
6.1599999293685 762
6.17999992892146 755
6.19999992847443 710
6.21999992802739 794
6.23999992758036 759
6.25999992713332 762
6.27999992668629 742
6.29999992623925 766
6.31999992579222 737
6.33999992534518 763
6.35999992489815 774
6.37999992445111 725
6.39999992400408 784
6.41999992355704 725
6.43999992311001 733
6.45999992266297 734
6.47999992221594 794
6.4999999217689 747
6.51999992132187 703
6.53999992087483 796
6.5599999204278 720
6.57999991998076 747
6.59999991953373 753
6.61999991908669 717
6.63999991863966 696
6.65999991819262 755
6.67999991774559 749
6.69999991729855 730
6.71999991685152 723
6.73999991640449 723
6.75999991595745 719
6.77999991551042 671
6.79999991506338 753
6.81999991461635 751
6.83999991416931 731
6.85999991372228 725
6.87999991327524 695
6.89999991282821 720
6.91999991238117 720
6.93999991193414 687
6.9599999114871 716
6.97999991104007 682
6.99999991059303 768
7.019999910146 665
7.03999990969896 717
7.05999990925193 715
7.07999990880489 717
7.09999990835786 676
7.11999990791082 728
7.13999990746379 693
7.15999990701675 704
7.17999990656972 700
7.19999990612268 726
7.21999990567565 682
7.23999990522861 671
7.25999990478158 680
7.27999990433454 702
7.29999990388751 693
7.31999990344047 677
7.33999990299344 706
7.35999990254641 705
7.37999990209937 680
7.39999990165234 671
7.4199999012053 691
7.43999990075827 715
7.45999990031123 698
7.4799998998642 678
7.49999989941716 682
7.51999989897013 660
7.53999989852309 705
7.55999989807606 694
7.57999989762902 705
7.59999989718199 696
7.61999989673495 660
7.63999989628792 710
7.65999989584088 675
7.67999989539385 698
7.69999989494681 663
7.71999989449978 686
7.73999989405274 636
7.75999989360571 702
7.77999989315867 667
7.79999989271164 651
7.8199998922646 674
7.83999989181757 677
7.85999989137053 667
7.8799998909235 671
7.89999989047646 672
7.91999989002943 639
7.9399998895824 661
7.95999988913536 647
7.97999988868833 688
7.99999988824129 662
8.01999988779426 613
8.03999988734722 675
8.05999988690019 700
8.07999988645315 675
8.09999988600612 684
8.11999988555908 647
8.13999988511205 648
8.15999988466501 658
8.17999988421798 623
8.19999988377094 666
8.21999988332391 659
8.23999988287687 625
8.25999988242984 666
8.2799998819828 668
8.29999988153577 669
8.31999988108873 654
8.3399998806417 653
8.35999988019466 670
8.37999987974763 675
8.39999987930059 634
8.41999987885356 672
8.43999987840652 637
8.45999987795949 656
8.47999987751245 606
8.49999987706542 647
8.51999987661839 612
8.53999987617135 611
8.55999987572432 637
8.57999987527728 650
8.59999987483025 636
8.61999987438321 640
8.63999987393618 609
8.65999987348914 653
8.67999987304211 604
8.69999987259507 648
8.71999987214804 650
8.739999871701 620
8.75999987125397 622
8.77999987080693 616
8.7999998703599 635
8.81999986991286 646
8.83999986946583 609
8.85999986901879 639
8.87999986857176 607
8.89999986812472 644
8.91999986767769 621
8.93999986723065 625
8.95999986678362 634
8.97999986633658 653
8.99999986588955 590
9.01999986544251 619
9.03999986499548 643
9.05999986454844 629
9.07999986410141 625
9.09999986365438 664
9.11999986320734 633
9.13999986276031 659
9.15999986231327 649
9.17999986186624 602
9.1999998614192 599
9.21999986097217 655
9.23999986052513 626
9.2599998600781 636
9.27999985963106 635
9.29999985918403 621
9.31999985873699 606
9.33999985828996 629
9.35999985784292 631
9.37999985739589 616
9.39999985694885 634
9.41999985650182 591
9.43999985605478 626
9.45999985560775 590
9.47999985516071 665
9.49999985471368 576
9.51999985426664 625
9.53999985381961 626
9.55999985337257 605
9.57999985292554 570
9.5999998524785 585
9.61999985203147 578
9.63999985158443 577
9.6599998511374 567
9.67999985069037 604
9.69999985024333 584
9.7199998497963 618
9.73999984934926 626
9.75999984890223 608
9.77999984845519 619
9.79999984800816 563
9.81999984756112 585
9.83999984711409 590
9.85999984666705 596
9.87999984622002 636
9.89999984577298 621
9.91999984532595 572
9.93999984487891 572
9.95999984443188 583
9.97999984398484 585
9.99999984353781 610
10.0199998430908 618
10.0399998426437 619
10.0599998421967 642
10.0799998417497 518
10.0999998413026 591
10.1199998408556 641
10.1399998404086 598
10.1599998399615 590
10.1799998395145 549
10.1999998390675 589
10.2199998386204 578
10.2399998381734 572
10.2599998377264 592
10.2799998372793 542
10.2999998368323 568
10.3199998363853 596
10.3399998359382 584
10.3599998354912 615
10.3799998350441 569
10.3999998345971 573
10.4199998341501 599
10.439999833703 588
10.459999833256 598
10.479999832809 553
10.4999998323619 606
10.5199998319149 573
10.5399998314679 614
10.5599998310208 565
10.5799998305738 561
10.5999998301268 583
10.6199998296797 628
10.6399998292327 581
10.6599998287857 596
10.6799998283386 571
10.6999998278916 582
10.7199998274446 578
10.7399998269975 562
10.7599998265505 572
10.7799998261034 556
10.7999998256564 546
10.8199998252094 615
10.8399998247623 622
10.8599998243153 583
10.8799998238683 608
10.8999998234212 584
10.9199998229742 590
10.9399998225272 560
10.9599998220801 590
10.9799998216331 603
10.9999998211861 570
11.019999820739 586
11.039999820292 571
11.059999819845 577
11.0799998193979 552
11.0999998189509 581
11.1199998185039 566
11.1399998180568 592
11.1599998176098 536
11.1799998171628 600
11.1999998167157 593
11.2199998162687 567
11.2399998158216 578
11.2599998153746 580
11.2799998149276 599
11.2999998144805 595
11.3199998140335 565
11.3399998135865 563
11.3599998131394 569
11.3799998126924 574
11.3999998122454 585
11.4199998117983 597
11.4399998113513 584
11.4599998109043 567
11.4799998104572 592
11.4999998100102 574
11.5199998095632 534
11.5399998091161 626
11.5599998086691 571
11.5799998082221 537
11.599999807775 536
11.619999807328 532
11.639999806881 573
11.6599998064339 587
11.6799998059869 574
11.6999998055398 591
11.7199998050928 593
11.7399998046458 610
11.7599998041987 595
11.7799998037517 582
11.7999998033047 550
11.8199998028576 596
11.8399998024106 568
11.8599998019636 607
11.8799998015165 593
11.8999998010695 554
11.9199998006225 588
11.9399998001754 560
11.9599997997284 565
11.9799997992814 569
11.9999997988343 559
12.0199997983873 572
12.0399997979403 572
12.0599997974932 599
12.0799997970462 604
12.0999997965992 579
12.1199997961521 538
12.1399997957051 538
12.159999795258 547
12.179999794811 632
12.199999794364 609
12.2199997939169 621
12.2399997934699 587
12.2599997930229 593
12.2799997925758 593
12.2999997921288 559
12.3199997916818 585
12.3399997912347 619
12.3599997907877 560
12.3799997903407 547
12.3999997898936 599
12.4199997894466 594
12.4399997889996 583
12.4599997885525 601
12.4799997881055 581
12.4999997876585 617
12.5199997872114 574
12.5399997867644 625
12.5599997863173 566
12.5799997858703 569
12.5999997854233 578
12.6199997849762 604
12.6399997845292 578
12.6599997840822 588
12.6799997836351 610
12.6999997831881 596
12.7199997827411 609
12.739999782294 572
12.759999781847 593
12.7799997814 552
12.7999997809529 607
12.8199997805059 586
12.8399997800589 568
12.8599997796118 599
12.8799997791648 578
12.8999997787178 587
12.9199997782707 592
12.9399997778237 609
12.9599997773767 585
12.9799997769296 574
12.9999997764826 654
13.0199997760355 609
13.0399997755885 580
13.0599997751415 616
13.0799997746944 640
13.0999997742474 625
13.1199997738004 590
13.1399997733533 557
13.1599997729063 566
13.1799997724593 611
13.1999997720122 616
13.2199997715652 606
13.2399997711182 634
13.2599997706711 617
13.2799997702241 656
13.2999997697771 606
13.31999976933 610
13.339999768883 621
13.359999768436 564
13.3799997679889 608
13.3999997675419 610
13.4199997670949 588
13.4399997666478 591
13.4599997662008 638
13.4799997657537 611
13.4999997653067 622
13.5199997648597 617
13.5399997644126 609
13.5599997639656 644
13.5799997635186 596
13.5999997630715 627
13.6199997626245 578
13.6399997621775 636
13.6599997617304 662
13.6799997612834 609
13.6999997608364 673
13.7199997603893 643
13.7399997599423 596
13.7599997594953 630
13.7799997590482 605
13.7999997586012 654
13.8199997581542 609
13.8399997577071 607
13.8599997572601 630
13.879999756813 637
13.899999756366 600
13.919999755919 630
13.9399997554719 595
13.9599997550249 591
13.9799997545779 634
13.9999997541308 594
14.0199997536838 636
14.0399997532368 621
14.0599997527897 618
14.0799997523427 633
14.0999997518957 631
14.1199997514486 610
14.1399997510016 616
14.1599997505546 658
14.1799997501075 601
14.1999997496605 645
14.2199997492135 640
14.2399997487664 638
14.2599997483194 644
14.2799997478724 614
14.2999997474253 651
14.3199997469783 640
14.3399997465312 633
14.3599997460842 656
14.3799997456372 670
14.3999997451901 646
14.4199997447431 662
14.4399997442961 636
14.459999743849 620
14.479999743402 649
14.499999742955 662
14.5199997425079 616
14.5399997420609 676
14.5599997416139 636
14.5799997411668 625
14.5999997407198 628
14.6199997402728 644
14.6399997398257 680
14.6599997393787 635
14.6799997389317 646
14.6999997384846 656
14.7199997380376 645
14.7399997375906 657
14.7599997371435 692
14.7799997366965 643
14.7999997362494 676
14.8199997358024 665
14.8399997353554 637
14.8599997349083 732
14.8799997344613 667
14.8999997340143 676
14.9199997335672 675
14.9399997331202 653
14.9599997326732 641
14.9799997322261 691
14.9999997317791 678
15.0199997313321 665
15.039999730885 714
15.059999730438 688
15.079999729991 705
15.0999997295439 649
15.1199997290969 679
15.1399997286499 675
15.1599997282028 723
15.1799997277558 691
15.1999997273088 702
15.2199997268617 754
15.2399997264147 692
15.2599997259676 675
15.2799997255206 675
15.2999997250736 723
15.3199997246265 717
15.3399997241795 674
15.3599997237325 748
15.3799997232854 686
15.3999997228384 716
15.4199997223914 683
15.4399997219443 760
15.4599997214973 740
15.4799997210503 711
15.4999997206032 698
15.5199997201562 716
15.5399997197092 730
15.5599997192621 741
15.5799997188151 677
15.5999997183681 689
15.619999717921 726
15.639999717474 677
15.659999717027 675
15.6799997165799 748
15.6999997161329 742
15.7199997156858 764
15.7399997152388 743
15.7599997147918 692
15.7799997143447 746
15.7999997138977 752
15.8199997134507 724
15.8399997130036 760
15.8599997125566 701
15.8799997121096 759
15.8999997116625 745
15.9199997112155 779
15.9399997107685 739
15.9599997103214 728
15.9799997098744 751
15.9999997094274 730
16.0199997089803 734
16.0399997085333 733
16.0599997080863 745
16.0799997076392 740
16.0999997071922 732
16.1199997067451 784
16.1399997062981 757
16.1599997058511 760
16.179999705404 744
16.199999704957 753
16.21999970451 740
16.2399997040629 785
16.2599997036159 769
16.2799997031689 785
16.2999997027218 798
16.3199997022748 784
16.3399997018278 730
16.3599997013807 757
16.3799997009337 753
16.3999997004867 771
16.4199997000396 770
16.4399996995926 804
16.4599996991456 775
16.4799996986985 808
16.4999996982515 836
16.5199996978045 786
16.5399996973574 756
16.5599996969104 802
16.5799996964633 798
16.5999996960163 833
16.6199996955693 863
16.6399996951222 821
16.6599996946752 827
16.6799996942282 851
16.6999996937811 842
16.7199996933341 823
16.7399996928871 870
16.75999969244 880
16.779999691993 957
16.799999691546 916
16.8199996910989 1004
16.8399996906519 1016
16.8599996902049 1084
16.8799996897578 1174
16.8999996893108 1259
16.9199996888638 1392
16.9399996884167 1505
16.9599996879697 1707
16.9799996875226 1732
16.9999996870756 1773
17.0199996866286 1616
17.0399996861815 1403
17.0599996857345 1162
17.0799996852875 1016
17.0999996848404 1011
17.1199996843934 952
17.1399996839464 892
17.1599996834993 869
17.1799996830523 851
17.1999996826053 870
17.2199996821582 898
17.2399996817112 891
17.2599996812642 806
17.2799996808171 866
17.2999996803701 890
17.3199996799231 822
17.339999679476 868
17.359999679029 893
17.379999678582 857
17.3999996781349 866
17.4199996776879 921
17.4399996772408 898
17.4599996767938 911
17.4799996763468 865
17.4999996758997 922
17.5199996754527 898
17.5399996750057 901
17.5599996745586 912
17.5799996741116 912
17.5999996736646 879
17.6199996732175 916
17.6399996727705 958
17.6599996723235 886
17.6799996718764 866
17.6999996714294 950
17.7199996709824 910
17.7399996705353 895
17.7599996700883 886
17.7799996696413 903
17.7999996691942 916
17.8199996687472 954
17.8399996683002 913
17.8599996678531 906
17.8799996674061 875
17.899999666959 900
17.919999666512 926
17.939999666065 942
17.9599996656179 901
17.9799996651709 888
17.9999996647239 903
18.0199996642768 902
18.0399996638298 941
18.0599996633828 943
18.0799996629357 938
18.0999996624887 941
18.1199996620417 900
18.1399996615946 978
18.1599996611476 938
18.1799996607006 939
18.1999996602535 936
18.2199996598065 902
18.2399996593595 962
18.2599996589124 958
18.2799996584654 962
18.2999996580184 956
18.3199996575713 1019
18.3399996571243 952
18.3599996566772 951
18.3799996562302 968
18.3999996557832 1014
18.4199996553361 989
18.4399996548891 1030
18.4599996544421 933
18.479999653995 990
18.499999653548 1038
18.519999653101 974
18.5399996526539 982
18.5599996522069 1027
18.5799996517599 1004
18.5999996513128 984
18.6199996508658 972
18.6399996504188 1014
18.6599996499717 1022
18.6799996495247 996
18.6999996490777 1035
18.7199996486306 1074
18.7399996481836 1059
18.7599996477366 1007
18.7799996472895 977
18.7999996468425 996
18.8199996463954 1051
18.8399996459484 1023
18.8599996455014 1086
18.8799996450543 1060
18.8999996446073 1018
18.9199996441603 1041
18.9399996437132 1046
18.9599996432662 1083
18.9799996428192 1121
18.9999996423721 1071
19.0199996419251 1100
19.0399996414781 1048
19.059999641031 1042
19.079999640584 1054
19.099999640137 1053
19.1199996396899 1034
19.1399996392429 1087
19.1599996387959 1054
19.1799996383488 1087
19.1999996379018 1084
19.2199996374547 1042
19.2399996370077 1116
19.2599996365607 1081
19.2799996361136 1112
19.2999996356666 1116
19.3199996352196 1107
19.3399996347725 1126
19.3599996343255 1114
19.3799996338785 1054
19.3999996334314 1064
19.4199996329844 1135
19.4399996325374 1078
19.4599996320903 1129
19.4799996316433 1099
19.4999996311963 1119
19.5199996307492 1116
19.5399996303022 1138
19.5599996298552 1140
19.5799996294081 1126
19.5999996289611 1192
19.6199996285141 1144
19.639999628067 1107
19.65999962762 1165
19.6799996271729 1134
19.6999996267259 1189
19.7199996262789 1204
19.7399996258318 1185
19.7599996253848 1163
19.7799996249378 1142
19.7999996244907 1196
19.8199996240437 1149
19.8399996235967 1173
19.8599996231496 1157
19.8799996227026 1177
19.8999996222556 1094
19.9199996218085 1210
19.9399996213615 1189
19.9599996209145 1147
19.9799996204674 1194
19.9999996200204 1188
