3 3160
3.01999999955297 2994
3.03999999910593 2727
3.0599999986589 2594
3.07999999821186 2579
3.09999999776483 2496
3.11999999731779 2370
3.13999999687076 2268
3.15999999642372 2295
3.17999999597669 2268
3.19999999552965 2241
3.21999999508262 2213
3.23999999463558 2208
3.25999999418855 2123
3.27999999374151 2073
3.29999999329448 2113
3.31999999284744 2058
3.33999999240041 1988
3.35999999195337 2028
3.37999999150634 1974
3.3999999910593 1931
3.41999999061227 1927
3.43999999016523 1922
3.4599999897182 1910
3.47999998927116 1874
3.49999998882413 1909
3.51999998837709 1869
3.53999998793006 1811
3.55999998748302 1797
3.57999998703599 1786
3.59999998658895 1741
3.61999998614192 1733
3.63999998569489 1730
3.65999998524785 1734
3.67999998480082 1680
3.69999998435378 1646
3.71999998390675 1666
3.73999998345971 1697
3.75999998301268 1635
3.77999998256564 1649
3.79999998211861 1634
3.81999998167157 1636
3.83999998122454 1634
3.8599999807775 1539
3.87999998033047 1577
3.89999997988343 1603
3.9199999794364 1667
3.93999997898936 1533
3.95999997854233 1561
3.97999997809529 1516
3.99999997764826 1582
4.01999997720122 1524
4.03999997675419 1621
4.05999997630715 1545
4.07999997586012 1475
4.09999997541308 1466
4.11999997496605 1506
4.13999997451901 1496
4.15999997407198 1435
4.17999997362494 1495
4.19999997317791 1397
4.21999997273087 1433
4.23999997228384 1463
4.25999997183681 1481
4.27999997138977 1388
4.29999997094274 1402
4.3199999704957 1362
4.33999997004867 1340
4.35999996960163 1382
4.3799999691546 1318
4.39999996870756 1382
4.41999996826053 1331
4.43999996781349 1369
4.45999996736646 1344
4.47999996691942 1313
4.49999996647239 1296
4.51999996602535 1321
4.53999996557832 1389
4.55999996513128 1303
4.57999996468425 1291
4.59999996423721 1325
4.61999996379018 1312
4.63999996334314 1343
4.65999996289611 1290
4.67999996244907 1307
4.69999996200204 1238
4.719999961555 1184
4.73999996110797 1221
4.75999996066093 1301
4.7799999602139 1241
4.79999995976686 1277
4.81999995931983 1258
4.83999995887279 1258
4.85999995842576 1282
4.87999995797873 1289
4.89999995753169 1280
4.91999995708466 1250
4.93999995663762 1264
4.95999995619059 1275
4.97999995574355 1261
4.99999995529652 1281
5.01999995484948 1261
5.03999995440245 1283
5.05999995395541 1324
5.07999995350838 1290
5.09999995306134 1296
5.11999995261431 1274
5.13999995216727 1313
5.15999995172024 1404
5.1799999512732 1340
5.19999995082617 1429
5.21999995037913 1395
5.2399999499321 1386
5.25999994948506 1426
5.27999994903803 1500
5.29999994859099 1548
5.31999994814396 1654
5.33999994769692 1803
5.35999994724989 1862
5.37999994680285 2065
5.39999994635582 2108
5.41999994590878 1907
5.43999994546175 1628
5.45999994501471 1460
5.47999994456768 1498
5.49999994412065 1439
5.51999994367361 1407
5.53999994322658 1438
5.55999994277954 1382
5.57999994233251 1357
5.59999994188547 1396
5.61999994143844 1334
5.6399999409914 1436
5.65999994054437 1415
5.67999994009733 1472
5.6999999396503 1465
5.71999993920326 1544
5.73999993875623 1507
5.75999993830919 1394
5.77999993786216 1311
5.79999993741512 1194
5.81999993696809 1109
5.83999993652105 1068
5.85999993607402 973
5.87999993562698 989
5.89999993517995 952
5.91999993473291 953
5.93999993428588 948
5.95999993383884 925
5.97999993339181 976
5.99999993294477 902
6.01999993249774 860
6.0399999320507 856
6.05999993160367 856
6.07999993115663 892
6.0999999307096 872
6.11999993026257 857
6.13999992981553 842
6.1599999293685 866
6.17999992892146 813
6.19999992847443 843
6.21999992802739 840
6.23999992758036 783
6.25999992713332 827
6.27999992668629 861
6.29999992623925 765
6.31999992579222 774
6.33999992534518 799
6.35999992489815 782
6.37999992445111 810
6.39999992400408 760
6.41999992355704 754
6.43999992311001 766
6.45999992266297 749
6.47999992221594 781
6.4999999217689 773
6.51999992132187 722
6.53999992087483 795
6.5599999204278 784
6.57999991998076 737
6.59999991953373 748
6.61999991908669 790
6.63999991863966 825
6.65999991819262 754
6.67999991774559 810
6.69999991729855 764
6.71999991685152 775
6.73999991640449 754
6.75999991595745 818
6.77999991551042 720
6.79999991506338 741
6.81999991461635 749
6.83999991416931 739
6.85999991372228 703
6.87999991327524 734
6.89999991282821 710
6.91999991238117 763
6.93999991193414 742
6.9599999114871 748
6.97999991104007 699
6.99999991059303 646
7.019999910146 712
7.03999990969896 679
7.05999990925193 724
7.07999990880489 726
7.09999990835786 667
7.11999990791082 696
7.13999990746379 684
7.15999990701675 688
7.17999990656972 644
7.19999990612268 710
7.21999990567565 671
7.23999990522861 695
7.25999990478158 632
7.27999990433454 686
7.29999990388751 648
7.31999990344047 676
7.33999990299344 708
7.35999990254641 651
7.37999990209937 687
7.39999990165234 689
7.4199999012053 664
7.43999990075827 675
7.45999990031123 673
7.4799998998642 639
7.49999989941716 687
7.51999989897013 678
7.53999989852309 651
7.55999989807606 608
7.57999989762902 646
7.59999989718199 632
7.61999989673495 661
7.63999989628792 651
7.65999989584088 660
7.67999989539385 662
7.69999989494681 607
7.71999989449978 659
7.73999989405274 659
7.75999989360571 634
7.77999989315867 666
7.79999989271164 678
7.8199998922646 679
7.83999989181757 654
7.85999989137053 662
7.8799998909235 660
7.89999989047646 609
7.91999989002943 654
7.9399998895824 638
7.95999988913536 585
7.97999988868833 664
7.99999988824129 652
8.01999988779426 657
8.03999988734722 644
8.05999988690019 662
8.07999988645315 616
8.09999988600612 647
8.11999988555908 626
8.13999988511205 645
8.15999988466501 627
8.17999988421798 658
8.19999988377094 631
8.21999988332391 652
8.23999988287687 645
8.25999988242984 626
8.2799998819828 648
8.29999988153577 623
8.31999988108873 645
8.3399998806417 605
8.35999988019466 631
8.37999987974763 605
8.39999987930059 635
8.41999987885356 611
8.43999987840652 629
8.45999987795949 609
8.47999987751245 606
8.49999987706542 610
8.51999987661839 639
8.53999987617135 583
8.55999987572432 620
8.57999987527728 605
8.59999987483025 590
8.61999987438321 592
8.63999987393618 641
8.65999987348914 607
8.67999987304211 616
8.69999987259507 659
8.71999987214804 567
8.739999871701 637
8.75999987125397 629
8.77999987080693 600
8.7999998703599 617
8.81999986991286 610
8.83999986946583 600
8.85999986901879 602
8.87999986857176 621
8.89999986812472 622
8.91999986767769 638
8.93999986723065 628
8.95999986678362 611
8.97999986633658 676
8.99999986588955 663
9.01999986544251 613
9.03999986499548 631
9.05999986454844 675
9.07999986410141 692
9.09999986365438 663
9.11999986320734 686
9.13999986276031 670
9.15999986231327 689
9.17999986186624 783
9.1999998614192 749
9.21999986097217 752
9.23999986052513 767
9.2599998600781 885
9.27999985963106 980
9.29999985918403 1220
9.31999985873699 1086
9.33999985828996 944
9.35999985784292 753
9.37999985739589 655
9.39999985694885 623
9.41999985650182 688
9.43999985605478 664
9.45999985560775 607
9.47999985516071 577
9.49999985471368 611
9.51999985426664 595
9.53999985381961 646
9.55999985337257 642
9.57999985292554 634
9.5999998524785 602
9.61999985203147 581
9.63999985158443 582
9.6599998511374 565
9.67999985069037 598
9.69999985024333 586
9.7199998497963 602
9.73999984934926 652
9.75999984890223 620
9.77999984845519 640
9.79999984800816 616
9.81999984756112 576
9.83999984711409 613
9.85999984666705 582
9.87999984622002 618
9.89999984577298 591
9.91999984532595 579
9.93999984487891 634
9.95999984443188 579
9.97999984398484 589
9.99999984353781 634
10.0199998430908 647
10.0399998426437 609
10.0599998421967 621
10.0799998417497 654
10.0999998413026 590
10.1199998408556 578
10.1399998404086 591
10.1599998399615 559
10.1799998395145 650
10.1999998390675 657
10.2199998386204 596
10.2399998381734 575
10.2599998377264 545
10.2799998372793 540
10.2999998368323 589
10.3199998363853 566
10.3399998359382 590
10.3599998354912 618
10.3799998350441 582
10.3999998345971 579
10.4199998341501 551
10.439999833703 590
10.459999833256 581
10.479999832809 542
10.4999998323619 569
10.5199998319149 580
10.5399998314679 592
10.5599998310208 587
10.5799998305738 586
10.5999998301268 568
10.6199998296797 610
10.6399998292327 610
10.6599998287857 624
10.6799998283386 664
10.6999998278916 665
10.7199998274446 730
10.7399998269975 799
10.7599998265505 756
10.7799998261034 766
10.7999998256564 708
10.8199998252094 654
10.8399998247623 629
10.8599998243153 652
10.8799998238683 645
10.8999998234212 675
10.9199998229742 668
10.9399998225272 696
10.9599998220801 652
10.9799998216331 632
10.9999998211861 587
11.019999820739 563
11.039999820292 586
11.059999819845 573
11.0799998193979 628
11.0999998189509 573
11.1199998185039 525
11.1399998180568 577
11.1599998176098 560
11.1799998171628 558
11.1999998167157 528
11.2199998162687 587
11.2399998158216 581
11.2599998153746 577
11.2799998149276 552
11.2999998144805 539
11.3199998140335 574
11.3399998135865 571
11.3599998131394 539
11.3799998126924 558
11.3999998122454 582
11.4199998117983 585
11.4399998113513 630
11.4599998109043 565
11.4799998104572 581
11.4999998100102 598
11.5199998095632 573
11.5399998091161 588
11.5599998086691 559
11.5799998082221 582
11.599999807775 571
11.619999807328 573
11.639999806881 560
11.6599998064339 564
11.6799998059869 581
11.6999998055398 556
11.7199998050928 507
11.7399998046458 531
11.7599998041987 545
11.7799998037517 518
11.7999998033047 577
11.8199998028576 602
11.8399998024106 530
11.8599998019636 579
11.8799998015165 515
11.8999998010695 553
11.9199998006225 500
11.9399998001754 552
11.9599997997284 570
11.9799997992814 591
11.9999997988343 553
12.0199997983873 562
12.0399997979403 539
12.0599997974932 545
12.0799997970462 560
12.0999997965992 554
12.1199997961521 614
12.1399997957051 544
12.159999795258 561
12.179999794811 582
12.199999794364 601
12.2199997939169 587
12.2399997934699 593
12.2599997930229 569
12.2799997925758 557
12.2999997921288 581
12.3199997916818 608
12.3399997912347 581
12.3599997907877 573
12.3799997903407 556
12.3999997898936 541
12.4199997894466 572
12.4399997889996 542
12.4599997885525 547
12.4799997881055 545
12.4999997876585 560
12.5199997872114 529
12.5399997867644 581
12.5599997863173 526
12.5799997858703 562
12.5999997854233 538
12.6199997849762 558
12.6399997845292 499
12.6599997840822 536
12.6799997836351 518
12.6999997831881 527
12.7199997827411 592
12.739999782294 573
12.759999781847 553
12.7799997814 543
12.7999997809529 548
12.8199997805059 552
12.8399997800589 576
12.8599997796118 534
12.8799997791648 568
12.8999997787178 589
12.9199997782707 565
12.9399997778237 578
12.9599997773767 595
12.9799997769296 561
12.9999997764826 573
13.0199997760355 533
13.0399997755885 534
13.0599997751415 555
13.0799997746944 540
13.0999997742474 526
13.1199997738004 559
13.1399997733533 617
13.1599997729063 545
13.1799997724593 581
13.1999997720122 577
13.2199997715652 572
13.2399997711182 582
13.2599997706711 578
13.2799997702241 596
13.2999997697771 583
13.31999976933 591
13.339999768883 606
13.359999768436 592
13.3799997679889 614
13.3999997675419 548
13.4199997670949 584
13.4399997666478 539
13.4599997662008 558
13.4799997657537 625
13.4999997653067 605
13.5199997648597 563
13.5399997644126 565
13.5599997639656 543
13.5799997635186 539
13.5999997630715 561
13.6199997626245 581
13.6399997621775 532
13.6599997617304 521
13.6799997612834 562
13.6999997608364 530
13.7199997603893 577
13.7399997599423 556
13.7599997594953 556
13.7799997590482 565
13.7999997586012 568
13.8199997581542 545
13.8399997577071 584
13.8599997572601 570
13.879999756813 627
13.899999756366 579
13.919999755919 557
13.9399997554719 570
13.9599997550249 591
13.9799997545779 604
13.9999997541308 565
14.0199997536838 575
14.0399997532368 595
14.0599997527897 589
14.0799997523427 566
14.0999997518957 597
14.1199997514486 614
14.1399997510016 574
14.1599997505546 620
14.1799997501075 611
14.1999997496605 589
14.2199997492135 605
14.2399997487664 592
14.2599997483194 575
14.2799997478724 614
14.2999997474253 600
14.3199997469783 561
14.3399997465312 592
14.3599997460842 629
14.3799997456372 602
14.3999997451901 603
14.4199997447431 554
14.4399997442961 565
14.459999743849 601
14.479999743402 619
14.499999742955 600
14.5199997425079 593
14.5399997420609 606
14.5599997416139 560
14.5799997411668 597
14.5999997407198 610
14.6199997402728 560
14.6399997398257 571
14.6599997393787 620
14.6799997389317 623
14.6999997384846 613
14.7199997380376 639
14.7399997375906 584
14.7599997371435 632
14.7799997366965 612
14.7999997362494 624
14.8199997358024 618
14.8399997353554 617
14.8599997349083 619
14.8799997344613 583
14.8999997340143 615
14.9199997335672 635
14.9399997331202 604
14.9599997326732 588
14.9799997322261 587
14.9999997317791 603
15.0199997313321 601
15.039999730885 602
15.059999730438 595
15.079999729991 618
15.0999997295439 594
15.1199997290969 613
15.1399997286499 609
15.1599997282028 597
15.1799997277558 630
15.1999997273088 643
15.2199997268617 620
15.2399997264147 655
15.2599997259676 656
15.2799997255206 632
15.2999997250736 666
15.3199997246265 655
15.3399997241795 622
15.3599997237325 617
15.3799997232854 644
15.3999997228384 620
15.4199997223914 648
15.4399997219443 623
15.4599997214973 588
15.4799997210503 657
15.4999997206032 570
15.5199997201562 604
15.5399997197092 623
15.5599997192621 615
15.5799997188151 634
15.5999997183681 682
15.619999717921 638
15.639999717474 615
15.659999717027 615
15.6799997165799 602
15.6999997161329 665
15.7199997156858 680
15.7399997152388 663
15.7599997147918 615
15.7799997143447 619
15.7999997138977 651
15.8199997134507 620
15.8399997130036 659
15.8599997125566 622
15.8799997121096 632
15.8999997116625 698
15.9199997112155 611
15.9399997107685 600
15.9599997103214 673
15.9799997098744 687
15.9999997094274 691
16.0199997089803 624
16.0399997085333 673
16.0599997080863 639
16.0799997076392 672
16.0999997071922 705
16.1199997067451 660
16.1399997062981 671
16.1599997058511 708
16.179999705404 692
16.199999704957 689
16.21999970451 675
16.2399997040629 709
16.2599997036159 719
16.2799997031689 678
16.2999997027218 666
16.3199997022748 674
16.3399997018278 698
16.3599997013807 674
16.3799997009337 725
16.3999997004867 693
16.4199997000396 674
16.4399996995926 664
16.4599996991456 677
16.4799996986985 648
16.4999996982515 710
16.5199996978045 768
16.5399996973574 745
16.5599996969104 735
16.5799996964633 754
16.5999996960163 752
16.6199996955693 701
16.6399996951222 790
16.6599996946752 762
16.6799996942282 827
16.6999996937811 828
16.7199996933341 789
16.7399996928871 784
16.75999969244 802
16.779999691993 811
16.799999691546 827
16.8199996910989 807
16.8399996906519 828
16.8599996902049 826
16.8799996897578 833
16.8999996893108 941
16.9199996888638 973
16.9399996884167 1089
16.9599996879697 1135
16.9799996875226 1073
16.9999996870756 925
17.0199996866286 837
17.0399996861815 719
17.0599996857345 744
17.0799996852875 749
17.0999996848404 709
17.1199996843934 733
17.1399996839464 770
17.1599996834993 751
17.1799996830523 778
17.1999996826053 750
17.2199996821582 795
17.2399996817112 768
17.2599996812642 730
17.2799996808171 770
17.2999996803701 786
17.3199996799231 742
17.339999679476 781
17.359999679029 827
17.379999678582 752
17.3999996781349 785
17.4199996776879 770
17.4399996772408 770
17.4599996767938 799
17.4799996763468 752
17.4999996758997 747
17.5199996754527 817
17.5399996750057 815
17.5599996745586 807
17.5799996741116 863
17.5999996736646 796
17.6199996732175 778
17.6399996727705 763
17.6599996723235 766
17.6799996718764 844
17.6999996714294 787
17.7199996709824 847
17.7399996705353 826
17.7599996700883 802
17.7799996696413 828
17.7999996691942 776
17.8199996687472 783
17.8399996683002 838
17.8599996678531 786
17.8799996674061 818
17.899999666959 862
17.919999666512 812
17.939999666065 794
17.9599996656179 799
17.9799996651709 816
17.9999996647239 799
18.0199996642768 819
18.0399996638298 768
18.0599996633828 818
18.0799996629357 786
18.0999996624887 836
18.1199996620417 807
18.1399996615946 870
18.1599996611476 830
18.1799996607006 874
18.1999996602535 823
18.2199996598065 832
18.2399996593595 874
18.2599996589124 865
18.2799996584654 849
18.2999996580184 831
18.3199996575713 846
18.3399996571243 835
18.3599996566772 835
18.3799996562302 794
18.3999996557832 816
18.4199996553361 817
18.4399996548891 850
18.4599996544421 858
18.479999653995 879
18.499999653548 932
18.519999653101 935
18.5399996526539 892
18.5599996522069 927
18.5799996517599 930
18.5999996513128 895
18.6199996508658 887
18.6399996504188 920
18.6599996499717 927
18.6799996495247 904
18.6999996490777 920
18.7199996486306 867
18.7399996481836 907
18.7599996477366 866
18.7799996472895 946
18.7999996468425 851
18.8199996463954 909
18.8399996459484 946
18.8599996455014 873
18.8799996450543 864
18.8999996446073 907
18.9199996441603 968
18.9399996437132 923
18.9599996432662 946
18.9799996428192 939
18.9999996423721 955
19.0199996419251 985
19.0399996414781 951
19.059999641031 880
19.079999640584 969
19.099999640137 967
19.1199996396899 943
19.1399996392429 959
19.1599996387959 996
19.1799996383488 870
19.1999996379018 930
19.2199996374547 903
19.2399996370077 932
19.2599996365607 921
19.2799996361136 942
19.2999996356666 962
19.3199996352196 968
19.3399996347725 969
19.3599996343255 945
19.3799996338785 1056
19.3999996334314 1055
19.4199996329844 1083
19.4399996325374 1048
19.4599996320903 1029
19.4799996316433 1003
19.4999996311963 1008
19.5199996307492 1010
19.5399996303022 1001
19.5599996298552 939
19.5799996294081 964
19.5999996289611 967
19.6199996285141 983
19.639999628067 1026
19.65999962762 973
19.6799996271729 992
19.6999996267259 965
19.7199996262789 994
19.7399996258318 1026
19.7599996253848 1003
19.7799996249378 970
19.7999996244907 1004
19.8199996240437 1019
19.8399996235967 994
19.8599996231496 1012
19.8799996227026 1012
19.8999996222556 963
19.9199996218085 987
19.9399996213615 1013
19.9599996209145 996
19.9799996204674 959
19.9999996200204 1021
