3 2432
3.01999999955297 2330
3.03999999910593 2142
3.0599999986589 2008
3.07999999821186 2015
3.09999999776483 1880
3.11999999731779 1776
3.13999999687076 1802
3.15999999642372 1730
3.17999999597669 1741
3.19999999552965 1704
3.21999999508262 1703
3.23999999463558 1663
3.25999999418855 1576
3.27999999374151 1612
3.29999999329448 1613
3.31999999284744 1567
3.33999999240041 1575
3.35999999195337 1505
3.37999999150634 1599
3.3999999910593 1503
3.41999999061227 1518
3.43999999016523 1443
3.4599999897182 1478
3.47999998927116 1386
3.49999998882413 1435
3.51999998837709 1391
3.53999998793006 1399
3.55999998748302 1333
3.57999998703599 1343
3.59999998658895 1436
3.61999998614192 1343
3.63999998569489 1273
3.65999998524785 1299
3.67999998480082 1311
3.69999998435378 1291
3.71999998390675 1236
3.73999998345971 1301
3.75999998301268 1211
3.77999998256564 1193
3.79999998211861 1209
3.81999998167157 1108
3.83999998122454 1140
3.8599999807775 1216
3.87999998033047 1091
3.89999997988343 1188
3.9199999794364 1125
3.93999997898936 1180
3.95999997854233 1181
3.97999997809529 1098
3.99999997764826 1067
4.01999997720122 1157
4.03999997675419 1126
4.05999997630715 1077
4.07999997586012 1029
4.09999997541308 998
4.11999997496605 1096
4.13999997451901 1006
4.15999997407198 1015
4.17999997362494 1038
4.19999997317791 1069
4.21999997273087 1068
4.23999997228384 998
4.25999997183681 1047
4.27999997138977 1009
4.29999997094274 1027
4.3199999704957 974
4.33999997004867 989
4.35999996960163 959
4.3799999691546 923
4.39999996870756 958
4.41999996826053 969
4.43999996781349 951
4.45999996736646 941
4.47999996691942 910
4.49999996647239 916
4.51999996602535 904
4.53999996557832 940
4.55999996513128 914
4.57999996468425 865
4.59999996423721 906
4.61999996379018 880
4.63999996334314 911
4.65999996289611 862
4.67999996244907 822
4.69999996200204 909
4.719999961555 807
4.73999996110797 818
4.75999996066093 919
4.7799999602139 802
4.79999995976686 812
4.81999995931983 841
4.83999995887279 861
4.85999995842576 828
4.87999995797873 851
4.89999995753169 827
4.91999995708466 794
4.93999995663762 738
4.95999995619059 765
4.97999995574355 816
4.99999995529652 798
5.01999995484948 780
5.03999995440245 810
5.05999995395541 838
5.07999995350838 779
5.09999995306134 747
5.11999995261431 785
5.13999995216727 773
5.15999995172024 780
5.1799999512732 782
5.19999995082617 777
5.21999995037913 741
5.2399999499321 766
5.25999994948506 753
5.27999994903803 731
5.29999994859099 707
5.31999994814396 736
5.33999994769692 725
5.35999994724989 734
5.37999994680285 764
5.39999994635582 693
5.41999994590878 700
5.43999994546175 757
5.45999994501471 724
5.47999994456768 734
5.49999994412065 715
5.51999994367361 736
5.53999994322658 729
5.55999994277954 710
5.57999994233251 695
5.59999994188547 691
5.61999994143844 674
5.6399999409914 676
5.65999994054437 750
5.67999994009733 701
5.6999999396503 680
5.71999993920326 691
5.73999993875623 654
5.75999993830919 659
5.77999993786216 674
5.79999993741512 651
5.81999993696809 665
5.83999993652105 648
5.85999993607402 708
5.87999993562698 679
5.89999993517995 657
5.91999993473291 726
5.93999993428588 668
5.95999993383884 673
5.97999993339181 708
5.99999993294477 670
6.01999993249774 664
6.0399999320507 655
6.05999993160367 630
6.07999993115663 592
6.0999999307096 623
6.11999993026257 679
6.13999992981553 655
6.1599999293685 654
6.17999992892146 672
6.19999992847443 656
6.21999992802739 695
6.23999992758036 625
6.25999992713332 622
6.27999992668629 613
6.29999992623925 628
6.31999992579222 659
6.33999992534518 679
6.35999992489815 671
6.37999992445111 650
6.39999992400408 631
6.41999992355704 616
6.43999992311001 634
6.45999992266297 689
6.47999992221594 652
6.4999999217689 623
6.51999992132187 629
6.53999992087483 692
6.5599999204278 624
6.57999991998076 638
6.59999991953373 620
6.61999991908669 596
6.63999991863966 596
6.65999991819262 610
6.67999991774559 675
6.69999991729855 623
6.71999991685152 584
6.73999991640449 683
6.75999991595745 630
6.77999991551042 651
6.79999991506338 556
6.81999991461635 600
6.83999991416931 605
6.85999991372228 598
6.87999991327524 606
6.89999991282821 578
6.91999991238117 644
6.93999991193414 593
6.9599999114871 591
6.97999991104007 627
6.99999991059303 568
7.019999910146 561
7.03999990969896 628
7.05999990925193 607
7.07999990880489 588
7.09999990835786 576
7.11999990791082 610
7.13999990746379 555
7.15999990701675 573
7.17999990656972 600
7.19999990612268 561
7.21999990567565 587
7.23999990522861 603
7.25999990478158 638
7.27999990433454 575
7.29999990388751 551
7.31999990344047 599
7.33999990299344 579
7.35999990254641 598
7.37999990209937 577
7.39999990165234 570
7.4199999012053 617
7.43999990075827 563
7.45999990031123 571
7.4799998998642 594
7.49999989941716 575
7.51999989897013 577
7.53999989852309 597
7.55999989807606 584
7.57999989762902 543
7.59999989718199 586
7.61999989673495 549
7.63999989628792 579
7.65999989584088 562
7.67999989539385 557
7.69999989494681 556
7.71999989449978 523
7.73999989405274 591
7.75999989360571 618
7.77999989315867 576
7.79999989271164 601
7.8199998922646 573
7.83999989181757 548
7.85999989137053 572
7.8799998909235 577
7.89999989047646 537
7.91999989002943 570
7.9399998895824 563
7.95999988913536 556
7.97999988868833 572
7.99999988824129 585
8.01999988779426 608
8.03999988734722 583
8.05999988690019 558
8.07999988645315 532
8.09999988600612 583
8.11999988555908 528
8.13999988511205 563
8.15999988466501 534
8.17999988421798 539
8.19999988377094 560
8.21999988332391 537
8.23999988287687 537
8.25999988242984 533
8.2799998819828 546
8.29999988153577 545
8.31999988108873 552
8.3399998806417 539
8.35999988019466 539
8.37999987974763 586
8.39999987930059 531
8.41999987885356 559
8.43999987840652 558
8.45999987795949 567
8.47999987751245 552
8.49999987706542 537
8.51999987661839 575
8.53999987617135 538
8.55999987572432 556
8.57999987527728 579
8.59999987483025 549
8.61999987438321 557
8.63999987393618 578
8.65999987348914 529
8.67999987304211 548
8.69999987259507 596
8.71999987214804 554
8.739999871701 582
8.75999987125397 632
8.77999987080693 616
8.7999998703599 644
8.81999986991286 611
8.83999986946583 657
8.85999986901879 656
8.87999986857176 679
8.89999986812472 701
8.91999986767769 667
8.93999986723065 795
8.95999986678362 815
8.97999986633658 1020
8.99999986588955 1260
9.01999986544251 1681
9.03999986499548 1697
9.05999986454844 1280
9.07999986410141 746
9.09999986365438 610
9.11999986320734 586
9.13999986276031 602
9.15999986231327 515
9.17999986186624 581
9.1999998614192 525
9.21999986097217 571
9.23999986052513 509
9.2599998600781 495
9.27999985963106 521
9.29999985918403 526
9.31999985873699 526
9.33999985828996 534
9.35999985784292 525
9.37999985739589 526
9.39999985694885 533
9.41999985650182 542
9.43999985605478 536
9.45999985560775 526
9.47999985516071 493
9.49999985471368 517
9.51999985426664 513
9.53999985381961 524
9.55999985337257 534
9.57999985292554 525
9.5999998524785 549
9.61999985203147 531
9.63999985158443 514
9.6599998511374 550
9.67999985069037 514
9.69999985024333 531
9.7199998497963 540
9.73999984934926 548
9.75999984890223 521
9.77999984845519 511
9.79999984800816 504
9.81999984756112 554
9.83999984711409 496
9.85999984666705 531
9.87999984622002 582
9.89999984577298 519
9.91999984532595 517
9.93999984487891 540
9.95999984443188 591
9.97999984398484 551
9.99999984353781 548
10.0199998430908 498
10.0399998426437 512
10.0599998421967 490
10.0799998417497 483
10.0999998413026 478
10.1199998408556 515
10.1399998404086 506
10.1599998399615 498
10.1799998395145 494
10.1999998390675 483
10.2199998386204 477
10.2399998381734 478
10.2599998377264 488
10.2799998372793 470
10.2999998368323 490
10.3199998363853 468
10.3399998359382 481
10.3599998354912 474
10.3799998350441 462
10.3999998345971 517
10.4199998341501 477
10.439999833703 519
10.459999833256 479
10.479999832809 487
10.4999998323619 472
10.5199998319149 521
10.5399998314679 451
10.5599998310208 477
10.5799998305738 446
10.5999998301268 458
10.6199998296797 495
10.6399998292327 494
10.6599998287857 466
10.6799998283386 487
10.6999998278916 488
10.7199998274446 488
10.7399998269975 480
10.7599998265505 521
10.7799998261034 480
10.7999998256564 484
10.8199998252094 505
10.8399998247623 506
10.8599998243153 462
10.8799998238683 483
10.8999998234212 478
10.9199998229742 463
10.9399998225272 505
10.9599998220801 487
10.9799998216331 497
10.9999998211861 493
11.019999820739 461
11.039999820292 448
11.059999819845 490
11.0799998193979 485
11.0999998189509 486
11.1199998185039 430
11.1399998180568 439
11.1599998176098 453
11.1799998171628 473
11.1999998167157 454
11.2199998162687 478
11.2399998158216 435
11.2599998153746 466
11.2799998149276 449
11.2999998144805 445
11.3199998140335 462
11.3399998135865 469
11.3599998131394 458
11.3799998126924 469
11.3999998122454 459
11.4199998117983 459
11.4399998113513 441
11.4599998109043 466
11.4799998104572 474
11.4999998100102 483
11.5199998095632 428
11.5399998091161 470
11.5599998086691 466
11.5799998082221 444
11.599999807775 461
11.619999807328 456
11.639999806881 517
11.6599998064339 473
11.6799998059869 450
11.6999998055398 491
11.7199998050928 472
11.7399998046458 495
11.7599998041987 447
11.7799998037517 467
11.7999998033047 489
11.8199998028576 472
11.8399998024106 457
11.8599998019636 467
11.8799998015165 458
11.8999998010695 452
11.9199998006225 454
11.9399998001754 487
11.9599997997284 443
11.9799997992814 459
11.9999997988343 470
12.0199997983873 491
12.0399997979403 471
12.0599997974932 451
12.0799997970462 453
12.0999997965992 479
12.1199997961521 454
12.1399997957051 495
12.159999795258 449
12.179999794811 471
12.199999794364 458
12.2199997939169 493
12.2399997934699 474
12.2599997930229 491
12.2799997925758 484
12.2999997921288 500
12.3199997916818 468
12.3399997912347 462
12.3599997907877 524
12.3799997903407 448
12.3999997898936 398
12.4199997894466 461
12.4399997889996 454
12.4599997885525 505
12.4799997881055 458
12.4999997876585 474
12.5199997872114 502
12.5399997867644 448
12.5599997863173 499
12.5799997858703 486
12.5999997854233 473
12.6199997849762 469
12.6399997845292 466
12.6599997840822 446
12.6799997836351 528
12.6999997831881 517
12.7199997827411 503
12.739999782294 496
12.759999781847 503
12.7799997814 509
12.7999997809529 476
12.8199997805059 463
12.8399997800589 471
12.8599997796118 482
12.8799997791648 486
12.8999997787178 489
12.9199997782707 472
12.9399997778237 439
12.9599997773767 476
12.9799997769296 461
12.9999997764826 473
13.0199997760355 435
13.0399997755885 490
13.0599997751415 452
13.0799997746944 508
13.0999997742474 490
13.1199997738004 470
13.1399997733533 490
13.1599997729063 495
13.1799997724593 517
13.1999997720122 479
13.2199997715652 513
13.2399997711182 483
13.2599997706711 540
13.2799997702241 511
13.2999997697771 517
13.31999976933 462
13.339999768883 527
13.359999768436 533
13.3799997679889 505
13.3999997675419 530
13.4199997670949 502
13.4399997666478 479
13.4599997662008 498
13.4799997657537 498
13.4999997653067 477
13.5199997648597 440
13.5399997644126 497
13.5599997639656 490
13.5799997635186 471
13.5999997630715 483
13.6199997626245 464
13.6399997621775 452
13.6599997617304 496
13.6799997612834 511
13.6999997608364 465
13.7199997603893 517
13.7399997599423 515
13.7599997594953 463
13.7799997590482 481
13.7999997586012 516
13.8199997581542 480
13.8399997577071 468
13.8599997572601 433
13.879999756813 483
13.899999756366 484
13.919999755919 483
13.9399997554719 486
13.9599997550249 502
13.9799997545779 544
13.9999997541308 486
14.0199997536838 488
14.0399997532368 500
14.0599997527897 488
14.0799997523427 505
14.0999997518957 467
14.1199997514486 482
14.1399997510016 479
14.1599997505546 485
14.1799997501075 502
14.1999997496605 487
14.2199997492135 435
14.2399997487664 508
14.2599997483194 526
14.2799997478724 500
14.2999997474253 463
14.3199997469783 486
14.3399997465312 494
14.3599997460842 481
14.3799997456372 496
14.3999997451901 466
14.4199997447431 492
14.4399997442961 457
14.459999743849 499
14.479999743402 473
14.499999742955 484
14.5199997425079 507
14.5399997420609 515
14.5599997416139 490
14.5799997411668 499
14.5999997407198 502
14.6199997402728 528
14.6399997398257 506
14.6599997393787 496
14.6799997389317 510
14.6999997384846 484
14.7199997380376 498
14.7399997375906 521
14.7599997371435 514
14.7799997366965 499
14.7999997362494 537
14.8199997358024 519
14.8399997353554 514
14.8599997349083 476
14.8799997344613 493
14.8999997340143 528
14.9199997335672 539
14.9399997331202 512
14.9599997326732 487
14.9799997322261 525
14.9999997317791 483
15.0199997313321 513
15.039999730885 518
15.059999730438 462
15.079999729991 482
15.0999997295439 535
15.1199997290969 515
15.1399997286499 560
15.1599997282028 529
15.1799997277558 509
15.1999997273088 505
15.2199997268617 488
15.2399997264147 534
15.2599997259676 579
15.2799997255206 543
15.2999997250736 569
15.3199997246265 526
15.3399997241795 558
15.3599997237325 548
15.3799997232854 526
15.3999997228384 529
15.4199997223914 570
15.4399997219443 522
15.4599997214973 540
15.4799997210503 538
15.4999997206032 520
15.5199997201562 571
15.5399997197092 557
15.5599997192621 522
15.5799997188151 544
15.5999997183681 569
15.619999717921 489
15.639999717474 574
15.659999717027 571
15.6799997165799 515
15.6999997161329 538
15.7199997156858 550
15.7399997152388 565
15.7599997147918 515
15.7799997143447 586
15.7999997138977 506
15.8199997134507 556
15.8399997130036 559
15.8599997125566 518
15.8799997121096 539
15.8999997116625 535
15.9199997112155 573
15.9399997107685 526
15.9599997103214 555
15.9799997098744 584
15.9999997094274 558
16.0199997089803 600
16.0399997085333 580
16.0599997080863 531
16.0799997076392 583
16.0999997071922 551
16.1199997067451 550
16.1399997062981 563
16.1599997058511 581
16.179999705404 567
16.199999704957 556
16.21999970451 593
16.2399997040629 539
16.2599997036159 593
16.2799997031689 598
16.2999997027218 563
16.3199997022748 611
16.3399997018278 580
16.3599997013807 555
16.3799997009337 602
16.3999997004867 580
16.4199997000396 616
16.4399996995926 557
16.4599996991456 571
16.4799996986985 628
16.4999996982515 613
16.5199996978045 571
16.5399996973574 582
16.5599996969104 626
16.5799996964633 654
16.5999996960163 620
16.6199996955693 665
16.6399996951222 660
16.6599996946752 664
16.6799996942282 646
16.6999996937811 655
16.7199996933341 728
16.7399996928871 746
16.75999969244 813
16.779999691993 845
16.799999691546 868
16.8199996910989 984
16.8399996906519 1074
16.8599996902049 1267
16.8799996897578 1334
16.8999996893108 1511
16.9199996888638 1617
16.9399996884167 1672
16.9599996879697 1515
16.9799996875226 1306
16.9999996870756 1291
17.0199996866286 1132
17.0399996861815 993
17.0599996857345 866
17.0799996852875 754
17.0999996848404 687
17.1199996843934 676
17.1399996839464 697
17.1599996834993 651
17.1799996830523 653
17.1999996826053 704
17.2199996821582 627
17.2399996817112 644
17.2599996812642 608
17.2799996808171 639
17.2999996803701 657
17.3199996799231 660
17.339999679476 691
17.359999679029 653
17.379999678582 666
17.3999996781349 640
17.4199996776879 619
17.4399996772408 674
17.4599996767938 703
17.4799996763468 631
17.4999996758997 660
17.5199996754527 687
17.5399996750057 632
17.5599996745586 678
17.5799996741116 602
17.5999996736646 684
17.6199996732175 642
17.6399996727705 651
17.6599996723235 662
17.6799996718764 664
17.6999996714294 692
17.7199996709824 681
17.7399996705353 667
17.7599996700883 652
17.7799996696413 691
17.7999996691942 696
17.8199996687472 701
17.8399996683002 669
17.8599996678531 658
17.8799996674061 672
17.899999666959 652
17.919999666512 673
17.939999666065 678
17.9599996656179 721
17.9799996651709 673
17.9999996647239 711
18.0199996642768 751
18.0399996638298 718
18.0599996633828 712
18.0799996629357 709
18.0999996624887 677
18.1199996620417 681
18.1399996615946 692
18.1599996611476 657
18.1799996607006 700
18.1999996602535 674
18.2199996598065 644
18.2399996593595 673
18.2599996589124 672
18.2799996584654 681
18.2999996580184 703
18.3199996575713 663
18.3399996571243 726
18.3599996566772 707
18.3799996562302 729
18.3999996557832 697
18.4199996553361 719
18.4399996548891 685
18.4599996544421 728
18.479999653995 731
18.499999653548 728
18.519999653101 726
18.5399996526539 751
18.5599996522069 731
18.5799996517599 750
18.5999996513128 730
18.6199996508658 723
18.6399996504188 743
18.6599996499717 771
18.6799996495247 723
18.6999996490777 709
18.7199996486306 699
18.7399996481836 690
18.7599996477366 726
18.7799996472895 713
18.7999996468425 699
18.8199996463954 761
18.8399996459484 746
18.8599996455014 768
18.8799996450543 749
18.8999996446073 725
18.9199996441603 728
18.9399996437132 756
18.9599996432662 729
18.9799996428192 787
18.9999996423721 751
19.0199996419251 744
19.0399996414781 737
19.059999641031 761
19.079999640584 727
19.099999640137 724
19.1199996396899 768
19.1399996392429 778
19.1599996387959 781
19.1799996383488 773
19.1999996379018 691
19.2199996374547 736
19.2399996370077 764
19.2599996365607 737
19.2799996361136 709
19.2999996356666 784
19.3199996352196 727
19.3399996347725 811
19.3599996343255 801
19.3799996338785 758
19.3999996334314 810
19.4199996329844 828
19.4399996325374 781
19.4599996320903 797
19.4799996316433 743
19.4999996311963 769
19.5199996307492 776
19.5399996303022 789
19.5599996298552 819
19.5799996294081 827
19.5999996289611 792
19.6199996285141 790
19.639999628067 762
19.65999962762 795
19.6799996271729 788
19.6999996267259 807
19.7199996262789 813
19.7399996258318 797
19.7599996253848 829
19.7799996249378 783
19.7999996244907 833
19.8199996240437 837
19.8399996235967 781
19.8599996231496 784
19.8799996227026 815
19.8999996222556 861
19.9199996218085 859
19.9399996213615 872
19.9599996209145 825
19.9799996204674 835
19.9999996200204 827
