3 3148
3.01999999955297 2862
3.03999999910593 2740
3.0599999986589 2638
3.07999999821186 2530
3.09999999776483 2486
3.11999999731779 2457
3.13999999687076 2512
3.15999999642372 2432
3.17999999597669 2444
3.19999999552965 2413
3.21999999508262 2319
3.23999999463558 2434
3.25999999418855 2334
3.27999999374151 2208
3.29999999329448 2185
3.31999999284744 2125
3.33999999240041 2163
3.35999999195337 2189
3.37999999150634 2046
3.3999999910593 2031
3.41999999061227 1951
3.43999999016523 2091
3.4599999897182 1936
3.47999998927116 1903
3.49999998882413 1847
3.51999998837709 1904
3.53999998793006 1849
3.55999998748302 1850
3.57999998703599 1836
3.59999998658895 1756
3.61999998614192 1807
3.63999998569489 1753
3.65999998524785 1657
3.67999998480082 1712
3.69999998435378 1719
3.71999998390675 1686
3.73999998345971 1582
3.75999998301268 1543
3.77999998256564 1585
3.79999998211861 1613
3.81999998167157 1538
3.83999998122454 1540
3.8599999807775 1487
3.87999998033047 1539
3.89999997988343 1546
3.9199999794364 1497
3.93999997898936 1492
3.95999997854233 1381
3.97999997809529 1493
3.99999997764826 1419
4.01999997720122 1450
4.03999997675419 1407
4.05999997630715 1352
4.07999997586012 1349
4.09999997541308 1314
4.11999997496605 1286
4.13999997451901 1318
4.15999997407198 1312
4.17999997362494 1316
4.19999997317791 1232
4.21999997273087 1340
4.23999997228384 1245
4.25999997183681 1248
4.27999997138977 1254
4.29999997094274 1187
4.3199999704957 1201
4.33999997004867 1236
4.35999996960163 1197
4.3799999691546 1197
4.39999996870756 1199
4.41999996826053 1213
4.43999996781349 1190
4.45999996736646 1134
4.47999996691942 1140
4.49999996647239 1089
4.51999996602535 1048
4.53999996557832 1092
4.55999996513128 1081
4.57999996468425 1123
4.59999996423721 1107
4.61999996379018 1083
4.63999996334314 1093
4.65999996289611 1034
4.67999996244907 1079
4.69999996200204 1059
4.719999961555 1028
4.73999996110797 1060
4.75999996066093 1057
4.7799999602139 1094
4.79999995976686 1057
4.81999995931983 1025
4.83999995887279 1063
4.85999995842576 981
4.87999995797873 1023
4.89999995753169 1062
4.91999995708466 1003
4.93999995663762 968
4.95999995619059 990
4.97999995574355 965
4.99999995529652 925
5.01999995484948 992
5.03999995440245 997
5.05999995395541 973
5.07999995350838 1064
5.09999995306134 944
5.11999995261431 1028
5.13999995216727 984
5.15999995172024 1005
5.1799999512732 1086
5.19999995082617 1068
5.21999995037913 1066
5.2399999499321 1012
5.25999994948506 1072
5.27999994903803 1029
5.29999994859099 1086
5.31999994814396 1167
5.33999994769692 1104
5.35999994724989 1274
5.37999994680285 1318
5.39999994635582 1306
5.41999994590878 1396
5.43999994546175 1411
5.45999994501471 1280
5.47999994456768 1200
5.49999994412065 1155
5.51999994367361 1033
5.53999994322658 1050
5.55999994277954 1015
5.57999994233251 1010
5.59999994188547 955
5.61999994143844 926
5.6399999409914 967
5.65999994054437 912
5.67999994009733 876
5.6999999396503 923
5.71999993920326 897
5.73999993875623 925
5.75999993830919 880
5.77999993786216 854
5.79999993741512 894
5.81999993696809 910
5.83999993652105 893
5.85999993607402 867
5.87999993562698 857
5.89999993517995 825
5.91999993473291 812
5.93999993428588 870
5.95999993383884 767
5.97999993339181 822
5.99999993294477 809
6.01999993249774 814
6.0399999320507 760
6.05999993160367 788
6.07999993115663 742
6.0999999307096 799
6.11999993026257 788
6.13999992981553 806
6.1599999293685 855
6.17999992892146 784
6.19999992847443 808
6.21999992802739 796
6.23999992758036 799
6.25999992713332 719
6.27999992668629 804
6.29999992623925 788
6.31999992579222 748
6.33999992534518 728
6.35999992489815 725
6.37999992445111 771
6.39999992400408 779
6.41999992355704 784
6.43999992311001 758
6.45999992266297 739
6.47999992221594 784
6.4999999217689 752
6.51999992132187 755
6.53999992087483 807
6.5599999204278 747
6.57999991998076 798
6.59999991953373 757
6.61999991908669 762
6.63999991863966 776
6.65999991819262 776
6.67999991774559 739
6.69999991729855 739
6.71999991685152 750
6.73999991640449 726
6.75999991595745 778
6.77999991551042 795
6.79999991506338 731
6.81999991461635 746
6.83999991416931 750
6.85999991372228 746
6.87999991327524 752
6.89999991282821 712
6.91999991238117 725
6.93999991193414 772
6.9599999114871 728
6.97999991104007 761
6.99999991059303 695
7.019999910146 766
7.03999990969896 741
7.05999990925193 754
7.07999990880489 762
7.09999990835786 759
7.11999990791082 720
7.13999990746379 760
7.15999990701675 710
7.17999990656972 697
7.19999990612268 778
7.21999990567565 702
7.23999990522861 732
7.25999990478158 683
7.27999990433454 716
7.29999990388751 736
7.31999990344047 764
7.33999990299344 750
7.35999990254641 774
7.37999990209937 708
7.39999990165234 738
7.4199999012053 750
7.43999990075827 725
7.45999990031123 730
7.4799998998642 788
7.49999989941716 773
7.51999989897013 701
7.53999989852309 718
7.55999989807606 755
7.57999989762902 749
7.59999989718199 734
7.61999989673495 752
7.63999989628792 765
7.65999989584088 755
7.67999989539385 703
7.69999989494681 776
7.71999989449978 767
7.73999989405274 737
7.75999989360571 733
7.77999989315867 743
7.79999989271164 745
7.8199998922646 752
7.83999989181757 679
7.85999989137053 751
7.8799998909235 715
7.89999989047646 746
7.91999989002943 777
7.9399998895824 750
7.95999988913536 814
7.97999988868833 716
7.99999988824129 719
8.01999988779426 732
8.03999988734722 751
8.05999988690019 757
8.07999988645315 768
8.09999988600612 748
8.11999988555908 732
8.13999988511205 733
8.15999988466501 740
8.17999988421798 779
8.19999988377094 742
8.21999988332391 753
8.23999988287687 713
8.25999988242984 753
8.2799998819828 800
8.29999988153577 779
8.31999988108873 728
8.3399998806417 730
8.35999988019466 725
8.37999987974763 714
8.39999987930059 782
8.41999987885356 752
8.43999987840652 754
8.45999987795949 734
8.47999987751245 711
8.49999987706542 754
8.51999987661839 767
8.53999987617135 759
8.55999987572432 798
8.57999987527728 733
8.59999987483025 760
8.61999987438321 803
8.63999987393618 760
8.65999987348914 721
8.67999987304211 701
8.69999987259507 724
8.71999987214804 750
8.739999871701 760
8.75999987125397 749
8.77999987080693 721
8.7999998703599 739
8.81999986991286 781
8.83999986946583 715
8.85999986901879 746
8.87999986857176 712
8.89999986812472 792
8.91999986767769 738
8.93999986723065 767
8.95999986678362 733
8.97999986633658 777
8.99999986588955 771
9.01999986544251 745
9.03999986499548 757
9.05999986454844 780
9.07999986410141 741
9.09999986365438 733
9.11999986320734 801
9.13999986276031 744
9.15999986231327 738
9.17999986186624 793
9.1999998614192 803
9.21999986097217 816
9.23999986052513 812
9.2599998600781 812
9.27999985963106 848
9.29999985918403 853
9.31999985873699 868
9.33999985828996 931
9.35999985784292 937
9.37999985739589 920
9.39999985694885 830
9.41999985650182 803
9.43999985605478 767
9.45999985560775 762
9.47999985516071 743
9.49999985471368 740
9.51999985426664 795
9.53999985381961 724
9.55999985337257 786
9.57999985292554 754
9.5999998524785 799
9.61999985203147 777
9.63999985158443 752
9.6599998511374 766
9.67999985069037 725
9.69999985024333 787
9.7199998497963 766
9.73999984934926 717
9.75999984890223 795
9.77999984845519 774
9.79999984800816 795
9.81999984756112 756
9.83999984711409 752
9.85999984666705 730
9.87999984622002 809
9.89999984577298 765
9.91999984532595 730
9.93999984487891 802
9.95999984443188 765
9.97999984398484 760
9.99999984353781 770
10.0199998430908 807
10.0399998426437 738
10.0599998421967 773
10.0799998417497 757
10.0999998413026 775
10.1199998408556 774
10.1399998404086 742
10.1599998399615 808
10.1799998395145 779
10.1999998390675 758
10.2199998386204 771
10.2399998381734 761
10.2599998377264 788
10.2799998372793 740
10.2999998368323 762
10.3199998363853 761
10.3399998359382 765
10.3599998354912 782
10.3799998350441 796
10.3999998345971 787
10.4199998341501 767
10.439999833703 770
10.459999833256 781
10.479999832809 783
10.4999998323619 742
10.5199998319149 790
10.5399998314679 821
10.5599998310208 818
10.5799998305738 786
10.5999998301268 750
10.6199998296797 778
10.6399998292327 803
10.6599998287857 812
10.6799998283386 834
10.6999998278916 837
10.7199998274446 818
10.7399998269975 837
10.7599998265505 767
10.7799998261034 871
10.7999998256564 864
10.8199998252094 862
10.8399998247623 859
10.8599998243153 797
10.8799998238683 867
10.8999998234212 770
10.9199998229742 788
10.9399998225272 841
10.9599998220801 837
10.9799998216331 776
10.9999998211861 844
11.019999820739 805
11.039999820292 844
11.059999819845 834
11.0799998193979 851
11.0999998189509 841
11.1199998185039 825
11.1399998180568 746
11.1599998176098 770
11.1799998171628 813
11.1999998167157 751
11.2199998162687 840
11.2399998158216 846
11.2599998153746 802
11.2799998149276 807
11.2999998144805 829
11.3199998140335 775
11.3399998135865 781
11.3599998131394 757
11.3799998126924 797
11.3999998122454 814
11.4199998117983 805
11.4399998113513 838
11.4599998109043 814
11.4799998104572 828
11.4999998100102 822
11.5199998095632 825
11.5399998091161 818
11.5599998086691 759
11.5799998082221 845
11.599999807775 836
11.619999807328 840
11.639999806881 839
11.6599998064339 817
11.6799998059869 878
11.6999998055398 861
11.7199998050928 917
11.7399998046458 799
11.7599998041987 804
11.7799998037517 836
11.7999998033047 829
11.8199998028576 875
11.8399998024106 882
11.8599998019636 903
11.8799998015165 872
11.8999998010695 849
11.9199998006225 870
11.9399998001754 790
11.9599997997284 845
11.9799997992814 876
11.9999997988343 866
12.0199997983873 872
12.0399997979403 827
12.0599997974932 846
12.0799997970462 851
12.0999997965992 902
12.1199997961521 831
12.1399997957051 875
12.159999795258 894
12.179999794811 898
12.199999794364 865
12.2199997939169 816
12.2399997934699 872
12.2599997930229 869
12.2799997925758 886
12.2999997921288 889
12.3199997916818 940
12.3399997912347 881
12.3599997907877 836
12.3799997903407 879
12.3999997898936 908
12.4199997894466 898
12.4399997889996 922
12.4599997885525 891
12.4799997881055 905
12.4999997876585 853
12.5199997872114 890
12.5399997867644 885
12.5599997863173 875
12.5799997858703 870
12.5999997854233 932
12.6199997849762 916
12.6399997845292 901
12.6599997840822 955
12.6799997836351 874
12.6999997831881 859
12.7199997827411 924
12.739999782294 966
12.759999781847 880
12.7799997814 913
12.7999997809529 925
12.8199997805059 886
12.8399997800589 949
12.8599997796118 961
12.8799997791648 891
12.8999997787178 863
12.9199997782707 897
12.9399997778237 902
12.9599997773767 898
12.9799997769296 929
12.9999997764826 916
13.0199997760355 917
13.0399997755885 967
13.0599997751415 1017
13.0799997746944 956
13.0999997742474 897
13.1199997738004 980
13.1399997733533 972
13.1599997729063 941
13.1799997724593 940
13.1999997720122 947
13.2199997715652 970
13.2399997711182 992
13.2599997706711 976
13.2799997702241 955
13.2999997697771 996
13.31999976933 1006
13.339999768883 979
13.359999768436 981
13.3799997679889 981
13.3999997675419 966
13.4199997670949 967
13.4399997666478 984
13.4599997662008 969
13.4799997657537 952
13.4999997653067 982
13.5199997648597 907
13.5399997644126 981
13.5599997639656 950
13.5799997635186 1035
13.5999997630715 979
13.6199997626245 949
13.6399997621775 1034
13.6599997617304 1039
13.6799997612834 1009
13.6999997608364 1027
13.7199997603893 1064
13.7399997599423 1000
13.7599997594953 1005
13.7799997590482 1033
13.7999997586012 1004
13.8199997581542 1026
13.8399997577071 1056
13.8599997572601 1014
13.879999756813 1016
13.899999756366 995
13.919999755919 973
13.9399997554719 1023
13.9599997550249 1069
13.9799997545779 1035
13.9999997541308 1019
14.0199997536838 1028
14.0399997532368 1019
14.0599997527897 1045
14.0799997523427 1102
14.0999997518957 1027
14.1199997514486 1041
14.1399997510016 1066
14.1599997505546 1042
14.1799997501075 1018
14.1999997496605 1046
14.2199997492135 1109
14.2399997487664 1104
14.2599997483194 1104
14.2799997478724 1128
14.2999997474253 1108
14.3199997469783 1074
14.3399997465312 1089
14.3599997460842 1076
14.3799997456372 1151
14.3999997451901 1149
14.4199997447431 1102
14.4399997442961 1111
14.459999743849 1106
14.479999743402 1124
14.499999742955 1139
14.5199997425079 1151
14.5399997420609 1139
14.5599997416139 1125
14.5799997411668 1104
14.5999997407198 1129
14.6199997402728 1120
14.6399997398257 1131
14.6599997393787 1125
14.6799997389317 1214
14.6999997384846 1207
14.7199997380376 1155
14.7399997375906 1087
14.7599997371435 1140
14.7799997366965 1190
14.7999997362494 1186
14.8199997358024 1164
14.8399997353554 1168
14.8599997349083 1221
14.8799997344613 1130
14.8999997340143 1217
14.9199997335672 1184
14.9399997331202 1193
14.9599997326732 1198
14.9799997322261 1147
14.9999997317791 1233
15.0199997313321 1125
15.039999730885 1210
15.059999730438 1227
15.079999729991 1178
15.0999997295439 1187
15.1199997290969 1200
15.1399997286499 1251
15.1599997282028 1214
15.1799997277558 1269
15.1999997273088 1239
15.2199997268617 1264
15.2399997264147 1257
15.2599997259676 1224
15.2799997255206 1263
15.2999997250736 1267
15.3199997246265 1211
15.3399997241795 1304
15.3599997237325 1189
15.3799997232854 1255
15.3999997228384 1247
15.4199997223914 1267
15.4399997219443 1232
15.4599997214973 1243
15.4799997210503 1292
15.4999997206032 1258
15.5199997201562 1250
15.5399997197092 1284
15.5599997192621 1291
15.5799997188151 1299
15.5999997183681 1294
15.619999717921 1271
15.639999717474 1306
15.659999717027 1353
15.6799997165799 1366
15.6999997161329 1371
15.7199997156858 1322
15.7399997152388 1331
15.7599997147918 1289
15.7799997143447 1341
15.7999997138977 1328
15.8199997134507 1363
15.8399997130036 1387
15.8599997125566 1324
15.8799997121096 1357
15.8999997116625 1354
15.9199997112155 1374
15.9399997107685 1371
15.9599997103214 1367
15.9799997098744 1358
15.9999997094274 1382
16.0199997089803 1371
16.0399997085333 1445
16.0599997080863 1373
16.0799997076392 1358
16.0999997071922 1365
16.1199997067451 1406
16.1399997062981 1425
16.1599997058511 1408
16.179999705404 1470
16.199999704957 1499
16.21999970451 1481
16.2399997040629 1438
16.2599997036159 1480
16.2799997031689 1425
16.2999997027218 1495
16.3199997022748 1438
16.3399997018278 1515
16.3599997013807 1443
16.3799997009337 1511
16.3999997004867 1474
16.4199997000396 1549
16.4399996995926 1468
16.4599996991456 1453
16.4799996986985 1468
16.4999996982515 1525
16.5199996978045 1475
16.5399996973574 1437
16.5599996969104 1550
16.5799996964633 1530
16.5999996960163 1583
16.6199996955693 1528
16.6399996951222 1595
16.6599996946752 1548
16.6799996942282 1531
16.6999996937811 1636
16.7199996933341 1633
16.7399996928871 1630
16.75999969244 1695
16.779999691993 1684
16.799999691546 1673
16.8199996910989 1799
16.8399996906519 1813
16.8599996902049 1806
16.8799996897578 1874
16.8999996893108 1878
16.9199996888638 2119
16.9399996884167 2194
16.9599996879697 2352
16.9799996875226 2389
16.9999996870756 2470
17.0199996866286 2456
17.0399996861815 2418
17.0599996857345 2165
17.0799996852875 2030
17.0999996848404 1909
17.1199996843934 1863
17.1399996839464 1694
17.1599996834993 1740
17.1799996830523 1707
17.1999996826053 1708
17.2199996821582 1750
17.2399996817112 1739
17.2599996812642 1731
17.2799996808171 1706
17.2999996803701 1748
17.3199996799231 1732
17.339999679476 1750
17.359999679029 1691
17.379999678582 1697
17.3999996781349 1805
17.4199996776879 1641
17.4399996772408 1760
17.4599996767938 1715
17.4799996763468 1769
17.4999996758997 1728
17.5199996754527 1777
17.5399996750057 1776
17.5599996745586 1772
17.5799996741116 1821
17.5999996736646 1798
17.6199996732175 1844
17.6399996727705 1842
17.6599996723235 1797
17.6799996718764 1810
17.6999996714294 1817
17.7199996709824 1876
17.7399996705353 1845
17.7599996700883 1839
17.7799996696413 1916
17.7999996691942 1852
17.8199996687472 1866
17.8399996683002 1894
17.8599996678531 1924
17.8799996674061 1956
17.899999666959 1871
17.919999666512 1869
17.939999666065 1836
17.9599996656179 1947
17.9799996651709 1880
17.9999996647239 1962
18.0199996642768 1922
18.0399996638298 1931
18.0599996633828 1917
18.0799996629357 1911
18.0999996624887 1961
18.1199996620417 1986
18.1399996615946 1928
18.1599996611476 1976
18.1799996607006 1983
18.1999996602535 2009
18.2199996598065 2002
18.2399996593595 2017
18.2599996589124 1916
18.2799996584654 2027
18.2999996580184 2017
18.3199996575713 2020
18.3399996571243 2040
18.3599996566772 2005
18.3799996562302 1946
18.3999996557832 1955
18.4199996553361 1972
18.4399996548891 1981
18.4599996544421 2045
18.479999653995 2062
18.499999653548 2018
18.519999653101 2064
18.5399996526539 2088
18.5599996522069 2044
18.5799996517599 1988
18.5999996513128 2161
18.6199996508658 2027
18.6399996504188 2133
18.6599996499717 2063
18.6799996495247 2038
18.6999996490777 2082
18.7199996486306 2148
18.7399996481836 2036
18.7599996477366 2090
18.7799996472895 2133
18.7999996468425 2144
18.8199996463954 2178
18.8399996459484 2134
18.8599996455014 2266
18.8799996450543 2140
18.8999996446073 2122
18.9199996441603 2141
18.9399996437132 2094
18.9599996432662 2183
18.9799996428192 2176
18.9999996423721 2184
19.0199996419251 2257
19.0399996414781 2129
19.059999641031 2253
19.079999640584 2240
19.099999640137 2156
19.1199996396899 2245
19.1399996392429 2329
19.1599996387959 2335
19.1799996383488 2250
19.1999996379018 2220
19.2199996374547 2306
19.2399996370077 2228
19.2599996365607 2247
19.2799996361136 2195
19.2999996356666 2231
19.3199996352196 2305
19.3399996347725 2206
19.3599996343255 2358
19.3799996338785 2375
19.3999996334314 2309
19.4199996329844 2271
19.4399996325374 2316
19.4599996320903 2342
19.4799996316433 2317
19.4999996311963 2351
19.5199996307492 2299
19.5399996303022 2296
19.5599996298552 2370
19.5799996294081 2345
19.5999996289611 2336
19.6199996285141 2405
19.639999628067 2260
19.65999962762 2297
19.6799996271729 2391
19.6999996267259 2398
19.7199996262789 2399
19.7399996258318 2345
19.7599996253848 2353
19.7799996249378 2355
19.7999996244907 2442
19.8199996240437 2343
19.8399996235967 2494
19.8599996231496 2410
19.8799996227026 2417
19.8999996222556 2364
19.9199996218085 2394
19.9399996213615 2412
19.9599996209145 2473
19.9799996204674 2421
19.9999996200204 2407
