3 2568
3.01999999955297 2365
3.03999999910593 2225
3.0599999986589 2116
3.07999999821186 1989
3.09999999776483 1983
3.11999999731779 2053
3.13999999687076 1949
3.15999999642372 2031
3.17999999597669 1965
3.19999999552965 1939
3.21999999508262 1943
3.23999999463558 1920
3.25999999418855 1826
3.27999999374151 1847
3.29999999329448 1874
3.31999999284744 1813
3.33999999240041 1726
3.35999999195337 1723
3.37999999150634 1709
3.3999999910593 1615
3.41999999061227 1671
3.43999999016523 1631
3.4599999897182 1609
3.47999998927116 1535
3.49999998882413 1468
3.51999998837709 1501
3.53999998793006 1492
3.55999998748302 1488
3.57999998703599 1468
3.59999998658895 1399
3.61999998614192 1388
3.63999998569489 1419
3.65999998524785 1368
3.67999998480082 1346
3.69999998435378 1429
3.71999998390675 1365
3.73999998345971 1330
3.75999998301268 1289
3.77999998256564 1285
3.79999998211861 1347
3.81999998167157 1269
3.83999998122454 1298
3.8599999807775 1300
3.87999998033047 1292
3.89999997988343 1191
3.9199999794364 1287
3.93999997898936 1158
3.95999997854233 1260
3.97999997809529 1229
3.99999997764826 1208
4.01999997720122 1184
4.03999997675419 1181
4.05999997630715 1186
4.07999997586012 1217
4.09999997541308 1230
4.11999997496605 1149
4.13999997451901 1157
4.15999997407198 1118
4.17999997362494 1099
4.19999997317791 1109
4.21999997273087 1132
4.23999997228384 1137
4.25999997183681 1102
4.27999997138977 1109
4.29999997094274 1104
4.3199999704957 1148
4.33999997004867 1083
4.35999996960163 1068
4.3799999691546 1093
4.39999996870756 1053
4.41999996826053 1024
4.43999996781349 1064
4.45999996736646 1029
4.47999996691942 1071
4.49999996647239 1039
4.51999996602535 990
4.53999996557832 975
4.55999996513128 1006
4.57999996468425 1044
4.59999996423721 1060
4.61999996379018 979
4.63999996334314 989
4.65999996289611 954
4.67999996244907 1034
4.69999996200204 999
4.719999961555 951
4.73999996110797 954
4.75999996066093 959
4.7799999602139 929
4.79999995976686 942
4.81999995931983 918
4.83999995887279 923
4.85999995842576 916
4.87999995797873 960
4.89999995753169 856
4.91999995708466 881
4.93999995663762 939
4.95999995619059 914
4.97999995574355 919
4.99999995529652 954
5.01999995484948 883
5.03999995440245 888
5.05999995395541 886
5.07999995350838 845
5.09999995306134 869
5.11999995261431 877
5.13999995216727 878
5.15999995172024 854
5.1799999512732 900
5.19999995082617 829
5.21999995037913 832
5.2399999499321 859
5.25999994948506 896
5.27999994903803 827
5.29999994859099 848
5.31999994814396 860
5.33999994769692 821
5.35999994724989 807
5.37999994680285 833
5.39999994635582 820
5.41999994590878 835
5.43999994546175 807
5.45999994501471 773
5.47999994456768 855
5.49999994412065 815
5.51999994367361 818
5.53999994322658 819
5.55999994277954 869
5.57999994233251 805
5.59999994188547 775
5.61999994143844 805
5.6399999409914 805
5.65999994054437 804
5.67999994009733 775
5.6999999396503 802
5.71999993920326 801
5.73999993875623 824
5.75999993830919 895
5.77999993786216 836
5.79999993741512 772
5.81999993696809 822
5.83999993652105 771
5.85999993607402 757
5.87999993562698 782
5.89999993517995 783
5.91999993473291 811
5.93999993428588 820
5.95999993383884 790
5.97999993339181 785
5.99999993294477 753
6.01999993249774 795
6.0399999320507 789
6.05999993160367 741
6.07999993115663 805
6.0999999307096 789
6.11999993026257 771
6.13999992981553 795
6.1599999293685 803
6.17999992892146 805
6.19999992847443 796
6.21999992802739 744
6.23999992758036 824
6.25999992713332 778
6.27999992668629 781
6.29999992623925 765
6.31999992579222 728
6.33999992534518 779
6.35999992489815 807
6.37999992445111 767
6.39999992400408 778
6.41999992355704 744
6.43999992311001 766
6.45999992266297 766
6.47999992221594 774
6.4999999217689 734
6.51999992132187 723
6.53999992087483 754
6.5599999204278 779
6.57999991998076 762
6.59999991953373 742
6.61999991908669 737
6.63999991863966 777
6.65999991819262 758
6.67999991774559 782
6.69999991729855 703
6.71999991685152 711
6.73999991640449 769
6.75999991595745 794
6.77999991551042 760
6.79999991506338 793
6.81999991461635 763
6.83999991416931 762
6.85999991372228 782
6.87999991327524 759
6.89999991282821 804
6.91999991238117 785
6.93999991193414 727
6.9599999114871 686
6.97999991104007 743
6.99999991059303 739
7.019999910146 745
7.03999990969896 767
7.05999990925193 736
7.07999990880489 746
7.09999990835786 760
7.11999990791082 708
7.13999990746379 735
7.15999990701675 766
7.17999990656972 799
7.19999990612268 693
7.21999990567565 723
7.23999990522861 756
7.25999990478158 748
7.27999990433454 780
7.29999990388751 736
7.31999990344047 764
7.33999990299344 748
7.35999990254641 751
7.37999990209937 750
7.39999990165234 743
7.4199999012053 789
7.43999990075827 795
7.45999990031123 718
7.4799998998642 753
7.49999989941716 701
7.51999989897013 740
7.53999989852309 748
7.55999989807606 775
7.57999989762902 756
7.59999989718199 743
7.61999989673495 708
7.63999989628792 765
7.65999989584088 793
7.67999989539385 761
7.69999989494681 786
7.71999989449978 700
7.73999989405274 728
7.75999989360571 735
7.77999989315867 734
7.79999989271164 733
7.8199998922646 817
7.83999989181757 722
7.85999989137053 724
7.8799998909235 763
7.89999989047646 749
7.91999989002943 787
7.9399998895824 754
7.95999988913536 725
7.97999988868833 759
7.99999988824129 731
8.01999988779426 773
8.03999988734722 749
8.05999988690019 745
8.07999988645315 762
8.09999988600612 712
8.11999988555908 804
8.13999988511205 765
8.15999988466501 761
8.17999988421798 713
8.19999988377094 753
8.21999988332391 748
8.23999988287687 753
8.25999988242984 767
8.2799998819828 760
8.29999988153577 749
8.31999988108873 761
8.3399998806417 767
8.35999988019466 761
8.37999987974763 753
8.39999987930059 742
8.41999987885356 826
8.43999987840652 755
8.45999987795949 819
8.47999987751245 842
8.49999987706542 751
8.51999987661839 753
8.53999987617135 770
8.55999987572432 782
8.57999987527728 755
8.59999987483025 788
8.61999987438321 770
8.63999987393618 803
8.65999987348914 755
8.67999987304211 768
8.69999987259507 820
8.71999987214804 829
8.739999871701 815
8.75999987125397 824
8.77999987080693 880
8.7999998703599 859
8.81999986991286 917
8.83999986946583 852
8.85999986901879 953
8.87999986857176 973
8.89999986812472 1078
8.91999986767769 1135
8.93999986723065 1272
8.95999986678362 1378
8.97999986633658 1574
8.99999986588955 1660
9.01999986544251 1741
9.03999986499548 1631
9.05999986454844 1425
9.07999986410141 1215
9.09999986365438 1009
9.11999986320734 912
9.13999986276031 748
9.15999986231327 797
9.17999986186624 758
9.1999998614192 760
9.21999986097217 772
9.23999986052513 793
9.2599998600781 735
9.27999985963106 766
9.29999985918403 766
9.31999985873699 734
9.33999985828996 765
9.35999985784292 771
9.37999985739589 784
9.39999985694885 771
9.41999985650182 736
9.43999985605478 733
9.45999985560775 773
9.47999985516071 769
9.49999985471368 814
9.51999985426664 751
9.53999985381961 754
9.55999985337257 831
9.57999985292554 800
9.5999998524785 849
9.61999985203147 793
9.63999985158443 792
9.6599998511374 778
9.67999985069037 803
9.69999985024333 811
9.7199998497963 869
9.73999984934926 854
9.75999984890223 863
9.77999984845519 851
9.79999984800816 908
9.81999984756112 901
9.83999984711409 877
9.85999984666705 986
9.87999984622002 1018
9.89999984577298 1068
9.91999984532595 1204
9.93999984487891 1248
9.95999984443188 1277
9.97999984398484 1290
9.99999984353781 1182
10.0199998430908 1001
10.0399998426437 882
10.0599998421967 814
10.0799998417497 783
10.0999998413026 735
10.1199998408556 802
10.1399998404086 746
10.1599998399615 743
10.1799998395145 727
10.1999998390675 756
10.2199998386204 759
10.2399998381734 785
10.2599998377264 755
10.2799998372793 747
10.2999998368323 739
10.3199998363853 736
10.3399998359382 695
10.3599998354912 705
10.3799998350441 707
10.3999998345971 785
10.4199998341501 717
10.439999833703 737
10.459999833256 756
10.479999832809 753
10.4999998323619 723
10.5199998319149 708
10.5399998314679 706
10.5599998310208 703
10.5799998305738 732
10.5999998301268 713
10.6199998296797 761
10.6399998292327 750
10.6599998287857 695
10.6799998283386 778
10.6999998278916 712
10.7199998274446 680
10.7399998269975 704
10.7599998265505 671
10.7799998261034 690
10.7999998256564 701
10.8199998252094 687
10.8399998247623 758
10.8599998243153 709
10.8799998238683 652
10.8999998234212 764
10.9199998229742 744
10.9399998225272 742
10.9599998220801 761
10.9799998216331 686
10.9999998211861 736
11.019999820739 754
11.039999820292 741
11.059999819845 762
11.0799998193979 735
11.0999998189509 732
11.1199998185039 739
11.1399998180568 678
11.1599998176098 742
11.1799998171628 744
11.1999998167157 714
11.2199998162687 742
11.2399998158216 742
11.2599998153746 761
11.2799998149276 726
11.2999998144805 718
11.3199998140335 702
11.3399998135865 730
11.3599998131394 740
11.3799998126924 730
11.3999998122454 692
11.4199998117983 672
11.4399998113513 730
11.4599998109043 766
11.4799998104572 701
11.4999998100102 730
11.5199998095632 794
11.5399998091161 680
11.5599998086691 721
11.5799998082221 724
11.599999807775 716
11.619999807328 677
11.639999806881 733
11.6599998064339 710
11.6799998059869 742
11.6999998055398 763
11.7199998050928 737
11.7399998046458 752
11.7599998041987 690
11.7799998037517 721
11.7999998033047 720
11.8199998028576 713
11.8399998024106 714
11.8599998019636 747
11.8799998015165 721
11.8999998010695 725
11.9199998006225 716
11.9399998001754 756
11.9599997997284 717
11.9799997992814 682
11.9999997988343 710
12.0199997983873 700
12.0399997979403 710
12.0599997974932 715
12.0799997970462 717
12.0999997965992 729
12.1199997961521 709
12.1399997957051 748
12.159999795258 721
12.179999794811 771
12.199999794364 697
12.2199997939169 687
12.2399997934699 759
12.2599997930229 746
12.2799997925758 751
12.2999997921288 717
12.3199997916818 721
12.3399997912347 657
12.3599997907877 725
12.3799997903407 694
12.3999997898936 729
12.4199997894466 770
12.4399997889996 729
12.4599997885525 732
12.4799997881055 770
12.4999997876585 797
12.5199997872114 733
12.5399997867644 689
12.5599997863173 729
12.5799997858703 741
12.5999997854233 689
12.6199997849762 711
12.6399997845292 753
12.6599997840822 778
12.6799997836351 804
12.6999997831881 789
12.7199997827411 805
12.739999782294 801
12.759999781847 812
12.7799997814 805
12.7999997809529 750
12.8199997805059 736
12.8399997800589 726
12.8599997796118 739
12.8799997791648 712
12.8999997787178 722
12.9199997782707 705
12.9399997778237 726
12.9599997773767 711
12.9799997769296 739
12.9999997764826 731
13.0199997760355 736
13.0399997755885 770
13.0599997751415 737
13.0799997746944 746
13.0999997742474 719
13.1199997738004 782
13.1399997733533 774
13.1599997729063 773
13.1799997724593 768
13.1999997720122 748
13.2199997715652 760
13.2399997711182 760
13.2599997706711 788
13.2799997702241 802
13.2999997697771 809
13.31999976933 826
13.339999768883 895
13.359999768436 863
13.3799997679889 839
13.3999997675419 935
13.4199997670949 932
13.4399997666478 920
13.4599997662008 889
13.4799997657537 874
13.4999997653067 851
13.5199997648597 820
13.5399997644126 768
13.5599997639656 777
13.5799997635186 805
13.5999997630715 739
13.6199997626245 813
13.6399997621775 800
13.6599997617304 718
13.6799997612834 793
13.6999997608364 705
13.7199997603893 760
13.7399997599423 757
13.7599997594953 761
13.7799997590482 769
13.7999997586012 760
13.8199997581542 751
13.8399997577071 780
13.8599997572601 729
13.879999756813 755
13.899999756366 740
13.919999755919 759
13.9399997554719 755
13.9599997550249 778
13.9799997545779 767
13.9999997541308 761
14.0199997536838 773
14.0399997532368 759
14.0599997527897 731
14.0799997523427 776
14.0999997518957 766
14.1199997514486 756
14.1399997510016 745
14.1599997505546 782
14.1799997501075 722
14.1999997496605 788
14.2199997492135 778
14.2399997487664 765
14.2599997483194 791
14.2799997478724 782
14.2999997474253 783
14.3199997469783 772
14.3399997465312 759
14.3599997460842 771
14.3799997456372 770
14.3999997451901 777
14.4199997447431 747
14.4399997442961 821
14.459999743849 776
14.479999743402 801
14.499999742955 779
14.5199997425079 811
14.5399997420609 784
14.5599997416139 761
14.5799997411668 780
14.5999997407198 814
14.6199997402728 791
14.6399997398257 784
14.6599997393787 804
14.6799997389317 787
14.6999997384846 780
14.7199997380376 773
14.7399997375906 806
14.7599997371435 789
14.7799997366965 817
14.7999997362494 829
14.8199997358024 792
14.8399997353554 821
14.8599997349083 771
14.8799997344613 815
14.8999997340143 812
14.9199997335672 838
14.9399997331202 848
14.9599997326732 826
14.9799997322261 833
14.9999997317791 768
15.0199997313321 837
15.039999730885 805
15.059999730438 835
15.079999729991 781
15.0999997295439 824
15.1199997290969 816
15.1399997286499 869
15.1599997282028 860
15.1799997277558 803
15.1999997273088 803
15.2199997268617 853
15.2399997264147 866
15.2599997259676 895
15.2799997255206 875
15.2999997250736 859
15.3199997246265 843
15.3399997241795 819
15.3599997237325 810
15.3799997232854 832
15.3999997228384 782
15.4199997223914 830
15.4399997219443 840
15.4599997214973 857
15.4799997210503 808
15.4999997206032 839
15.5199997201562 858
15.5399997197092 847
15.5599997192621 852
15.5799997188151 790
15.5999997183681 855
15.619999717921 875
15.639999717474 842
15.659999717027 821
15.6799997165799 834
15.6999997161329 871
15.7199997156858 868
15.7399997152388 914
15.7599997147918 871
15.7799997143447 916
15.7999997138977 846
15.8199997134507 841
15.8399997130036 881
15.8599997125566 909
15.8799997121096 857
15.8999997116625 864
15.9199997112155 838
15.9399997107685 854
15.9599997103214 884
15.9799997098744 868
15.9999997094274 839
16.0199997089803 925
16.0399997085333 918
16.0599997080863 851
16.0799997076392 937
16.0999997071922 882
16.1199997067451 888
16.1399997062981 875
16.1599997058511 888
16.179999705404 865
16.199999704957 937
16.21999970451 906
16.2399997040629 904
16.2599997036159 933
16.2799997031689 875
16.2999997027218 884
16.3199997022748 921
16.3399997018278 947
16.3599997013807 900
16.3799997009337 840
16.3999997004867 879
16.4199997000396 940
16.4399996995926 913
16.4599996991456 1023
16.4799996986985 959
16.4999996982515 969
16.5199996978045 929
16.5399996973574 977
16.5599996969104 961
16.5799996964633 965
16.5999996960163 1011
16.6199996955693 983
16.6399996951222 995
16.6599996946752 996
16.6799996942282 947
16.6999996937811 1037
16.7199996933341 1089
16.7399996928871 1025
16.75999969244 1046
16.779999691993 1113
16.799999691546 1134
16.8199996910989 1177
16.8399996906519 1178
16.8599996902049 1317
16.8799996897578 1346
16.8999996893108 1425
16.9199996888638 1603
16.9399996884167 1763
16.9599996879697 1834
16.9799996875226 1903
16.9999996870756 1864
17.0199996866286 1780
17.0399996861815 1611
17.0599996857345 1493
17.0799996852875 1287
17.0999996848404 1187
17.1199996843934 1166
17.1399996839464 1087
17.1599996834993 1016
17.1799996830523 1016
17.1999996826053 1047
17.2199996821582 1056
17.2399996817112 1046
17.2599996812642 1055
17.2799996808171 1022
17.2999996803701 1006
17.3199996799231 1059
17.339999679476 1041
17.359999679029 996
17.379999678582 1039
17.3999996781349 1005
17.4199996776879 1072
17.4399996772408 1059
17.4599996767938 1045
17.4799996763468 1000
17.4999996758997 1016
17.5199996754527 1064
17.5399996750057 1010
17.5599996745586 1025
17.5799996741116 1063
17.5999996736646 1082
17.6199996732175 1038
17.6399996727705 1037
17.6599996723235 1096
17.6799996718764 1024
17.6999996714294 1030
17.7199996709824 1101
17.7399996705353 1188
17.7599996700883 1130
17.7799996696413 1073
17.7999996691942 1090
17.8199996687472 1135
17.8399996683002 1087
17.8599996678531 1062
17.8799996674061 1122
17.899999666959 1033
17.919999666512 1094
17.939999666065 1158
17.9599996656179 1163
17.9799996651709 1147
17.9999996647239 1086
18.0199996642768 1144
18.0399996638298 1114
18.0599996633828 1125
18.0799996629357 1126
18.0999996624887 1141
18.1199996620417 1070
18.1399996615946 1138
18.1599996611476 1136
18.1799996607006 1125
18.1999996602535 1135
18.2199996598065 1125
18.2399996593595 1166
18.2599996589124 1134
18.2799996584654 1149
18.2999996580184 1210
18.3199996575713 1205
18.3399996571243 1195
18.3599996566772 1103
18.3799996562302 1159
18.3999996557832 1208
18.4199996553361 1131
18.4399996548891 1200
18.4599996544421 1149
18.479999653995 1170
18.499999653548 1211
18.519999653101 1177
18.5399996526539 1261
18.5599996522069 1218
18.5799996517599 1186
18.5999996513128 1177
18.6199996508658 1180
18.6399996504188 1174
18.6599996499717 1197
18.6799996495247 1203
18.6999996490777 1240
18.7199996486306 1187
18.7399996481836 1161
18.7599996477366 1247
18.7799996472895 1205
18.7999996468425 1208
18.8199996463954 1252
18.8399996459484 1213
18.8599996455014 1216
18.8799996450543 1170
18.8999996446073 1262
18.9199996441603 1247
18.9399996437132 1264
18.9599996432662 1282
18.9799996428192 1245
18.9999996423721 1294
19.0199996419251 1240
19.0399996414781 1197
19.059999641031 1267
19.079999640584 1295
19.099999640137 1282
19.1199996396899 1254
19.1399996392429 1246
19.1599996387959 1250
19.1799996383488 1289
19.1999996379018 1242
19.2199996374547 1275
19.2399996370077 1267
19.2599996365607 1257
19.2799996361136 1270
19.2999996356666 1251
19.3199996352196 1299
19.3399996347725 1261
19.3599996343255 1301
19.3799996338785 1298
19.3999996334314 1322
19.4199996329844 1305
19.4399996325374 1349
19.4599996320903 1279
19.4799996316433 1320
19.4999996311963 1383
19.5199996307492 1378
19.5399996303022 1344
19.5599996298552 1355
19.5799996294081 1334
19.5999996289611 1398
19.6199996285141 1318
19.639999628067 1314
19.65999962762 1372
19.6799996271729 1362
19.6999996267259 1360
19.7199996262789 1406
19.7399996258318 1386
19.7599996253848 1371
19.7799996249378 1336
19.7999996244907 1389
19.8199996240437 1322
19.8399996235967 1375
19.8599996231496 1426
19.8799996227026 1392
19.8999996222556 1416
19.9199996218085 1455
19.9399996213615 1441
19.9599996209145 1448
19.9799996204674 1458
19.9999996200204 1418
