3 3394
3.01999999955297 3335
3.03999999910593 3142
3.0599999986589 2966
3.07999999821186 2902
3.09999999776483 2874
3.11999999731779 2750
3.13999999687076 2640
3.15999999642372 2622
3.17999999597669 2643
3.19999999552965 2600
3.21999999508262 2594
3.23999999463558 2547
3.25999999418855 2512
3.27999999374151 2448
3.29999999329448 2446
3.31999999284744 2498
3.33999999240041 2449
3.35999999195337 2455
3.37999999150634 2343
3.3999999910593 2361
3.41999999061227 2417
3.43999999016523 2452
3.4599999897182 2353
3.47999998927116 2352
3.49999998882413 2409
3.51999998837709 2340
3.53999998793006 2224
3.55999998748302 2261
3.57999998703599 2197
3.59999998658895 2258
3.61999998614192 2261
3.63999998569489 2219
3.65999998524785 2266
3.67999998480082 2232
3.69999998435378 2187
3.71999998390675 2251
3.73999998345971 2094
3.75999998301268 2241
3.77999998256564 2168
3.79999998211861 2100
3.81999998167157 2230
3.83999998122454 2155
3.8599999807775 2220
3.87999998033047 2070
3.89999997988343 2185
3.9199999794364 2110
3.93999997898936 2146
3.95999997854233 2171
3.97999997809529 2050
3.99999997764826 2139
4.01999997720122 2152
4.03999997675419 2138
4.05999997630715 2136
4.07999997586012 2101
4.09999997541308 2149
4.11999997496605 2117
4.13999997451901 2092
4.15999997407198 2063
4.17999997362494 1987
4.19999997317791 2102
4.21999997273087 2009
4.23999997228384 2087
4.25999997183681 2086
4.27999997138977 2067
4.29999997094274 2019
4.3199999704957 2000
4.33999997004867 2111
4.35999996960163 2078
4.3799999691546 2102
4.39999996870756 2111
4.41999996826053 2089
4.43999996781349 2035
4.45999996736646 2070
4.47999996691942 2051
4.49999996647239 2079
4.51999996602535 2044
4.53999996557832 2073
4.55999996513128 2049
4.57999996468425 2039
4.59999996423721 2033
4.61999996379018 2030
4.63999996334314 1965
4.65999996289611 2046
4.67999996244907 2020
4.69999996200204 2050
4.719999961555 2055
4.73999996110797 1964
4.75999996066093 2075
4.7799999602139 2009
4.79999995976686 2053
4.81999995931983 1936
4.83999995887279 1937
4.85999995842576 1962
4.87999995797873 1988
4.89999995753169 1889
4.91999995708466 2005
4.93999995663762 1973
4.95999995619059 1907
4.97999995574355 1997
4.99999995529652 1928
5.01999995484948 1969
5.03999995440245 1970
5.05999995395541 2042
5.07999995350838 1995
5.09999995306134 1959
5.11999995261431 1901
5.13999995216727 1993
5.15999995172024 1954
5.1799999512732 2004
5.19999995082617 2014
5.21999995037913 1980
5.2399999499321 2010
5.25999994948506 2034
5.27999994903803 2120
5.29999994859099 1999
5.31999994814396 2125
5.33999994769692 2116
5.35999994724989 2201
5.37999994680285 2343
5.39999994635582 2390
5.41999994590878 2375
5.43999994546175 2401
5.45999994501471 2247
5.47999994456768 2193
5.49999994412065 2177
5.51999994367361 2090
5.53999994322658 1961
5.55999994277954 1925
5.57999994233251 1873
5.59999994188547 1875
5.61999994143844 1896
5.6399999409914 1811
5.65999994054437 1739
5.67999994009733 1700
5.6999999396503 1684
5.71999993920326 1697
5.73999993875623 1739
5.75999993830919 1769
5.77999993786216 1654
5.79999993741512 1590
5.81999993696809 1566
5.83999993652105 1548
5.85999993607402 1466
5.87999993562698 1532
5.89999993517995 1458
5.91999993473291 1400
5.93999993428588 1393
5.95999993383884 1353
5.97999993339181 1381
5.99999993294477 1380
6.01999993249774 1368
6.0399999320507 1304
6.05999993160367 1366
6.07999993115663 1332
6.0999999307096 1263
6.11999993026257 1277
6.13999992981553 1310
6.1599999293685 1256
6.17999992892146 1298
6.19999992847443 1241
6.21999992802739 1232
6.23999992758036 1205
6.25999992713332 1184
6.27999992668629 1141
6.29999992623925 1228
6.31999992579222 1164
6.33999992534518 1150
6.35999992489815 1171
6.37999992445111 1153
6.39999992400408 1133
6.41999992355704 1138
6.43999992311001 1143
6.45999992266297 1207
6.47999992221594 1169
6.4999999217689 1114
6.51999992132187 1097
6.53999992087483 1087
6.5599999204278 1083
6.57999991998076 1077
6.59999991953373 1067
6.61999991908669 1041
6.63999991863966 1066
6.65999991819262 1051
6.67999991774559 1028
6.69999991729855 1021
6.71999991685152 1005
6.73999991640449 1083
6.75999991595745 1020
6.77999991551042 1066
6.79999991506338 1002
6.81999991461635 1051
6.83999991416931 998
6.85999991372228 1044
6.87999991327524 1012
6.89999991282821 1056
6.91999991238117 956
6.93999991193414 992
6.9599999114871 954
6.97999991104007 942
6.99999991059303 989
7.019999910146 994
7.03999990969896 968
7.05999990925193 971
7.07999990880489 969
7.09999990835786 914
7.11999990791082 980
7.13999990746379 942
7.15999990701675 965
7.17999990656972 950
7.19999990612268 955
7.21999990567565 948
7.23999990522861 928
7.25999990478158 945
7.27999990433454 934
7.29999990388751 908
7.31999990344047 921
7.33999990299344 891
7.35999990254641 925
7.37999990209937 902
7.39999990165234 925
7.4199999012053 876
7.43999990075827 904
7.45999990031123 874
7.4799998998642 859
7.49999989941716 938
7.51999989897013 888
7.53999989852309 872
7.55999989807606 869
7.57999989762902 873
7.59999989718199 884
7.61999989673495 867
7.63999989628792 847
7.65999989584088 846
7.67999989539385 940
7.69999989494681 841
7.71999989449978 860
7.73999989405274 900
7.75999989360571 828
7.77999989315867 822
7.79999989271164 860
7.8199998922646 818
7.83999989181757 785
7.85999989137053 851
7.8799998909235 892
7.89999989047646 868
7.91999989002943 839
7.9399998895824 852
7.95999988913536 839
7.97999988868833 790
7.99999988824129 887
8.01999988779426 822
8.03999988734722 864
8.05999988690019 767
8.07999988645315 837
8.09999988600612 825
8.11999988555908 776
8.13999988511205 837
8.15999988466501 784
8.17999988421798 790
8.19999988377094 866
8.21999988332391 821
8.23999988287687 800
8.25999988242984 807
8.2799998819828 789
8.29999988153577 773
8.31999988108873 777
8.3399998806417 806
8.35999988019466 800
8.37999987974763 784
8.39999987930059 766
8.41999987885356 812
8.43999987840652 810
8.45999987795949 770
8.47999987751245 791
8.49999987706542 782
8.51999987661839 787
8.53999987617135 768
8.55999987572432 765
8.57999987527728 772
8.59999987483025 759
8.61999987438321 776
8.63999987393618 784
8.65999987348914 726
8.67999987304211 791
8.69999987259507 782
8.71999987214804 728
8.739999871701 761
8.75999987125397 772
8.77999987080693 739
8.7999998703599 738
8.81999986991286 786
8.83999986946583 752
8.85999986901879 732
8.87999986857176 741
8.89999986812472 734
8.91999986767769 769
8.93999986723065 778
8.95999986678362 757
8.97999986633658 781
8.99999986588955 751
9.01999986544251 794
9.03999986499548 793
9.05999986454844 752
9.07999986410141 792
9.09999986365438 836
9.11999986320734 825
9.13999986276031 766
9.15999986231327 789
9.17999986186624 733
9.1999998614192 758
9.21999986097217 787
9.23999986052513 842
9.2599998600781 816
9.27999985963106 894
9.29999985918403 948
9.31999985873699 1004
9.33999985828996 922
9.35999985784292 943
9.37999985739589 931
9.39999985694885 917
9.41999985650182 850
9.43999985605478 865
9.45999985560775 784
9.47999985516071 800
9.49999985471368 778
9.51999985426664 730
9.53999985381961 765
9.55999985337257 732
9.57999985292554 747
9.5999998524785 734
9.61999985203147 732
9.63999985158443 748
9.6599998511374 685
9.67999985069037 700
9.69999985024333 728
9.7199998497963 701
9.73999984934926 662
9.75999984890223 705
9.77999984845519 701
9.79999984800816 685
9.81999984756112 743
9.83999984711409 680
9.85999984666705 684
9.87999984622002 732
9.89999984577298 672
9.91999984532595 731
9.93999984487891 671
9.95999984443188 650
9.97999984398484 666
9.99999984353781 693
10.0199998430908 657
10.0399998426437 690
10.0599998421967 664
10.0799998417497 686
10.0999998413026 698
10.1199998408556 740
10.1399998404086 640
10.1599998399615 677
10.1799998395145 634
10.1999998390675 713
10.2199998386204 663
10.2399998381734 651
10.2599998377264 669
10.2799998372793 630
10.2999998368323 634
10.3199998363853 706
10.3399998359382 685
10.3599998354912 604
10.3799998350441 620
10.3999998345971 673
10.4199998341501 649
10.439999833703 603
10.459999833256 627
10.479999832809 675
10.4999998323619 639
10.5199998319149 679
10.5399998314679 638
10.5599998310208 661
10.5799998305738 624
10.5999998301268 662
10.6199998296797 636
10.6399998292327 639
10.6599998287857 674
10.6799998283386 710
10.6999998278916 686
10.7199998274446 666
10.7399998269975 683
10.7599998265505 693
10.7799998261034 757
10.7999998256564 724
10.8199998252094 735
10.8399998247623 736
10.8599998243153 708
10.8799998238683 674
10.8999998234212 660
10.9199998229742 759
10.9399998225272 665
10.9599998220801 648
10.9799998216331 646
10.9999998211861 673
11.019999820739 693
11.039999820292 628
11.059999819845 624
11.0799998193979 636
11.0999998189509 602
11.1199998185039 646
11.1399998180568 648
11.1599998176098 642
11.1799998171628 590
11.1999998167157 629
11.2199998162687 576
11.2399998158216 614
11.2599998153746 588
11.2799998149276 640
11.2999998144805 657
11.3199998140335 588
11.3399998135865 580
11.3599998131394 603
11.3799998126924 593
11.3999998122454 578
11.4199998117983 615
11.4399998113513 643
11.4599998109043 568
11.4799998104572 626
11.4999998100102 585
11.5199998095632 595
11.5399998091161 573
11.5599998086691 631
11.5799998082221 586
11.599999807775 607
11.619999807328 618
11.639999806881 544
11.6599998064339 606
11.6799998059869 570
11.6999998055398 555
11.7199998050928 618
11.7399998046458 573
11.7599998041987 578
11.7799998037517 607
11.7999998033047 569
11.8199998028576 594
11.8399998024106 612
11.8599998019636 617
11.8799998015165 588
11.8999998010695 561
11.9199998006225 593
11.9399998001754 599
11.9599997997284 584
11.9799997992814 583
11.9999997988343 598
12.0199997983873 582
12.0399997979403 592
12.0599997974932 613
12.0799997970462 574
12.0999997965992 645
12.1199997961521 573
12.1399997957051 554
12.159999795258 539
12.179999794811 553
12.199999794364 533
12.2199997939169 546
12.2399997934699 578
12.2599997930229 563
12.2799997925758 597
12.2999997921288 562
12.3199997916818 607
12.3399997912347 602
12.3599997907877 544
12.3799997903407 563
12.3999997898936 533
12.4199997894466 566
12.4399997889996 550
12.4599997885525 595
12.4799997881055 556
12.4999997876585 551
12.5199997872114 578
12.5399997867644 566
12.5599997863173 567
12.5799997858703 553
12.5999997854233 584
12.6199997849762 523
12.6399997845292 547
12.6599997840822 523
12.6799997836351 586
12.6999997831881 560
12.7199997827411 507
12.739999782294 546
12.759999781847 563
12.7799997814 571
12.7999997809529 570
12.8199997805059 586
12.8399997800589 534
12.8599997796118 601
12.8799997791648 556
12.8999997787178 554
12.9199997782707 569
12.9399997778237 515
12.9599997773767 596
12.9799997769296 544
12.9999997764826 571
13.0199997760355 588
13.0399997755885 556
13.0599997751415 553
13.0799997746944 585
13.0999997742474 557
13.1199997738004 579
13.1399997733533 578
13.1599997729063 579
13.1799997724593 620
13.1999997720122 629
13.2199997715652 605
13.2399997711182 657
13.2599997706711 681
13.2799997702241 701
13.2999997697771 723
13.31999976933 666
13.339999768883 626
13.359999768436 616
13.3799997679889 584
13.3999997675419 574
13.4199997670949 542
13.4399997666478 560
13.4599997662008 607
13.4799997657537 598
13.4999997653067 544
13.5199997648597 578
13.5399997644126 540
13.5599997639656 554
13.5799997635186 548
13.5999997630715 508
13.6199997626245 571
13.6399997621775 550
13.6599997617304 515
13.6799997612834 520
13.6999997608364 597
13.7199997603893 548
13.7399997599423 580
13.7599997594953 528
13.7799997590482 556
13.7999997586012 586
13.8199997581542 556
13.8399997577071 532
13.8599997572601 513
13.879999756813 554
13.899999756366 560
13.919999755919 568
13.9399997554719 567
13.9599997550249 547
13.9799997545779 548
13.9999997541308 519
14.0199997536838 558
14.0399997532368 551
14.0599997527897 516
14.0799997523427 546
14.0999997518957 566
14.1199997514486 575
14.1399997510016 567
14.1599997505546 539
14.1799997501075 578
14.1999997496605 581
14.2199997492135 554
14.2399997487664 542
14.2599997483194 567
14.2799997478724 519
14.2999997474253 583
14.3199997469783 579
14.3399997465312 592
14.3599997460842 539
14.3799997456372 544
14.3999997451901 570
14.4199997447431 536
14.4399997442961 541
14.459999743849 565
14.479999743402 525
14.499999742955 541
14.5199997425079 544
14.5399997420609 542
14.5599997416139 544
14.5799997411668 539
14.5999997407198 578
14.6199997402728 515
14.6399997398257 519
14.6599997393787 541
14.6799997389317 535
14.6999997384846 580
14.7199997380376 574
14.7399997375906 572
14.7599997371435 549
14.7799997366965 574
14.7999997362494 549
14.8199997358024 553
14.8399997353554 537
14.8599997349083 524
14.8799997344613 532
14.8999997340143 536
14.9199997335672 583
14.9399997331202 548
14.9599997326732 522
14.9799997322261 558
14.9999997317791 545
15.0199997313321 549
15.039999730885 552
15.059999730438 598
15.079999729991 557
15.0999997295439 553
15.1199997290969 538
15.1399997286499 562
15.1599997282028 584
15.1799997277558 597
15.1999997273088 569
15.2199997268617 565
15.2399997264147 566
15.2599997259676 597
15.2799997255206 599
15.2999997250736 604
15.3199997246265 608
15.3399997241795 601
15.3599997237325 636
15.3799997232854 647
15.3999997228384 529
15.4199997223914 580
15.4399997219443 540
15.4599997214973 582
15.4799997210503 576
15.4999997206032 560
15.5199997201562 560
15.5399997197092 535
15.5599997192621 576
15.5799997188151 628
15.5999997183681 546
15.619999717921 603
15.639999717474 578
15.659999717027 559
15.6799997165799 600
15.6999997161329 549
15.7199997156858 578
15.7399997152388 574
15.7599997147918 583
15.7799997143447 534
15.7999997138977 566
15.8199997134507 602
15.8399997130036 549
15.8599997125566 551
15.8799997121096 581
15.8999997116625 535
15.9199997112155 600
15.9399997107685 564
15.9599997103214 521
15.9799997098744 568
15.9999997094274 558
16.0199997089803 603
16.0399997085333 557
16.0599997080863 593
16.0799997076392 627
16.0999997071922 591
16.1199997067451 586
16.1399997062981 582
16.1599997058511 595
16.179999705404 575
16.199999704957 586
16.21999970451 597
16.2399997040629 642
16.2599997036159 628
16.2799997031689 644
16.2999997027218 634
16.3199997022748 664
16.3399997018278 665
16.3599997013807 638
16.3799997009337 663
16.3999997004867 641
16.4199997000396 648
16.4399996995926 698
16.4599996991456 682
16.4799996986985 734
16.4999996982515 741
16.5199996978045 714
16.5399996973574 689
16.5599996969104 758
16.5799996964633 826
16.5999996960163 836
16.6199996955693 861
16.6399996951222 891
16.6599996946752 947
16.6799996942282 952
16.6999996937811 1091
16.7199996933341 1175
16.7399996928871 1288
16.75999969244 1442
16.779999691993 1611
16.799999691546 1860
16.8199996910989 2185
16.8399996906519 2490
16.8599996902049 2866
16.8799996897578 3424
16.8999996893108 4035
16.9199996888638 4925
16.9399996884167 5865
16.9599996879697 6905
16.9799996875226 7860
16.9999996870756 8454
17.0199996866286 8436
17.0399996861815 7614
17.0599996857345 6346
17.0799996852875 5092
17.0999996848404 3859
17.1199996843934 2847
17.1399996839464 2120
17.1599996834993 1661
17.1799996830523 1289
17.1999996826053 1118
17.2199996821582 1002
17.2399996817112 935
17.2599996812642 892
17.2799996808171 815
17.2999996803701 793
17.3199996799231 726
17.339999679476 744
17.359999679029 725
17.379999678582 697
17.3999996781349 708
17.4199996776879 769
17.4399996772408 713
17.4599996767938 720
17.4799996763468 671
17.4999996758997 727
17.5199996754527 711
17.5399996750057 694
17.5599996745586 681
17.5799996741116 682
17.5999996736646 709
17.6199996732175 708
17.6399996727705 631
17.6599996723235 705
17.6799996718764 629
17.6999996714294 675
17.7199996709824 663
17.7399996705353 661
17.7599996700883 663
17.7799996696413 655
17.7999996691942 681
17.8199996687472 698
17.8399996683002 683
17.8599996678531 689
17.8799996674061 673
17.899999666959 672
17.919999666512 707
17.939999666065 654
17.9599996656179 668
17.9799996651709 672
17.9999996647239 675
18.0199996642768 697
18.0399996638298 628
18.0599996633828 644
18.0799996629357 680
18.0999996624887 658
18.1199996620417 642
18.1399996615946 627
18.1599996611476 619
18.1799996607006 623
18.1999996602535 635
18.2199996598065 682
18.2399996593595 686
18.2599996589124 627
18.2799996584654 662
18.2999996580184 645
18.3199996575713 676
18.3399996571243 694
18.3599996566772 690
18.3799996562302 626
18.3999996557832 666
18.4199996553361 639
18.4399996548891 701
18.4599996544421 706
18.479999653995 685
18.499999653548 638
18.519999653101 676
18.5399996526539 694
18.5599996522069 660
18.5799996517599 666
18.5999996513128 645
18.6199996508658 700
18.6399996504188 704
18.6599996499717 660
18.6799996495247 710
18.6999996490777 672
18.7199996486306 647
18.7399996481836 679
18.7599996477366 699
18.7799996472895 628
18.7999996468425 666
18.8199996463954 691
18.8399996459484 694
18.8599996455014 676
18.8799996450543 740
18.8999996446073 662
18.9199996441603 703
18.9399996437132 664
18.9599996432662 728
18.9799996428192 735
18.9999996423721 699
19.0199996419251 656
19.0399996414781 733
19.059999641031 699
19.079999640584 739
19.099999640137 669
19.1199996396899 709
19.1399996392429 661
19.1599996387959 687
19.1799996383488 727
19.1999996379018 677
19.2199996374547 681
19.2399996370077 729
19.2599996365607 679
19.2799996361136 716
19.2999996356666 707
19.3199996352196 688
19.3399996347725 682
19.3599996343255 681
19.3799996338785 736
19.3999996334314 794
19.4199996329844 736
19.4399996325374 708
19.4599996320903 747
19.4799996316433 710
19.4999996311963 699
19.5199996307492 699
19.5399996303022 704
19.5599996298552 708
19.5799996294081 750
19.5999996289611 680
19.6199996285141 694
19.639999628067 702
19.65999962762 739
19.6799996271729 711
19.6999996267259 746
19.7199996262789 718
19.7399996258318 742
19.7599996253848 722
19.7799996249378 709
19.7999996244907 745
19.8199996240437 733
19.8399996235967 777
19.8599996231496 742
19.8799996227026 691
19.8999996222556 706
19.9199996218085 758
19.9399996213615 758
19.9599996209145 725
19.9799996204674 706
19.9999996200204 692
