3 2189
3.01999999955297 1973
3.03999999910593 1896
3.0599999986589 1876
3.07999999821186 1668
3.09999999776483 1675
3.11999999731779 1591
3.13999999687076 1609
3.15999999642372 1629
3.17999999597669 1515
3.19999999552965 1505
3.21999999508262 1482
3.23999999463558 1533
3.25999999418855 1521
3.27999999374151 1481
3.29999999329448 1420
3.31999999284744 1391
3.33999999240041 1382
3.35999999195337 1393
3.37999999150634 1367
3.3999999910593 1361
3.41999999061227 1370
3.43999999016523 1291
3.4599999897182 1425
3.47999998927116 1311
3.49999998882413 1386
3.51999998837709 1275
3.53999998793006 1243
3.55999998748302 1238
3.57999998703599 1243
3.59999998658895 1237
3.61999998614192 1236
3.63999998569489 1235
3.65999998524785 1258
3.67999998480082 1167
3.69999998435378 1185
3.71999998390675 1217
3.73999998345971 1228
3.75999998301268 1100
3.77999998256564 1161
3.79999998211861 1145
3.81999998167157 1081
3.83999998122454 1078
3.8599999807775 1190
3.87999998033047 1117
3.89999997988343 1142
3.9199999794364 1092
3.93999997898936 1077
3.95999997854233 1059
3.97999997809529 1062
3.99999997764826 1052
4.01999997720122 997
4.03999997675419 1051
4.05999997630715 1013
4.07999997586012 963
4.09999997541308 1048
4.11999997496605 1012
4.13999997451901 998
4.15999997407198 1055
4.17999997362494 969
4.19999997317791 986
4.21999997273087 945
4.23999997228384 944
4.25999997183681 953
4.27999997138977 958
4.29999997094274 951
4.3199999704957 915
4.33999997004867 898
4.35999996960163 929
4.3799999691546 935
4.39999996870756 958
4.41999996826053 868
4.43999996781349 864
4.45999996736646 862
4.47999996691942 852
4.49999996647239 851
4.51999996602535 891
4.53999996557832 861
4.55999996513128 814
4.57999996468425 804
4.59999996423721 812
4.61999996379018 839
4.63999996334314 840
4.65999996289611 817
4.67999996244907 858
4.69999996200204 839
4.719999961555 828
4.73999996110797 793
4.75999996066093 836
4.7799999602139 770
4.79999995976686 771
4.81999995931983 758
4.83999995887279 814
4.85999995842576 796
4.87999995797873 813
4.89999995753169 779
4.91999995708466 821
4.93999995663762 821
4.95999995619059 795
4.97999995574355 793
4.99999995529652 799
5.01999995484948 785
5.03999995440245 807
5.05999995395541 847
5.07999995350838 838
5.09999995306134 862
5.11999995261431 887
5.13999995216727 852
5.15999995172024 860
5.1799999512732 918
5.19999995082617 938
5.21999995037913 980
5.2399999499321 1010
5.25999994948506 1018
5.27999994903803 1092
5.29999994859099 1050
5.31999994814396 1120
5.33999994769692 1214
5.35999994724989 1277
5.37999994680285 1356
5.39999994635582 1426
5.41999994590878 1598
5.43999994546175 1748
5.45999994501471 1841
5.47999994456768 2060
5.49999994412065 2117
5.51999994367361 2219
5.53999994322658 2114
5.55999994277954 1893
5.57999994233251 1546
5.59999994188547 1304
5.61999994143844 1143
5.6399999409914 1119
5.65999994054437 1166
5.67999994009733 1092
5.6999999396503 1091
5.71999993920326 1050
5.73999993875623 1099
5.75999993830919 1002
5.77999993786216 1107
5.79999993741512 1045
5.81999993696809 1064
5.83999993652105 1034
5.85999993607402 987
5.87999993562698 951
5.89999993517995 939
5.91999993473291 819
5.93999993428588 806
5.95999993383884 845
5.97999993339181 769
5.99999993294477 724
6.01999993249774 728
6.0399999320507 713
6.05999993160367 710
6.07999993115663 627
6.0999999307096 666
6.11999993026257 648
6.13999992981553 631
6.1599999293685 617
6.17999992892146 613
6.19999992847443 616
6.21999992802739 630
6.23999992758036 598
6.25999992713332 622
6.27999992668629 622
6.29999992623925 635
6.31999992579222 585
6.33999992534518 603
6.35999992489815 573
6.37999992445111 595
6.39999992400408 577
6.41999992355704 632
6.43999992311001 578
6.45999992266297 621
6.47999992221594 555
6.4999999217689 566
6.51999992132187 595
6.53999992087483 600
6.5599999204278 556
6.57999991998076 633
6.59999991953373 584
6.61999991908669 581
6.63999991863966 595
6.65999991819262 584
6.67999991774559 582
6.69999991729855 568
6.71999991685152 614
6.73999991640449 595
6.75999991595745 582
6.77999991551042 594
6.79999991506338 605
6.81999991461635 598
6.83999991416931 585
6.85999991372228 657
6.87999991327524 558
6.89999991282821 586
6.91999991238117 587
6.93999991193414 584
6.9599999114871 562
6.97999991104007 560
6.99999991059303 559
7.019999910146 562
7.03999990969896 590
7.05999990925193 571
7.07999990880489 600
7.09999990835786 556
7.11999990791082 543
7.13999990746379 541
7.15999990701675 548
7.17999990656972 587
7.19999990612268 525
7.21999990567565 555
7.23999990522861 589
7.25999990478158 574
7.27999990433454 578
7.29999990388751 582
7.31999990344047 568
7.33999990299344 539
7.35999990254641 570
7.37999990209937 541
7.39999990165234 597
7.4199999012053 515
7.43999990075827 533
7.45999990031123 533
7.4799998998642 562
7.49999989941716 537
7.51999989897013 498
7.53999989852309 556
7.55999989807606 541
7.57999989762902 551
7.59999989718199 531
7.61999989673495 588
7.63999989628792 511
7.65999989584088 550
7.67999989539385 504
7.69999989494681 546
7.71999989449978 532
7.73999989405274 561
7.75999989360571 525
7.77999989315867 541
7.79999989271164 546
7.8199998922646 528
7.83999989181757 569
7.85999989137053 535
7.8799998909235 527
7.89999989047646 513
7.91999989002943 567
7.9399998895824 529
7.95999988913536 512
7.97999988868833 546
7.99999988824129 572
8.01999988779426 542
8.03999988734722 514
8.05999988690019 547
8.07999988645315 531
8.09999988600612 550
8.11999988555908 507
8.13999988511205 502
8.15999988466501 533
8.17999988421798 521
8.19999988377094 497
8.21999988332391 539
8.23999988287687 492
8.25999988242984 532
8.2799998819828 513
8.29999988153577 497
8.31999988108873 521
8.3399998806417 517
8.35999988019466 503
8.37999987974763 493
8.39999987930059 558
8.41999987885356 549
8.43999987840652 503
8.45999987795949 561
8.47999987751245 558
8.49999987706542 513
8.51999987661839 504
8.53999987617135 509
8.55999987572432 534
8.57999987527728 542
8.59999987483025 534
8.61999987438321 525
8.63999987393618 500
8.65999987348914 497
8.67999987304211 508
8.69999987259507 519
8.71999987214804 522
8.739999871701 517
8.75999987125397 514
8.77999987080693 533
8.7999998703599 548
8.81999986991286 529
8.83999986946583 547
8.85999986901879 509
8.87999986857176 549
8.89999986812472 534
8.91999986767769 531
8.93999986723065 573
8.95999986678362 532
8.97999986633658 531
8.99999986588955 481
9.01999986544251 564
9.03999986499548 552
9.05999986454844 533
9.07999986410141 524
9.09999986365438 573
9.11999986320734 601
9.13999986276031 590
9.15999986231327 586
9.17999986186624 607
9.1999998614192 608
9.21999986097217 617
9.23999986052513 618
9.2599998600781 615
9.27999985963106 647
9.29999985918403 719
9.31999985873699 771
9.33999985828996 859
9.35999985784292 842
9.37999985739589 942
9.39999985694885 1004
9.41999985650182 1024
9.43999985605478 1003
9.45999985560775 1012
9.47999985516071 847
9.49999985471368 683
9.51999985426664 628
9.53999985381961 583
9.55999985337257 567
9.57999985292554 514
9.5999998524785 522
9.61999985203147 535
9.63999985158443 551
9.6599998511374 514
9.67999985069037 544
9.69999985024333 536
9.7199998497963 520
9.73999984934926 557
9.75999984890223 499
9.77999984845519 549
9.79999984800816 537
9.81999984756112 521
9.83999984711409 541
9.85999984666705 528
9.87999984622002 527
9.89999984577298 515
9.91999984532595 493
9.93999984487891 512
9.95999984443188 524
9.97999984398484 471
9.99999984353781 552
10.0199998430908 519
10.0399998426437 544
10.0599998421967 520
10.0799998417497 555
10.0999998413026 529
10.1199998408556 515
10.1399998404086 549
10.1599998399615 523
10.1799998395145 519
10.1999998390675 545
10.2199998386204 548
10.2399998381734 528
10.2599998377264 546
10.2799998372793 532
10.2999998368323 544
10.3199998363853 518
10.3399998359382 519
10.3599998354912 553
10.3799998350441 537
10.3999998345971 498
10.4199998341501 476
10.439999833703 548
10.459999833256 507
10.479999832809 527
10.4999998323619 490
10.5199998319149 522
10.5399998314679 534
10.5599998310208 572
10.5799998305738 517
10.5999998301268 517
10.6199998296797 569
10.6399998292327 516
10.6599998287857 581
10.6799998283386 550
10.6999998278916 552
10.7199998274446 619
10.7399998269975 643
10.7599998265505 647
10.7799998261034 644
10.7999998256564 698
10.8199998252094 725
10.8399998247623 752
10.8599998243153 738
10.8799998238683 832
10.8999998234212 768
10.9199998229742 714
10.9399998225272 694
10.9599998220801 688
10.9799998216331 663
10.9999998211861 615
11.019999820739 596
11.039999820292 581
11.059999819845 643
11.0799998193979 606
11.0999998189509 603
11.1199998185039 572
11.1399998180568 547
11.1599998176098 530
11.1799998171628 524
11.1999998167157 500
11.2199998162687 527
11.2399998158216 532
11.2599998153746 573
11.2799998149276 501
11.2999998144805 504
11.3199998140335 510
11.3399998135865 513
11.3599998131394 528
11.3799998126924 486
11.3999998122454 480
11.4199998117983 541
11.4399998113513 514
11.4599998109043 498
11.4799998104572 488
11.4999998100102 554
11.5199998095632 465
11.5399998091161 509
11.5599998086691 525
11.5799998082221 519
11.599999807775 539
11.619999807328 492
11.639999806881 515
11.6599998064339 537
11.6799998059869 541
11.6999998055398 553
11.7199998050928 543
11.7399998046458 527
11.7599998041987 513
11.7799998037517 519
11.7999998033047 492
11.8199998028576 470
11.8399998024106 491
11.8599998019636 485
11.8799998015165 513
11.8999998010695 512
11.9199998006225 500
11.9399998001754 501
11.9599997997284 520
11.9799997992814 526
11.9999997988343 501
12.0199997983873 519
12.0399997979403 498
12.0599997974932 547
12.0799997970462 527
12.0999997965992 519
12.1199997961521 525
12.1399997957051 515
12.159999795258 523
12.179999794811 552
12.199999794364 528
12.2199997939169 529
12.2399997934699 532
12.2599997930229 509
12.2799997925758 527
12.2999997921288 560
12.3199997916818 542
12.3399997912347 573
12.3599997907877 512
12.3799997903407 573
12.3999997898936 524
12.4199997894466 519
12.4399997889996 540
12.4599997885525 549
12.4799997881055 520
12.4999997876585 531
12.5199997872114 491
12.5399997867644 514
12.5599997863173 548
12.5799997858703 512
12.5999997854233 508
12.6199997849762 516
12.6399997845292 536
12.6599997840822 511
12.6799997836351 557
12.6999997831881 535
12.7199997827411 495
12.739999782294 472
12.759999781847 492
12.7799997814 531
12.7999997809529 493
12.8199997805059 517
12.8399997800589 561
12.8599997796118 551
12.8799997791648 558
12.8999997787178 535
12.9199997782707 551
12.9399997778237 530
12.9599997773767 510
12.9799997769296 543
12.9999997764826 554
13.0199997760355 524
13.0399997755885 544
13.0599997751415 566
13.0799997746944 535
13.0999997742474 578
13.1199997738004 557
13.1399997733533 558
13.1599997729063 548
13.1799997724593 567
13.1999997720122 544
13.2199997715652 541
13.2399997711182 575
13.2599997706711 568
13.2799997702241 536
13.2999997697771 558
13.31999976933 560
13.339999768883 570
13.359999768436 586
13.3799997679889 538
13.3999997675419 593
13.4199997670949 588
13.4399997666478 562
13.4599997662008 570
13.4799997657537 542
13.4999997653067 586
13.5199997648597 555
13.5399997644126 556
13.5599997639656 613
13.5799997635186 542
13.5999997630715 556
13.6199997626245 575
13.6399997621775 600
13.6599997617304 559
13.6799997612834 606
13.6999997608364 587
13.7199997603893 623
13.7399997599423 590
13.7599997594953 594
13.7799997590482 593
13.7999997586012 550
13.8199997581542 604
13.8399997577071 569
13.8599997572601 559
13.879999756813 567
13.899999756366 578
13.919999755919 572
13.9399997554719 594
13.9599997550249 566
13.9799997545779 534
13.9999997541308 566
14.0199997536838 594
14.0399997532368 566
14.0599997527897 588
14.0799997523427 571
14.0999997518957 621
14.1199997514486 594
14.1399997510016 567
14.1599997505546 618
14.1799997501075 603
14.1999997496605 583
14.2199997492135 617
14.2399997487664 608
14.2599997483194 639
14.2799997478724 630
14.2999997474253 622
14.3199997469783 623
14.3399997465312 601
14.3599997460842 630
14.3799997456372 641
14.3999997451901 665
14.4199997447431 628
14.4399997442961 599
14.459999743849 677
14.479999743402 589
14.499999742955 647
14.5199997425079 592
14.5399997420609 642
14.5599997416139 645
14.5799997411668 652
14.5999997407198 633
14.6199997402728 605
14.6399997398257 626
14.6599997393787 609
14.6799997389317 633
14.6999997384846 609
14.7199997380376 701
14.7399997375906 650
14.7599997371435 678
14.7799997366965 635
14.7999997362494 625
14.8199997358024 601
14.8399997353554 632
14.8599997349083 605
14.8799997344613 684
14.8999997340143 633
14.9199997335672 656
14.9399997331202 641
14.9599997326732 667
14.9799997322261 638
14.9999997317791 661
15.0199997313321 607
15.039999730885 683
15.059999730438 620
15.079999729991 688
15.0999997295439 641
15.1199997290969 628
15.1399997286499 675
15.1599997282028 677
15.1799997277558 666
15.1999997273088 634
15.2199997268617 656
15.2399997264147 659
15.2599997259676 657
15.2799997255206 699
15.2999997250736 657
15.3199997246265 683
15.3399997241795 695
15.3599997237325 688
15.3799997232854 717
15.3999997228384 667
15.4199997223914 686
15.4399997219443 708
15.4599997214973 657
15.4799997210503 658
15.4999997206032 714
15.5199997201562 688
15.5399997197092 726
15.5599997192621 649
15.5799997188151 658
15.5999997183681 704
15.619999717921 698
15.639999717474 695
15.659999717027 650
15.6799997165799 725
15.6999997161329 657
15.7199997156858 695
15.7399997152388 713
15.7599997147918 683
15.7799997143447 628
15.7999997138977 724
15.8199997134507 714
15.8399997130036 681
15.8599997125566 689
15.8799997121096 738
15.8999997116625 694
15.9199997112155 681
15.9399997107685 739
15.9599997103214 681
15.9799997098744 708
15.9999997094274 670
16.0199997089803 754
16.0399997085333 691
16.0599997080863 740
16.0799997076392 748
16.0999997071922 743
16.1199997067451 731
16.1399997062981 748
16.1599997058511 724
16.179999705404 734
16.199999704957 761
16.21999970451 758
16.2399997040629 750
16.2599997036159 740
16.2799997031689 771
16.2999997027218 804
16.3199997022748 816
16.3399997018278 741
16.3599997013807 835
16.3799997009337 770
16.3999997004867 774
16.4199997000396 801
16.4399996995926 800
16.4599996991456 749
16.4799996986985 835
16.4999996982515 816
16.5199996978045 779
16.5399996973574 827
16.5599996969104 759
16.5799996964633 830
16.5999996960163 787
16.6199996955693 718
16.6399996951222 797
16.6599996946752 766
16.6799996942282 786
16.6999996937811 790
16.7199996933341 806
16.7399996928871 759
16.75999969244 844
16.779999691993 802
16.799999691546 769
16.8199996910989 813
16.8399996906519 860
16.8599996902049 805
16.8799996897578 860
16.8999996893108 844
16.9199996888638 892
16.9399996884167 885
16.9599996879697 951
16.9799996875226 872
16.9999996870756 983
17.0199996866286 987
17.0399996861815 1057
17.0599996857345 1046
17.0799996852875 1013
17.0999996848404 1143
17.1199996843934 1070
17.1399996839464 1089
17.1599996834993 1014
17.1799996830523 986
17.1999996826053 962
17.2199996821582 861
17.2399996817112 854
17.2599996812642 959
17.2799996808171 928
17.2999996803701 933
17.3199996799231 901
17.339999679476 943
17.359999679029 871
17.379999678582 898
17.3999996781349 933
17.4199996776879 920
17.4399996772408 931
17.4599996767938 918
17.4799996763468 914
17.4999996758997 936
17.5199996754527 962
17.5399996750057 944
17.5599996745586 949
17.5799996741116 863
17.5999996736646 927
17.6199996732175 938
17.6399996727705 906
17.6599996723235 922
17.6799996718764 885
17.6999996714294 927
17.7199996709824 949
17.7399996705353 874
17.7599996700883 903
17.7799996696413 877
17.7999996691942 955
17.8199996687472 1011
17.8399996683002 940
17.8599996678531 1019
17.8799996674061 958
17.899999666959 936
17.919999666512 969
17.939999666065 992
17.9599996656179 950
17.9799996651709 1030
17.9999996647239 990
18.0199996642768 1015
18.0399996638298 1012
18.0599996633828 1016
18.0799996629357 989
18.0999996624887 970
18.1199996620417 987
18.1399996615946 1018
18.1599996611476 991
18.1799996607006 1047
18.1999996602535 1018
18.2199996598065 1023
18.2399996593595 1030
18.2599996589124 1032
18.2799996584654 971
18.2999996580184 1077
18.3199996575713 1078
18.3399996571243 1015
18.3599996566772 1003
18.3799996562302 989
18.3999996557832 1034
18.4199996553361 1039
18.4399996548891 1028
18.4599996544421 1015
18.479999653995 1026
18.499999653548 1036
18.519999653101 1078
18.5399996526539 1053
18.5599996522069 1046
18.5799996517599 1096
18.5999996513128 1082
18.6199996508658 1086
18.6399996504188 1127
18.6599996499717 1111
18.6799996495247 1116
18.6999996490777 1072
18.7199996486306 1149
18.7399996481836 1088
18.7599996477366 1157
18.7799996472895 1120
18.7999996468425 1192
18.8199996463954 1150
18.8399996459484 1137
18.8599996455014 1129
18.8799996450543 1125
18.8999996446073 1120
18.9199996441603 1152
18.9399996437132 1095
18.9599996432662 1093
18.9799996428192 1156
18.9999996423721 1133
19.0199996419251 1146
19.0399996414781 1164
19.059999641031 1132
19.079999640584 1178
19.099999640137 1195
19.1199996396899 1176
19.1399996392429 1242
19.1599996387959 1185
19.1799996383488 1166
19.1999996379018 1172
19.2199996374547 1182
19.2399996370077 1159
19.2599996365607 1202
19.2799996361136 1119
19.2999996356666 1169
19.3199996352196 1211
19.3399996347725 1223
19.3599996343255 1250
19.3799996338785 1154
19.3999996334314 1238
19.4199996329844 1319
19.4399996325374 1220
19.4599996320903 1231
19.4799996316433 1305
19.4999996311963 1314
19.5199996307492 1306
19.5399996303022 1416
19.5599996298552 1384
19.5799996294081 1302
19.5999996289611 1312
19.6199996285141 1346
19.639999628067 1274
19.65999962762 1343
19.6799996271729 1332
19.6999996267259 1245
19.7199996262789 1299
19.7399996258318 1271
19.7599996253848 1301
19.7799996249378 1208
19.7999996244907 1293
19.8199996240437 1278
19.8399996235967 1346
19.8599996231496 1321
19.8799996227026 1288
19.8999996222556 1309
19.9199996218085 1238
19.9399996213615 1274
19.9599996209145 1236
19.9799996204674 1313
19.9999996200204 1257
