3 3404
3.01999999955297 3346
3.03999999910593 3214
3.0599999986589 3022
3.07999999821186 2770
3.09999999776483 2685
3.11999999731779 2723
3.13999999687076 2600
3.15999999642372 2567
3.17999999597669 2470
3.19999999552965 2503
3.21999999508262 2404
3.23999999463558 2435
3.25999999418855 2428
3.27999999374151 2344
3.29999999329448 2329
3.31999999284744 2240
3.33999999240041 2239
3.35999999195337 2198
3.37999999150634 2237
3.3999999910593 2126
3.41999999061227 2147
3.43999999016523 2094
3.4599999897182 2078
3.47999998927116 2041
3.49999998882413 1966
3.51999998837709 1926
3.53999998793006 2002
3.55999998748302 1878
3.57999998703599 1886
3.59999998658895 1891
3.61999998614192 1882
3.63999998569489 1808
3.65999998524785 1762
3.67999998480082 1821
3.69999998435378 1686
3.71999998390675 1660
3.73999998345971 1684
3.75999998301268 1670
3.77999998256564 1675
3.79999998211861 1620
3.81999998167157 1624
3.83999998122454 1566
3.8599999807775 1584
3.87999998033047 1550
3.89999997988343 1523
3.9199999794364 1559
3.93999997898936 1504
3.95999997854233 1489
3.97999997809529 1408
3.99999997764826 1506
4.01999997720122 1486
4.03999997675419 1424
4.05999997630715 1403
4.07999997586012 1387
4.09999997541308 1415
4.11999997496605 1399
4.13999997451901 1389
4.15999997407198 1328
4.17999997362494 1318
4.19999997317791 1397
4.21999997273087 1317
4.23999997228384 1262
4.25999997183681 1233
4.27999997138977 1243
4.29999997094274 1261
4.3199999704957 1236
4.33999997004867 1240
4.35999996960163 1271
4.3799999691546 1238
4.39999996870756 1209
4.41999996826053 1211
4.43999996781349 1184
4.45999996736646 1169
4.47999996691942 1132
4.49999996647239 1182
4.51999996602535 1161
4.53999996557832 1162
4.55999996513128 1121
4.57999996468425 1157
4.59999996423721 1067
4.61999996379018 1046
4.63999996334314 1105
4.65999996289611 1084
4.67999996244907 1048
4.69999996200204 1146
4.719999961555 1082
4.73999996110797 1011
4.75999996066093 1030
4.7799999602139 1041
4.79999995976686 1045
4.81999995931983 986
4.83999995887279 1013
4.85999995842576 1059
4.87999995797873 1020
4.89999995753169 1002
4.91999995708466 1016
4.93999995663762 923
4.95999995619059 958
4.97999995574355 1000
4.99999995529652 944
5.01999995484948 983
5.03999995440245 977
5.05999995395541 931
5.07999995350838 952
5.09999995306134 921
5.11999995261431 973
5.13999995216727 963
5.15999995172024 901
5.1799999512732 879
5.19999995082617 891
5.21999995037913 931
5.2399999499321 863
5.25999994948506 884
5.27999994903803 837
5.29999994859099 934
5.31999994814396 858
5.33999994769692 895
5.35999994724989 856
5.37999994680285 834
5.39999994635582 845
5.41999994590878 903
5.43999994546175 826
5.45999994501471 821
5.47999994456768 799
5.49999994412065 819
5.51999994367361 835
5.53999994322658 836
5.55999994277954 783
5.57999994233251 790
5.59999994188547 797
5.61999994143844 816
5.6399999409914 837
5.65999994054437 820
5.67999994009733 819
5.6999999396503 783
5.71999993920326 800
5.73999993875623 861
5.75999993830919 814
5.77999993786216 793
5.79999993741512 802
5.81999993696809 796
5.83999993652105 762
5.85999993607402 747
5.87999993562698 760
5.89999993517995 728
5.91999993473291 785
5.93999993428588 748
5.95999993383884 755
5.97999993339181 754
5.99999993294477 715
6.01999993249774 728
6.0399999320507 800
6.05999993160367 739
6.07999993115663 760
6.0999999307096 752
6.11999993026257 785
6.13999992981553 705
6.1599999293685 768
6.17999992892146 718
6.19999992847443 751
6.21999992802739 705
6.23999992758036 741
6.25999992713332 701
6.27999992668629 718
6.29999992623925 712
6.31999992579222 706
6.33999992534518 727
6.35999992489815 724
6.37999992445111 708
6.39999992400408 707
6.41999992355704 719
6.43999992311001 674
6.45999992266297 692
6.47999992221594 698
6.4999999217689 667
6.51999992132187 706
6.53999992087483 737
6.5599999204278 749
6.57999991998076 699
6.59999991953373 675
6.61999991908669 685
6.63999991863966 682
6.65999991819262 705
6.67999991774559 703
6.69999991729855 665
6.71999991685152 741
6.73999991640449 709
6.75999991595745 726
6.77999991551042 669
6.79999991506338 637
6.81999991461635 684
6.83999991416931 710
6.85999991372228 684
6.87999991327524 698
6.89999991282821 666
6.91999991238117 718
6.93999991193414 619
6.9599999114871 649
6.97999991104007 680
6.99999991059303 681
7.019999910146 684
7.03999990969896 649
7.05999990925193 684
7.07999990880489 635
7.09999990835786 675
7.11999990791082 656
7.13999990746379 627
7.15999990701675 606
7.17999990656972 634
7.19999990612268 628
7.21999990567565 653
7.23999990522861 641
7.25999990478158 624
7.27999990433454 633
7.29999990388751 658
7.31999990344047 617
7.33999990299344 634
7.35999990254641 670
7.37999990209937 619
7.39999990165234 592
7.4199999012053 607
7.43999990075827 585
7.45999990031123 597
7.4799998998642 630
7.49999989941716 652
7.51999989897013 617
7.53999989852309 582
7.55999989807606 643
7.57999989762902 600
7.59999989718199 645
7.61999989673495 593
7.63999989628792 611
7.65999989584088 637
7.67999989539385 610
7.69999989494681 575
7.71999989449978 585
7.73999989405274 592
7.75999989360571 627
7.77999989315867 632
7.79999989271164 608
7.8199998922646 542
7.83999989181757 629
7.85999989137053 641
7.8799998909235 570
7.89999989047646 570
7.91999989002943 582
7.9399998895824 589
7.95999988913536 614
7.97999988868833 609
7.99999988824129 592
8.01999988779426 570
8.03999988734722 587
8.05999988690019 598
8.07999988645315 591
8.09999988600612 608
8.11999988555908 591
8.13999988511205 621
8.15999988466501 577
8.17999988421798 586
8.19999988377094 547
8.21999988332391 570
8.23999988287687 589
8.25999988242984 597
8.2799998819828 602
8.29999988153577 565
8.31999988108873 617
8.3399998806417 540
8.35999988019466 593
8.37999987974763 599
8.39999987930059 608
8.41999987885356 601
8.43999987840652 580
8.45999987795949 561
8.47999987751245 540
8.49999987706542 574
8.51999987661839 606
8.53999987617135 592
8.55999987572432 574
8.57999987527728 581
8.59999987483025 587
8.61999987438321 555
8.63999987393618 608
8.65999987348914 590
8.67999987304211 543
8.69999987259507 498
8.71999987214804 545
8.739999871701 601
8.75999987125397 579
8.77999987080693 595
8.7999998703599 586
8.81999986991286 596
8.83999986946583 601
8.85999986901879 527
8.87999986857176 540
8.89999986812472 564
8.91999986767769 567
8.93999986723065 526
8.95999986678362 537
8.97999986633658 583
8.99999986588955 529
9.01999986544251 532
9.03999986499548 551
9.05999986454844 535
9.07999986410141 533
9.09999986365438 541
9.11999986320734 541
9.13999986276031 559
9.15999986231327 551
9.17999986186624 561
9.1999998614192 555
9.21999986097217 545
9.23999986052513 493
9.2599998600781 534
9.27999985963106 579
9.29999985918403 552
9.31999985873699 580
9.33999985828996 542
9.35999985784292 487
9.37999985739589 549
9.39999985694885 542
9.41999985650182 583
9.43999985605478 555
9.45999985560775 506
9.47999985516071 508
9.49999985471368 534
9.51999985426664 556
9.53999985381961 537
9.55999985337257 544
9.57999985292554 539
9.5999998524785 537
9.61999985203147 496
9.63999985158443 513
9.6599998511374 541
9.67999985069037 516
9.69999985024333 577
9.7199998497963 512
9.73999984934926 573
9.75999984890223 518
9.77999984845519 561
9.79999984800816 518
9.81999984756112 497
9.83999984711409 522
9.85999984666705 507
9.87999984622002 510
9.89999984577298 494
9.91999984532595 549
9.93999984487891 529
9.95999984443188 517
9.97999984398484 546
9.99999984353781 526
10.0199998430908 525
10.0399998426437 518
10.0599998421967 543
10.0799998417497 527
10.0999998413026 565
10.1199998408556 506
10.1399998404086 513
10.1599998399615 516
10.1799998395145 530
10.1999998390675 510
10.2199998386204 495
10.2399998381734 520
10.2599998377264 518
10.2799998372793 543
10.2999998368323 534
10.3199998363853 502
10.3399998359382 522
10.3599998354912 512
10.3799998350441 509
10.3999998345971 515
10.4199998341501 503
10.439999833703 515
10.459999833256 507
10.479999832809 551
10.4999998323619 518
10.5199998319149 507
10.5399998314679 533
10.5599998310208 520
10.5799998305738 523
10.5999998301268 506
10.6199998296797 519
10.6399998292327 526
10.6599998287857 539
10.6799998283386 528
10.6999998278916 548
10.7199998274446 555
10.7399998269975 537
10.7599998265505 524
10.7799998261034 534
10.7999998256564 475
10.8199998252094 532
10.8399998247623 491
10.8599998243153 513
10.8799998238683 510
10.8999998234212 486
10.9199998229742 507
10.9399998225272 541
10.9599998220801 510
10.9799998216331 503
10.9999998211861 520
11.019999820739 481
11.039999820292 492
11.059999819845 528
11.0799998193979 546
11.0999998189509 522
11.1199998185039 525
11.1399998180568 497
11.1599998176098 487
11.1799998171628 516
11.1999998167157 458
11.2199998162687 498
11.2399998158216 510
11.2599998153746 513
11.2799998149276 500
11.2999998144805 490
11.3199998140335 458
11.3399998135865 517
11.3599998131394 513
11.3799998126924 539
11.3999998122454 507
11.4199998117983 491
11.4399998113513 495
11.4599998109043 461
11.4799998104572 495
11.4999998100102 475
11.5199998095632 459
11.5399998091161 489
11.5599998086691 532
11.5799998082221 523
11.599999807775 518
11.619999807328 491
11.639999806881 532
11.6599998064339 553
11.6799998059869 470
11.6999998055398 520
11.7199998050928 495
11.7399998046458 476
11.7599998041987 567
11.7799998037517 505
11.7999998033047 526
11.8199998028576 505
11.8399998024106 492
11.8599998019636 506
11.8799998015165 517
11.8999998010695 543
11.9199998006225 485
11.9399998001754 495
11.9599997997284 544
11.9799997992814 499
11.9999997988343 488
12.0199997983873 488
12.0399997979403 484
12.0599997974932 507
12.0799997970462 503
12.0999997965992 520
12.1199997961521 559
12.1399997957051 519
12.159999795258 499
12.179999794811 527
12.199999794364 528
12.2199997939169 524
12.2399997934699 534
12.2599997930229 531
12.2799997925758 475
12.2999997921288 505
12.3199997916818 467
12.3399997912347 517
12.3599997907877 531
12.3799997903407 518
12.3999997898936 492
12.4199997894466 528
12.4399997889996 500
12.4599997885525 530
12.4799997881055 518
12.4999997876585 524
12.5199997872114 486
12.5399997867644 489
12.5599997863173 515
12.5799997858703 503
12.5999997854233 518
12.6199997849762 493
12.6399997845292 566
12.6599997840822 493
12.6799997836351 492
12.6999997831881 501
12.7199997827411 508
12.739999782294 542
12.759999781847 487
12.7799997814 527
12.7999997809529 511
12.8199997805059 476
12.8399997800589 522
12.8599997796118 458
12.8799997791648 549
12.8999997787178 497
12.9199997782707 565
12.9399997778237 510
12.9599997773767 506
12.9799997769296 533
12.9999997764826 516
13.0199997760355 527
13.0399997755885 554
13.0599997751415 556
13.0799997746944 518
13.0999997742474 539
13.1199997738004 530
13.1399997733533 541
13.1599997729063 527
13.1799997724593 530
13.1999997720122 539
13.2199997715652 572
13.2399997711182 570
13.2599997706711 546
13.2799997702241 536
13.2999997697771 525
13.31999976933 546
13.339999768883 512
13.359999768436 532
13.3799997679889 521
13.3999997675419 538
13.4199997670949 538
13.4399997666478 508
13.4599997662008 519
13.4799997657537 538
13.4999997653067 527
13.5199997648597 503
13.5399997644126 537
13.5599997639656 553
13.5799997635186 532
13.5999997630715 508
13.6199997626245 526
13.6399997621775 537
13.6599997617304 537
13.6799997612834 542
13.6999997608364 526
13.7199997603893 539
13.7399997599423 516
13.7599997594953 545
13.7799997590482 569
13.7999997586012 512
13.8199997581542 549
13.8399997577071 576
13.8599997572601 527
13.879999756813 522
13.899999756366 554
13.919999755919 535
13.9399997554719 529
13.9599997550249 546
13.9799997545779 537
13.9999997541308 529
14.0199997536838 540
14.0399997532368 553
14.0599997527897 557
14.0799997523427 533
14.0999997518957 553
14.1199997514486 515
14.1399997510016 525
14.1599997505546 570
14.1799997501075 555
14.1999997496605 564
14.2199997492135 568
14.2399997487664 563
14.2599997483194 520
14.2799997478724 577
14.2999997474253 576
14.3199997469783 575
14.3399997465312 533
14.3599997460842 561
14.3799997456372 586
14.3999997451901 544
14.4199997447431 563
14.4399997442961 534
14.459999743849 570
14.479999743402 573
14.499999742955 593
14.5199997425079 575
14.5399997420609 589
14.5599997416139 596
14.5799997411668 582
14.5999997407198 605
14.6199997402728 577
14.6399997398257 563
14.6599997393787 538
14.6799997389317 586
14.6999997384846 588
14.7199997380376 563
14.7399997375906 588
14.7599997371435 568
14.7799997366965 530
14.7999997362494 579
14.8199997358024 598
14.8399997353554 560
14.8599997349083 588
14.8799997344613 591
14.8999997340143 584
14.9199997335672 591
14.9399997331202 571
14.9599997326732 598
14.9799997322261 591
14.9999997317791 586
15.0199997313321 580
15.039999730885 603
15.059999730438 566
15.079999729991 578
15.0999997295439 609
15.1199997290969 570
15.1399997286499 637
15.1599997282028 581
15.1799997277558 618
15.1999997273088 591
15.2199997268617 563
15.2399997264147 599
15.2599997259676 608
15.2799997255206 566
15.2999997250736 638
15.3199997246265 606
15.3399997241795 574
15.3599997237325 595
15.3799997232854 625
15.3999997228384 587
15.4199997223914 554
15.4399997219443 602
15.4599997214973 590
15.4799997210503 627
15.4999997206032 596
15.5199997201562 613
15.5399997197092 575
15.5599997192621 607
15.5799997188151 631
15.5999997183681 607
15.619999717921 623
15.639999717474 609
15.659999717027 639
15.6799997165799 663
15.6999997161329 619
15.7199997156858 622
15.7399997152388 584
15.7599997147918 639
15.7799997143447 673
15.7999997138977 651
15.8199997134507 634
15.8399997130036 619
15.8599997125566 590
15.8799997121096 610
15.8999997116625 673
15.9199997112155 632
15.9399997107685 618
15.9599997103214 649
15.9799997098744 652
15.9999997094274 623
16.0199997089803 628
16.0399997085333 610
16.0599997080863 672
16.0799997076392 629
16.0999997071922 608
16.1199997067451 668
16.1399997062981 657
16.1599997058511 675
16.179999705404 621
16.199999704957 698
16.21999970451 670
16.2399997040629 628
16.2599997036159 664
16.2799997031689 694
16.2999997027218 650
16.3199997022748 712
16.3399997018278 721
16.3599997013807 631
16.3799997009337 650
16.3999997004867 662
16.4199997000396 714
16.4399996995926 661
16.4599996991456 688
16.4799996986985 699
16.4999996982515 663
16.5199996978045 685
16.5399996973574 735
16.5599996969104 746
16.5799996964633 725
16.5999996960163 752
16.6199996955693 743
16.6399996951222 770
16.6599996946752 835
16.6799996942282 773
16.6999996937811 823
16.7199996933341 890
16.7399996928871 911
16.75999969244 906
16.779999691993 1027
16.799999691546 1062
16.8199996910989 1177
16.8399996906519 1321
16.8599996902049 1490
16.8799996897578 1674
16.8999996893108 1931
16.9199996888638 2203
16.9399996884167 2444
16.9599996879697 2543
16.9799996875226 2402
16.9999996870756 2084
17.0199996866286 1762
17.0399996861815 1355
17.0599996857345 1176
17.0799996852875 947
17.0999996848404 888
17.1199996843934 858
17.1399996839464 868
17.1599996834993 792
17.1799996830523 806
17.1999996826053 802
17.2199996821582 763
17.2399996817112 765
17.2599996812642 784
17.2799996808171 751
17.2999996803701 785
17.3199996799231 760
17.339999679476 716
17.359999679029 780
17.379999678582 773
17.3999996781349 728
17.4199996776879 762
17.4399996772408 779
17.4599996767938 751
17.4799996763468 775
17.4999996758997 772
17.5199996754527 811
17.5399996750057 815
17.5599996745586 790
17.5799996741116 778
17.5999996736646 772
17.6199996732175 789
17.6399996727705 792
17.6599996723235 807
17.6799996718764 808
17.6999996714294 801
17.7199996709824 813
17.7399996705353 795
17.7599996700883 793
17.7799996696413 803
17.7999996691942 848
17.8199996687472 815
17.8399996683002 793
17.8599996678531 797
17.8799996674061 846
17.899999666959 762
17.919999666512 769
17.939999666065 817
17.9599996656179 807
17.9799996651709 874
17.9999996647239 859
18.0199996642768 795
18.0399996638298 820
18.0599996633828 806
18.0799996629357 815
18.0999996624887 809
18.1199996620417 862
18.1399996615946 872
18.1599996611476 810
18.1799996607006 865
18.1999996602535 826
18.2199996598065 887
18.2399996593595 847
18.2599996589124 872
18.2799996584654 792
18.2999996580184 853
18.3199996575713 871
18.3399996571243 863
18.3599996566772 852
18.3799996562302 870
18.3999996557832 855
18.4199996553361 880
18.4399996548891 906
18.4599996544421 893
18.479999653995 887
18.499999653548 897
18.519999653101 849
18.5399996526539 906
18.5599996522069 886
18.5799996517599 880
18.5999996513128 906
18.6199996508658 901
18.6399996504188 902
18.6599996499717 856
18.6799996495247 948
18.6999996490777 899
18.7199996486306 872
18.7399996481836 955
18.7599996477366 871
18.7799996472895 919
18.7999996468425 917
18.8199996463954 941
18.8399996459484 883
18.8599996455014 964
18.8799996450543 923
18.8999996446073 909
18.9199996441603 893
18.9399996437132 924
18.9599996432662 893
18.9799996428192 940
18.9999996423721 855
19.0199996419251 956
19.0399996414781 960
19.059999641031 963
19.079999640584 857
19.099999640137 933
19.1199996396899 925
19.1399996392429 922
19.1599996387959 908
19.1799996383488 954
19.1999996379018 977
19.2199996374547 968
19.2399996370077 953
19.2599996365607 996
19.2799996361136 955
19.2999996356666 953
19.3199996352196 971
19.3399996347725 996
19.3599996343255 937
19.3799996338785 965
19.3999996334314 966
19.4199996329844 949
19.4399996325374 987
19.4599996320903 975
19.4799996316433 1053
19.4999996311963 994
19.5199996307492 948
19.5399996303022 993
19.5599996298552 998
19.5799996294081 957
19.5999996289611 1026
19.6199996285141 1005
19.639999628067 985
19.65999962762 1025
19.6799996271729 1017
19.6999996267259 1013
19.7199996262789 1033
19.7399996258318 1040
19.7599996253848 1028
19.7799996249378 1032
19.7999996244907 996
19.8199996240437 1006
19.8399996235967 978
19.8599996231496 1029
19.8799996227026 1015
19.8999996222556 1032
19.9199996218085 999
19.9399996213615 988
19.9599996209145 1055
19.9799996204674 1086
19.9999996200204 1073
