3 3192
3.01999999955297 3031
3.03999999910593 2859
3.0599999986589 2691
3.07999999821186 2553
3.09999999776483 2534
3.11999999731779 2442
3.13999999687076 2475
3.15999999642372 2366
3.17999999597669 2378
3.19999999552965 2324
3.21999999508262 2377
3.23999999463558 2244
3.25999999418855 2245
3.27999999374151 2222
3.29999999329448 2043
3.31999999284744 2006
3.33999999240041 2128
3.35999999195337 2045
3.37999999150634 2055
3.3999999910593 1976
3.41999999061227 1968
3.43999999016523 1986
3.4599999897182 1951
3.47999998927116 1917
3.49999998882413 1909
3.51999998837709 1838
3.53999998793006 1804
3.55999998748302 1825
3.57999998703599 1756
3.59999998658895 1751
3.61999998614192 1710
3.63999998569489 1677
3.65999998524785 1654
3.67999998480082 1660
3.69999998435378 1698
3.71999998390675 1692
3.73999998345971 1651
3.75999998301268 1628
3.77999998256564 1614
3.79999998211861 1616
3.81999998167157 1596
3.83999998122454 1556
3.8599999807775 1548
3.87999998033047 1556
3.89999997988343 1505
3.9199999794364 1497
3.93999997898936 1516
3.95999997854233 1421
3.97999997809529 1425
3.99999997764826 1411
4.01999997720122 1426
4.03999997675419 1350
4.05999997630715 1412
4.07999997586012 1351
4.09999997541308 1456
4.11999997496605 1360
4.13999997451901 1336
4.15999997407198 1367
4.17999997362494 1359
4.19999997317791 1255
4.21999997273087 1299
4.23999997228384 1262
4.25999997183681 1300
4.27999997138977 1307
4.29999997094274 1261
4.3199999704957 1311
4.33999997004867 1250
4.35999996960163 1303
4.3799999691546 1223
4.39999996870756 1182
4.41999996826053 1225
4.43999996781349 1227
4.45999996736646 1208
4.47999996691942 1209
4.49999996647239 1188
4.51999996602535 1191
4.53999996557832 1150
4.55999996513128 1215
4.57999996468425 1137
4.59999996423721 1135
4.61999996379018 1148
4.63999996334314 1152
4.65999996289611 1117
4.67999996244907 1169
4.69999996200204 1181
4.719999961555 1175
4.73999996110797 1122
4.75999996066093 1142
4.7799999602139 1124
4.79999995976686 1142
4.81999995931983 1059
4.83999995887279 1125
4.85999995842576 1131
4.87999995797873 1116
4.89999995753169 1163
4.91999995708466 1174
4.93999995663762 1105
4.95999995619059 1109
4.97999995574355 1141
4.99999995529652 1151
5.01999995484948 1187
5.03999995440245 1165
5.05999995395541 1144
5.07999995350838 1171
5.09999995306134 1199
5.11999995261431 1261
5.13999995216727 1285
5.15999995172024 1321
5.1799999512732 1368
5.19999995082617 1406
5.21999995037913 1279
5.2399999499321 1271
5.25999994948506 1386
5.27999994903803 1431
5.29999994859099 1470
5.31999994814396 1453
5.33999994769692 1482
5.35999994724989 1612
5.37999994680285 1681
5.39999994635582 1700
5.41999994590878 1787
5.43999994546175 1888
5.45999994501471 2015
5.47999994456768 2177
5.49999994412065 2334
5.51999994367361 2441
5.53999994322658 2622
5.55999994277954 2919
5.57999994233251 3307
5.59999994188547 3406
5.61999994143844 3773
5.6399999409914 4391
5.65999994054437 5110
5.67999994009733 6010
5.6999999396503 7749
5.71999993920326 11514
5.73999993875623 19684
5.75999993830919 19468
5.77999993786216 7465
5.79999993741512 2353
5.81999993696809 1578
5.83999993652105 1385
5.85999993607402 1322
5.87999993562698 1340
5.89999993517995 1185
5.91999993473291 1166
5.93999993428588 1045
5.95999993383884 1050
5.97999993339181 1019
5.99999993294477 1057
6.01999993249774 1045
6.0399999320507 958
6.05999993160367 979
6.07999993115663 958
6.0999999307096 954
6.11999993026257 974
6.13999992981553 1036
6.1599999293685 988
6.17999992892146 988
6.19999992847443 1003
6.21999992802739 977
6.23999992758036 1050
6.25999992713332 1067
6.27999992668629 1037
6.29999992623925 1070
6.31999992579222 1137
6.33999992534518 1194
6.35999992489815 1224
6.37999992445111 1297
6.39999992400408 1308
6.41999992355704 1386
6.43999992311001 1421
6.45999992266297 1570
6.47999992221594 1587
6.4999999217689 1642
6.51999992132187 1804
6.53999992087483 1977
6.5599999204278 2329
6.57999991998076 2760
6.59999991953373 3490
6.61999991908669 4796
6.63999991863966 4262
6.65999991819262 1997
6.67999991774559 1052
6.69999991729855 881
6.71999991685152 851
6.73999991640449 858
6.75999991595745 838
6.77999991551042 793
6.79999991506338 770
6.81999991461635 764
6.83999991416931 723
6.85999991372228 725
6.87999991327524 671
6.89999991282821 706
6.91999991238117 676
6.93999991193414 712
6.9599999114871 757
6.97999991104007 721
6.99999991059303 713
7.019999910146 715
7.03999990969896 685
7.05999990925193 680
7.07999990880489 667
7.09999990835786 732
7.11999990791082 708
7.13999990746379 681
7.15999990701675 688
7.17999990656972 631
7.19999990612268 626
7.21999990567565 620
7.23999990522861 658
7.25999990478158 657
7.27999990433454 648
7.29999990388751 682
7.31999990344047 655
7.33999990299344 649
7.35999990254641 638
7.37999990209937 654
7.39999990165234 644
7.4199999012053 652
7.43999990075827 639
7.45999990031123 584
7.4799998998642 665
7.49999989941716 607
7.51999989897013 615
7.53999989852309 701
7.55999989807606 664
7.57999989762902 647
7.59999989718199 650
7.61999989673495 603
7.63999989628792 637
7.65999989584088 616
7.67999989539385 610
7.69999989494681 631
7.71999989449978 626
7.73999989405274 632
7.75999989360571 630
7.77999989315867 631
7.79999989271164 613
7.8199998922646 633
7.83999989181757 611
7.85999989137053 623
7.8799998909235 607
7.89999989047646 566
7.91999989002943 631
7.9399998895824 649
7.95999988913536 595
7.97999988868833 594
7.99999988824129 583
8.01999988779426 614
8.03999988734722 567
8.05999988690019 565
8.07999988645315 551
8.09999988600612 588
8.11999988555908 620
8.13999988511205 630
8.15999988466501 593
8.17999988421798 621
8.19999988377094 632
8.21999988332391 590
8.23999988287687 566
8.25999988242984 571
8.2799998819828 568
8.29999988153577 556
8.31999988108873 591
8.3399998806417 557
8.35999988019466 611
8.37999987974763 616
8.39999987930059 598
8.41999987885356 618
8.43999987840652 637
8.45999987795949 567
8.47999987751245 594
8.49999987706542 596
8.51999987661839 598
8.53999987617135 601
8.55999987572432 600
8.57999987527728 550
8.59999987483025 569
8.61999987438321 607
8.63999987393618 548
8.65999987348914 629
8.67999987304211 580
8.69999987259507 592
8.71999987214804 650
8.739999871701 620
8.75999987125397 627
8.77999987080693 614
8.7999998703599 619
8.81999986991286 579
8.83999986946583 614
8.85999986901879 587
8.87999986857176 621
8.89999986812472 625
8.91999986767769 634
8.93999986723065 644
8.95999986678362 678
8.97999986633658 667
8.99999986588955 722
9.01999986544251 734
9.03999986499548 784
9.05999986454844 724
9.07999986410141 769
9.09999986365438 770
9.11999986320734 868
9.13999986276031 940
9.15999986231327 957
9.17999986186624 1061
9.1999998614192 1106
9.21999986097217 1145
9.23999986052513 1287
9.2599998600781 1502
9.27999985963106 1650
9.29999985918403 2092
9.31999985873699 2541
9.33999985828996 3675
9.35999985784292 4445
9.37999985739589 2892
9.39999985694885 1371
9.41999985650182 738
9.43999985605478 628
9.45999985560775 626
9.47999985516071 614
9.49999985471368 597
9.51999985426664 583
9.53999985381961 622
9.55999985337257 593
9.57999985292554 571
9.5999998524785 578
9.61999985203147 549
9.63999985158443 552
9.6599998511374 566
9.67999985069037 587
9.69999985024333 528
9.7199998497963 587
9.73999984934926 597
9.75999984890223 589
9.77999984845519 538
9.79999984800816 594
9.81999984756112 570
9.83999984711409 558
9.85999984666705 559
9.87999984622002 543
9.89999984577298 586
9.91999984532595 576
9.93999984487891 575
9.95999984443188 540
9.97999984398484 539
9.99999984353781 519
10.0199998430908 567
10.0399998426437 535
10.0599998421967 538
10.0799998417497 528
10.0999998413026 519
10.1199998408556 568
10.1399998404086 527
10.1599998399615 529
10.1799998395145 578
10.1999998390675 591
10.2199998386204 557
10.2399998381734 551
10.2599998377264 581
10.2799998372793 561
10.2999998368323 603
10.3199998363853 578
10.3399998359382 548
10.3599998354912 555
10.3799998350441 581
10.3999998345971 465
10.4199998341501 522
10.439999833703 553
10.459999833256 564
10.479999832809 584
10.4999998323619 553
10.5199998319149 574
10.5399998314679 557
10.5599998310208 563
10.5799998305738 575
10.5999998301268 594
10.6199998296797 571
10.6399998292327 656
10.6599998287857 598
10.6799998283386 669
10.6999998278916 693
10.7199998274446 752
10.7399998269975 757
10.7599998265505 858
10.7799998261034 782
10.7999998256564 914
10.8199998252094 975
10.8399998247623 1045
10.8599998243153 1084
10.8799998238683 1283
10.8999998234212 1534
10.9199998229742 1790
10.9399998225272 2410
10.9599998220801 3274
10.9799998216331 2791
10.9999998211861 1715
11.019999820739 865
11.039999820292 643
11.059999819845 635
11.0799998193979 606
11.0999998189509 631
11.1199998185039 678
11.1399998180568 615
11.1599998176098 617
11.1799998171628 657
11.1999998167157 662
11.2199998162687 671
11.2399998158216 700
11.2599998153746 738
11.2799998149276 733
11.2999998144805 802
11.3199998140335 874
11.3399998135865 868
11.3599998131394 1001
11.3799998126924 1246
11.3999998122454 1332
11.4199998117983 1780
11.4399998113513 2544
11.4599998109043 3007
11.4799998104572 2232
11.4999998100102 1383
11.5199998095632 744
11.5399998091161 641
11.5599998086691 608
11.5799998082221 517
11.599999807775 547
11.619999807328 593
11.639999806881 554
11.6599998064339 500
11.6799998059869 568
11.6999998055398 536
11.7199998050928 543
11.7399998046458 535
11.7599998041987 523
11.7799998037517 562
11.7999998033047 512
11.8199998028576 537
11.8399998024106 515
11.8599998019636 524
11.8799998015165 533
11.8999998010695 488
11.9199998006225 542
11.9399998001754 552
11.9599997997284 544
11.9799997992814 520
11.9999997988343 536
12.0199997983873 528
12.0399997979403 566
12.0599997974932 559
12.0799997970462 520
12.0999997965992 540
12.1199997961521 535
12.1399997957051 519
12.159999795258 544
12.179999794811 559
12.199999794364 534
12.2199997939169 542
12.2399997934699 535
12.2599997930229 510
12.2799997925758 558
12.2999997921288 518
12.3199997916818 541
12.3399997912347 510
12.3599997907877 524
12.3799997903407 559
12.3999997898936 577
12.4199997894466 530
12.4399997889996 522
12.4599997885525 518
12.4799997881055 520
12.4999997876585 537
12.5199997872114 556
12.5399997867644 536
12.5599997863173 509
12.5799997858703 519
12.5999997854233 542
12.6199997849762 519
12.6399997845292 491
12.6599997840822 528
12.6799997836351 572
12.6999997831881 561
12.7199997827411 520
12.739999782294 537
12.759999781847 526
12.7799997814 484
12.7999997809529 514
12.8199997805059 539
12.8399997800589 491
12.8599997796118 545
12.8799997791648 550
12.8999997787178 544
12.9199997782707 545
12.9399997778237 556
12.9599997773767 586
12.9799997769296 558
12.9999997764826 592
13.0199997760355 569
13.0399997755885 579
13.0599997751415 566
13.0799997746944 604
13.0999997742474 618
13.1199997738004 611
13.1399997733533 674
13.1599997729063 714
13.1799997724593 728
13.1999997720122 858
13.2199997715652 960
13.2399997711182 862
13.2599997706711 755
13.2799997702241 621
13.2999997697771 551
13.31999976933 550
13.339999768883 527
13.359999768436 579
13.3799997679889 520
13.3999997675419 538
13.4199997670949 590
13.4399997666478 539
13.4599997662008 548
13.4799997657537 509
13.4999997653067 533
13.5199997648597 543
13.5399997644126 573
13.5599997639656 561
13.5799997635186 538
13.5999997630715 513
13.6199997626245 553
13.6399997621775 524
13.6599997617304 597
13.6799997612834 571
13.6999997608364 543
13.7199997603893 544
13.7399997599423 547
13.7599997594953 519
13.7799997590482 584
13.7999997586012 565
13.8199997581542 602
13.8399997577071 614
13.8599997572601 570
13.879999756813 505
13.899999756366 590
13.919999755919 579
13.9399997554719 569
13.9599997550249 548
13.9799997545779 556
13.9999997541308 526
14.0199997536838 573
14.0399997532368 519
14.0599997527897 532
14.0799997523427 567
14.0999997518957 614
14.1199997514486 582
14.1399997510016 548
14.1599997505546 568
14.1799997501075 579
14.1999997496605 572
14.2199997492135 620
14.2399997487664 610
14.2599997483194 663
14.2799997478724 659
14.2999997474253 649
14.3199997469783 682
14.3399997465312 723
14.3599997460842 778
14.3799997456372 848
14.3999997451901 944
14.4199997447431 1042
14.4399997442961 856
14.459999743849 811
14.479999743402 601
14.499999742955 595
14.5199997425079 577
14.5399997420609 566
14.5599997416139 586
14.5799997411668 593
14.5999997407198 561
14.6199997402728 541
14.6399997398257 627
14.6599997393787 632
14.6799997389317 617
14.6999997384846 655
14.7199997380376 616
14.7399997375906 605
14.7599997371435 621
14.7799997366965 666
14.7999997362494 669
14.8199997358024 563
14.8399997353554 608
14.8599997349083 567
14.8799997344613 557
14.8999997340143 563
14.9199997335672 578
14.9399997331202 632
14.9599997326732 578
14.9799997322261 606
14.9999997317791 591
15.0199997313321 612
15.039999730885 617
15.059999730438 623
15.079999729991 621
15.0999997295439 617
15.1199997290969 607
15.1399997286499 583
15.1599997282028 571
15.1799997277558 644
15.1999997273088 633
15.2199997268617 624
15.2399997264147 600
15.2599997259676 628
15.2799997255206 609
15.2999997250736 600
15.3199997246265 634
15.3399997241795 660
15.3599997237325 606
15.3799997232854 611
15.3999997228384 629
15.4199997223914 633
15.4399997219443 611
15.4599997214973 575
15.4799997210503 639
15.4999997206032 615
15.5199997201562 622
15.5399997197092 640
15.5599997192621 645
15.5799997188151 615
15.5999997183681 634
15.619999717921 590
15.639999717474 638
15.659999717027 639
15.6799997165799 636
15.6999997161329 606
15.7199997156858 623
15.7399997152388 686
15.7599997147918 635
15.7799997143447 643
15.7999997138977 665
15.8199997134507 648
15.8399997130036 623
15.8599997125566 648
15.8799997121096 618
15.8999997116625 613
15.9199997112155 630
15.9399997107685 655
15.9599997103214 619
15.9799997098744 644
15.9999997094274 670
16.0199997089803 636
16.0399997085333 629
16.0599997080863 675
16.0799997076392 644
16.0999997071922 694
16.1199997067451 636
16.1399997062981 658
16.1599997058511 659
16.179999705404 671
16.199999704957 638
16.21999970451 681
16.2399997040629 625
16.2599997036159 643
16.2799997031689 672
16.2999997027218 689
16.3199997022748 678
16.3399997018278 671
16.3599997013807 654
16.3799997009337 643
16.3999997004867 691
16.4199997000396 687
16.4399996995926 702
16.4599996991456 694
16.4799996986985 649
16.4999996982515 705
16.5199996978045 645
16.5399996973574 687
16.5599996969104 683
16.5799996964633 643
16.5999996960163 691
16.6199996955693 674
16.6399996951222 748
16.6599996946752 683
16.6799996942282 699
16.6999996937811 689
16.7199996933341 689
16.7399996928871 707
16.75999969244 711
16.779999691993 725
16.799999691546 652
16.8199996910989 680
16.8399996906519 686
16.8599996902049 691
16.8799996897578 722
16.8999996893108 761
16.9199996888638 761
16.9399996884167 831
16.9599996879697 762
16.9799996875226 795
16.9999996870756 776
17.0199996866286 749
17.0399996861815 795
17.0599996857345 778
17.0799996852875 830
17.0999996848404 837
17.1199996843934 917
17.1399996839464 932
17.1599996834993 985
17.1799996830523 1094
17.1999996826053 1174
17.2199996821582 972
17.2399996817112 949
17.2599996812642 808
17.2799996808171 776
17.2999996803701 729
17.3199996799231 775
17.339999679476 812
17.359999679029 757
17.379999678582 721
17.3999996781349 747
17.4199996776879 797
17.4399996772408 803
17.4599996767938 781
17.4799996763468 748
17.4999996758997 758
17.5199996754527 784
17.5399996750057 776
17.5599996745586 731
17.5799996741116 753
17.5999996736646 778
17.6199996732175 806
17.6399996727705 798
17.6599996723235 743
17.6799996718764 808
17.6999996714294 752
17.7199996709824 758
17.7399996705353 777
17.7599996700883 754
17.7799996696413 788
17.7999996691942 796
17.8199996687472 783
17.8399996683002 785
17.8599996678531 769
17.8799996674061 777
17.899999666959 769
17.919999666512 816
17.939999666065 788
17.9599996656179 798
17.9799996651709 795
17.9999996647239 792
18.0199996642768 846
18.0399996638298 793
18.0599996633828 802
18.0799996629357 783
18.0999996624887 781
18.1199996620417 748
18.1399996615946 772
18.1599996611476 815
18.1799996607006 794
18.1999996602535 826
18.2199996598065 837
18.2399996593595 839
18.2599996589124 833
18.2799996584654 822
18.2999996580184 795
18.3199996575713 856
18.3399996571243 859
18.3599996566772 865
18.3799996562302 803
18.3999996557832 829
18.4199996553361 860
18.4399996548891 867
18.4599996544421 824
18.479999653995 856
18.499999653548 863
18.519999653101 937
18.5399996526539 860
18.5599996522069 881
18.5799996517599 843
18.5999996513128 856
18.6199996508658 862
18.6399996504188 903
18.6599996499717 858
18.6799996495247 851
18.6999996490777 853
18.7199996486306 946
18.7399996481836 821
18.7599996477366 902
18.7799996472895 883
18.7999996468425 899
18.8199996463954 855
18.8399996459484 866
18.8599996455014 875
18.8799996450543 891
18.8999996446073 942
18.9199996441603 895
18.9399996437132 914
18.9599996432662 917
18.9799996428192 921
18.9999996423721 917
19.0199996419251 868
19.0399996414781 931
19.059999641031 945
19.079999640584 919
19.099999640137 926
19.1199996396899 944
19.1399996392429 895
19.1599996387959 965
19.1799996383488 941
19.1999996379018 1019
19.2199996374547 953
19.2399996370077 938
19.2599996365607 927
19.2799996361136 941
19.2999996356666 995
19.3199996352196 956
19.3399996347725 964
19.3599996343255 958
19.3799996338785 980
19.3999996334314 1016
19.4199996329844 998
19.4399996325374 1083
19.4599996320903 1126
19.4799996316433 1234
19.4999996311963 1290
19.5199996307492 1301
19.5399996303022 1584
19.5599996298552 1978
19.5799996294081 2210
19.5999996289611 2118
19.6199996285141 1665
19.639999628067 1592
19.65999962762 1286
19.6799996271729 1093
19.6999996267259 1114
19.7199996262789 1195
19.7399996258318 1275
19.7599996253848 1307
19.7799996249378 1420
19.7999996244907 1614
19.8199996240437 1880
19.8399996235967 2430
19.8599996231496 2873
19.8799996227026 2607
19.8999996222556 2012
19.9199996218085 1833
19.9399996213615 1366
19.9599996209145 1066
19.9799996204674 1062
19.9999996200204 1005
