3 2566
3.01999999955297 2478
3.03999999910593 2236
3.0599999986589 2229
3.07999999821186 2078
3.09999999776483 2033
3.11999999731779 2048
3.13999999687076 1894
3.15999999642372 1902
3.17999999597669 1903
3.19999999552965 1873
3.21999999508262 1835
3.23999999463558 1865
3.25999999418855 1777
3.27999999374151 1748
3.29999999329448 1739
3.31999999284744 1763
3.33999999240041 1725
3.35999999195337 1763
3.37999999150634 1758
3.3999999910593 1792
3.41999999061227 1686
3.43999999016523 1740
3.4599999897182 1583
3.47999998927116 1549
3.49999998882413 1602
3.51999998837709 1588
3.53999998793006 1571
3.55999998748302 1533
3.57999998703599 1552
3.59999998658895 1493
3.61999998614192 1574
3.63999998569489 1605
3.65999998524785 1483
3.67999998480082 1533
3.69999998435378 1536
3.71999998390675 1467
3.73999998345971 1464
3.75999998301268 1401
3.77999998256564 1400
3.79999998211861 1454
3.81999998167157 1441
3.83999998122454 1320
3.8599999807775 1389
3.87999998033047 1373
3.89999997988343 1438
3.9199999794364 1368
3.93999997898936 1357
3.95999997854233 1263
3.97999997809529 1223
3.99999997764826 1254
4.01999997720122 1282
4.03999997675419 1315
4.05999997630715 1296
4.07999997586012 1250
4.09999997541308 1266
4.11999997496605 1312
4.13999997451901 1201
4.15999997407198 1230
4.17999997362494 1215
4.19999997317791 1229
4.21999997273087 1271
4.23999997228384 1232
4.25999997183681 1214
4.27999997138977 1219
4.29999997094274 1173
4.3199999704957 1184
4.33999997004867 1225
4.35999996960163 1145
4.3799999691546 1129
4.39999996870756 1113
4.41999996826053 1155
4.43999996781349 1154
4.45999996736646 1122
4.47999996691942 1116
4.49999996647239 1098
4.51999996602535 1179
4.53999996557832 1161
4.55999996513128 1160
4.57999996468425 1092
4.59999996423721 1100
4.61999996379018 1102
4.63999996334314 1085
4.65999996289611 1120
4.67999996244907 1118
4.69999996200204 1092
4.719999961555 1126
4.73999996110797 1046
4.75999996066093 1109
4.7799999602139 1150
4.79999995976686 1087
4.81999995931983 1078
4.83999995887279 1108
4.85999995842576 1054
4.87999995797873 1081
4.89999995753169 1052
4.91999995708466 1102
4.93999995663762 1025
4.95999995619059 1120
4.97999995574355 1104
4.99999995529652 1099
5.01999995484948 1092
5.03999995440245 1138
5.05999995395541 1116
5.07999995350838 1138
5.09999995306134 1104
5.11999995261431 1096
5.13999995216727 1169
5.15999995172024 1082
5.1799999512732 1203
5.19999995082617 1211
5.21999995037913 1231
5.2399999499321 1219
5.25999994948506 1275
5.27999994903803 1327
5.29999994859099 1343
5.31999994814396 1397
5.33999994769692 1426
5.35999994724989 1474
5.37999994680285 1570
5.39999994635582 1594
5.41999994590878 1762
5.43999994546175 1767
5.45999994501471 1706
5.47999994456768 1606
5.49999994412065 1515
5.51999994367361 1354
5.53999994322658 1280
5.55999994277954 1177
5.57999994233251 1202
5.59999994188547 1081
5.61999994143844 1053
5.6399999409914 1094
5.65999994054437 1043
5.67999994009733 1064
5.6999999396503 994
5.71999993920326 1021
5.73999993875623 1030
5.75999993830919 1018
5.77999993786216 1061
5.79999993741512 983
5.81999993696809 948
5.83999993652105 923
5.85999993607402 1011
5.87999993562698 944
5.89999993517995 1028
5.91999993473291 893
5.93999993428588 944
5.95999993383884 919
5.97999993339181 889
5.99999993294477 923
6.01999993249774 903
6.0399999320507 934
6.05999993160367 958
6.07999993115663 962
6.0999999307096 916
6.11999993026257 902
6.13999992981553 950
6.1599999293685 926
6.17999992892146 917
6.19999992847443 903
6.21999992802739 910
6.23999992758036 879
6.25999992713332 872
6.27999992668629 880
6.29999992623925 836
6.31999992579222 931
6.33999992534518 901
6.35999992489815 903
6.37999992445111 905
6.39999992400408 888
6.41999992355704 866
6.43999992311001 882
6.45999992266297 863
6.47999992221594 799
6.4999999217689 863
6.51999992132187 845
6.53999992087483 900
6.5599999204278 933
6.57999991998076 853
6.59999991953373 846
6.61999991908669 827
6.63999991863966 844
6.65999991819262 849
6.67999991774559 834
6.69999991729855 838
6.71999991685152 812
6.73999991640449 826
6.75999991595745 828
6.77999991551042 875
6.79999991506338 846
6.81999991461635 835
6.83999991416931 858
6.85999991372228 872
6.87999991327524 798
6.89999991282821 872
6.91999991238117 817
6.93999991193414 826
6.9599999114871 828
6.97999991104007 757
6.99999991059303 806
7.019999910146 813
7.03999990969896 889
7.05999990925193 787
7.07999990880489 823
7.09999990835786 856
7.11999990791082 829
7.13999990746379 836
7.15999990701675 870
7.17999990656972 820
7.19999990612268 840
7.21999990567565 821
7.23999990522861 837
7.25999990478158 794
7.27999990433454 763
7.29999990388751 841
7.31999990344047 835
7.33999990299344 773
7.35999990254641 871
7.37999990209937 782
7.39999990165234 833
7.4199999012053 838
7.43999990075827 764
7.45999990031123 852
7.4799998998642 828
7.49999989941716 834
7.51999989897013 840
7.53999989852309 828
7.55999989807606 866
7.57999989762902 759
7.59999989718199 784
7.61999989673495 787
7.63999989628792 743
7.65999989584088 811
7.67999989539385 787
7.69999989494681 821
7.71999989449978 829
7.73999989405274 808
7.75999989360571 883
7.77999989315867 778
7.79999989271164 801
7.8199998922646 843
7.83999989181757 821
7.85999989137053 773
7.8799998909235 835
7.89999989047646 771
7.91999989002943 851
7.9399998895824 784
7.95999988913536 809
7.97999988868833 798
7.99999988824129 800
8.01999988779426 802
8.03999988734722 810
8.05999988690019 813
8.07999988645315 840
8.09999988600612 819
8.11999988555908 783
8.13999988511205 811
8.15999988466501 806
8.17999988421798 826
8.19999988377094 772
8.21999988332391 784
8.23999988287687 785
8.25999988242984 799
8.2799998819828 772
8.29999988153577 789
8.31999988108873 747
8.3399998806417 794
8.35999988019466 858
8.37999987974763 778
8.39999987930059 774
8.41999987885356 804
8.43999987840652 787
8.45999987795949 773
8.47999987751245 774
8.49999987706542 838
8.51999987661839 810
8.53999987617135 777
8.55999987572432 779
8.57999987527728 793
8.59999987483025 783
8.61999987438321 800
8.63999987393618 775
8.65999987348914 765
8.67999987304211 754
8.69999987259507 796
8.71999987214804 786
8.739999871701 754
8.75999987125397 794
8.77999987080693 757
8.7999998703599 765
8.81999986991286 770
8.83999986946583 815
8.85999986901879 782
8.87999986857176 791
8.89999986812472 758
8.91999986767769 799
8.93999986723065 751
8.95999986678362 766
8.97999986633658 789
8.99999986588955 782
9.01999986544251 778
9.03999986499548 840
9.05999986454844 789
9.07999986410141 774
9.09999986365438 786
9.11999986320734 816
9.13999986276031 779
9.15999986231327 826
9.17999986186624 846
9.1999998614192 811
9.21999986097217 832
9.23999986052513 820
9.2599998600781 894
9.27999985963106 939
9.29999985918403 988
9.31999985873699 992
9.33999985828996 1010
9.35999985784292 1010
9.37999985739589 1038
9.39999985694885 885
9.41999985650182 895
9.43999985605478 891
9.45999985560775 850
9.47999985516071 830
9.49999985471368 823
9.51999985426664 780
9.53999985381961 797
9.55999985337257 799
9.57999985292554 768
9.5999998524785 841
9.61999985203147 705
9.63999985158443 759
9.6599998511374 774
9.67999985069037 764
9.69999985024333 791
9.7199998497963 759
9.73999984934926 797
9.75999984890223 740
9.77999984845519 821
9.79999984800816 767
9.81999984756112 803
9.83999984711409 755
9.85999984666705 795
9.87999984622002 749
9.89999984577298 747
9.91999984532595 758
9.93999984487891 826
9.95999984443188 749
9.97999984398484 761
9.99999984353781 775
10.0199998430908 771
10.0399998426437 723
10.0599998421967 785
10.0799998417497 769
10.0999998413026 806
10.1199998408556 768
10.1399998404086 751
10.1599998399615 773
10.1799998395145 812
10.1999998390675 796
10.2199998386204 731
10.2399998381734 769
10.2599998377264 741
10.2799998372793 784
10.2999998368323 792
10.3199998363853 765
10.3399998359382 734
10.3599998354912 776
10.3799998350441 736
10.3999998345971 728
10.4199998341501 799
10.439999833703 818
10.459999833256 778
10.479999832809 760
10.4999998323619 774
10.5199998319149 822
10.5399998314679 805
10.5599998310208 823
10.5799998305738 789
10.5999998301268 794
10.6199998296797 773
10.6399998292327 800
10.6599998287857 801
10.6799998283386 823
10.6999998278916 810
10.7199998274446 898
10.7399998269975 879
10.7599998265505 819
10.7799998261034 897
10.7999998256564 822
10.8199998252094 936
10.8399998247623 872
10.8599998243153 842
10.8799998238683 801
10.8999998234212 818
10.9199998229742 828
10.9399998225272 797
10.9599998220801 767
10.9799998216331 828
10.9999998211861 853
11.019999820739 797
11.039999820292 821
11.059999819845 839
11.0799998193979 784
11.0999998189509 775
11.1199998185039 796
11.1399998180568 777
11.1599998176098 774
11.1799998171628 751
11.1999998167157 812
11.2199998162687 805
11.2399998158216 760
11.2599998153746 834
11.2799998149276 766
11.2999998144805 739
11.3199998140335 778
11.3399998135865 748
11.3599998131394 757
11.3799998126924 796
11.3999998122454 750
11.4199998117983 806
11.4399998113513 744
11.4599998109043 778
11.4799998104572 811
11.4999998100102 763
11.5199998095632 800
11.5399998091161 786
11.5599998086691 745
11.5799998082221 842
11.599999807775 824
11.619999807328 769
11.639999806881 822
11.6599998064339 808
11.6799998059869 814
11.6999998055398 813
11.7199998050928 784
11.7399998046458 746
11.7599998041987 793
11.7799998037517 783
11.7999998033047 806
11.8199998028576 848
11.8399998024106 810
11.8599998019636 774
11.8799998015165 795
11.8999998010695 803
11.9199998006225 794
11.9399998001754 767
11.9599997997284 799
11.9799997992814 765
11.9999997988343 832
12.0199997983873 822
12.0399997979403 825
12.0599997974932 837
12.0799997970462 820
12.0999997965992 816
12.1199997961521 823
12.1399997957051 796
12.159999795258 860
12.179999794811 818
12.199999794364 876
12.2199997939169 828
12.2399997934699 877
12.2599997930229 861
12.2799997925758 859
12.2999997921288 828
12.3199997916818 821
12.3399997912347 808
12.3599997907877 788
12.3799997903407 810
12.3999997898936 826
12.4199997894466 850
12.4399997889996 835
12.4599997885525 837
12.4799997881055 921
12.4999997876585 818
12.5199997872114 813
12.5399997867644 844
12.5599997863173 851
12.5799997858703 842
12.5999997854233 876
12.6199997849762 831
12.6399997845292 813
12.6599997840822 826
12.6799997836351 883
12.6999997831881 865
12.7199997827411 827
12.739999782294 805
12.759999781847 875
12.7799997814 809
12.7999997809529 857
12.8199997805059 872
12.8399997800589 846
12.8599997796118 816
12.8799997791648 860
12.8999997787178 892
12.9199997782707 901
12.9399997778237 870
12.9599997773767 839
12.9799997769296 833
12.9999997764826 858
13.0199997760355 870
13.0399997755885 867
13.0599997751415 801
13.0799997746944 885
13.0999997742474 897
13.1199997738004 900
13.1399997733533 922
13.1599997729063 913
13.1799997724593 901
13.1999997720122 873
13.2199997715652 842
13.2399997711182 913
13.2599997706711 852
13.2799997702241 922
13.2999997697771 904
13.31999976933 850
13.339999768883 897
13.359999768436 900
13.3799997679889 892
13.3999997675419 891
13.4199997670949 929
13.4399997666478 947
13.4599997662008 913
13.4799997657537 897
13.4999997653067 839
13.5199997648597 863
13.5399997644126 871
13.5599997639656 919
13.5799997635186 920
13.5999997630715 883
13.6199997626245 923
13.6399997621775 912
13.6599997617304 912
13.6799997612834 948
13.6999997608364 948
13.7199997603893 936
13.7399997599423 912
13.7599997594953 961
13.7799997590482 916
13.7999997586012 897
13.8199997581542 923
13.8399997577071 943
13.8599997572601 944
13.879999756813 967
13.899999756366 993
13.919999755919 929
13.9399997554719 901
13.9599997550249 920
13.9799997545779 956
13.9999997541308 955
14.0199997536838 982
14.0399997532368 974
14.0599997527897 940
14.0799997523427 954
14.0999997518957 909
14.1199997514486 923
14.1399997510016 959
14.1599997505546 924
14.1799997501075 977
14.1999997496605 964
14.2199997492135 981
14.2399997487664 965
14.2599997483194 1015
14.2799997478724 1002
14.2999997474253 974
14.3199997469783 1013
14.3399997465312 1020
14.3599997460842 1005
14.3799997456372 940
14.3999997451901 936
14.4199997447431 955
14.4399997442961 1003
14.459999743849 1007
14.479999743402 1009
14.499999742955 1027
14.5199997425079 960
14.5399997420609 978
14.5599997416139 1000
14.5799997411668 978
14.5999997407198 967
14.6199997402728 991
14.6399997398257 967
14.6599997393787 971
14.6799997389317 1026
14.6999997384846 976
14.7199997380376 1000
14.7399997375906 1036
14.7599997371435 1016
14.7799997366965 974
14.7999997362494 1025
14.8199997358024 1083
14.8399997353554 1015
14.8599997349083 1029
14.8799997344613 1017
14.8999997340143 1029
14.9199997335672 979
14.9399997331202 1006
14.9599997326732 981
14.9799997322261 1010
14.9999997317791 1015
15.0199997313321 1056
15.039999730885 1087
15.059999730438 1032
15.079999729991 1104
15.0999997295439 1079
15.1199997290969 1072
15.1399997286499 1052
15.1599997282028 1057
15.1799997277558 1080
15.1999997273088 998
15.2199997268617 1081
15.2399997264147 1101
15.2599997259676 1060
15.2799997255206 1089
15.2999997250736 1074
15.3199997246265 1118
15.3399997241795 1059
15.3599997237325 1092
15.3799997232854 1146
15.3999997228384 1103
15.4199997223914 1057
15.4399997219443 1122
15.4599997214973 1075
15.4799997210503 1050
15.4999997206032 1081
15.5199997201562 1057
15.5399997197092 1082
15.5599997192621 1116
15.5799997188151 1146
15.5999997183681 1193
15.619999717921 1081
15.639999717474 1133
15.659999717027 1161
15.6799997165799 1113
15.6999997161329 1076
15.7199997156858 1102
15.7399997152388 1157
15.7599997147918 1146
15.7799997143447 1086
15.7999997138977 1110
15.8199997134507 1111
15.8399997130036 1140
15.8599997125566 1133
15.8799997121096 1147
15.8999997116625 1097
15.9199997112155 1166
15.9399997107685 1220
15.9599997103214 1164
15.9799997098744 1098
15.9999997094274 1128
16.0199997089803 1198
16.0399997085333 1199
16.0599997080863 1159
16.0799997076392 1196
16.0999997071922 1155
16.1199997067451 1137
16.1399997062981 1215
16.1599997058511 1142
16.179999705404 1222
16.199999704957 1199
16.21999970451 1182
16.2399997040629 1241
16.2599997036159 1215
16.2799997031689 1269
16.2999997027218 1216
16.3199997022748 1185
16.3399997018278 1217
16.3599997013807 1209
16.3799997009337 1179
16.3999997004867 1277
16.4199997000396 1245
16.4399996995926 1194
16.4599996991456 1290
16.4799996986985 1309
16.4999996982515 1219
16.5199996978045 1236
16.5399996973574 1262
16.5599996969104 1292
16.5799996964633 1289
16.5999996960163 1348
16.6199996955693 1306
16.6399996951222 1320
16.6599996946752 1241
16.6799996942282 1356
16.6999996937811 1291
16.7199996933341 1386
16.7399996928871 1394
16.75999969244 1319
16.779999691993 1440
16.799999691546 1368
16.8199996910989 1423
16.8399996906519 1482
16.8599996902049 1529
16.8799996897578 1564
16.8999996893108 1621
16.9199996888638 1658
16.9399996884167 1802
16.9599996879697 1882
16.9799996875226 2016
16.9999996870756 2155
17.0199996866286 2123
17.0399996861815 2079
17.0599996857345 1980
17.0799996852875 1832
17.0999996848404 1678
17.1199996843934 1598
17.1399996839464 1530
17.1599996834993 1509
17.1799996830523 1435
17.1999996826053 1455
17.2199996821582 1444
17.2399996817112 1460
17.2599996812642 1469
17.2799996808171 1414
17.2999996803701 1416
17.3199996799231 1396
17.339999679476 1436
17.359999679029 1467
17.379999678582 1459
17.3999996781349 1405
17.4199996776879 1459
17.4399996772408 1437
17.4599996767938 1436
17.4799996763468 1413
17.4999996758997 1487
17.5199996754527 1479
17.5399996750057 1452
17.5599996745586 1460
17.5799996741116 1416
17.5999996736646 1506
17.6199996732175 1415
17.6399996727705 1487
17.6599996723235 1461
17.6799996718764 1496
17.6999996714294 1532
17.7199996709824 1513
17.7399996705353 1581
17.7599996700883 1483
17.7799996696413 1453
17.7999996691942 1510
17.8199996687472 1570
17.8399996683002 1554
17.8599996678531 1566
17.8799996674061 1555
17.899999666959 1557
17.919999666512 1542
17.939999666065 1539
17.9599996656179 1574
17.9799996651709 1584
17.9999996647239 1564
18.0199996642768 1705
18.0399996638298 1607
18.0599996633828 1598
18.0799996629357 1626
18.0999996624887 1606
18.1199996620417 1625
18.1399996615946 1546
18.1599996611476 1639
18.1799996607006 1651
18.1999996602535 1637
18.2199996598065 1655
18.2399996593595 1683
18.2599996589124 1562
18.2799996584654 1694
18.2999996580184 1714
18.3199996575713 1680
18.3399996571243 1675
18.3599996566772 1631
18.3799996562302 1675
18.3999996557832 1706
18.4199996553361 1729
18.4399996548891 1696
18.4599996544421 1660
18.479999653995 1656
18.499999653548 1652
18.519999653101 1748
18.5399996526539 1685
18.5599996522069 1699
18.5799996517599 1789
18.5999996513128 1717
18.6199996508658 1738
18.6399996504188 1684
18.6599996499717 1767
18.6799996495247 1749
18.6999996490777 1803
18.7199996486306 1806
18.7399996481836 1751
18.7599996477366 1762
18.7799996472895 1839
18.7999996468425 1775
18.8199996463954 1711
18.8399996459484 1851
18.8599996455014 1812
18.8799996450543 1884
18.8999996446073 1882
18.9199996441603 1826
18.9399996437132 1826
18.9599996432662 1771
18.9799996428192 1845
18.9999996423721 1856
19.0199996419251 1798
19.0399996414781 1847
19.059999641031 1869
19.079999640584 1791
19.099999640137 1862
19.1199996396899 1868
19.1399996392429 1876
19.1599996387959 1863
19.1799996383488 1862
19.1999996379018 1900
19.2199996374547 1890
19.2399996370077 1856
19.2599996365607 1838
19.2799996361136 1856
19.2999996356666 1895
19.3199996352196 1898
19.3399996347725 1960
19.3599996343255 1946
19.3799996338785 1952
19.3999996334314 1946
19.4199996329844 2009
19.4399996325374 1954
19.4599996320903 1991
19.4799996316433 1961
19.4999996311963 2019
19.5199996307492 1972
19.5399996303022 1983
19.5599996298552 1970
19.5799996294081 1952
19.5999996289611 1940
19.6199996285141 1980
19.639999628067 1977
19.65999962762 1986
19.6799996271729 2014
19.6999996267259 2030
19.7199996262789 1971
19.7399996258318 2007
19.7599996253848 1882
19.7799996249378 1967
19.7999996244907 2086
19.8199996240437 1972
19.8399996235967 1976
19.8599996231496 2063
19.8799996227026 2042
19.8999996222556 2048
19.9199996218085 2021
19.9399996213615 2002
19.9599996209145 2068
19.9799996204674 2008
19.9999996200204 2015
