3 2902
3.01999999955297 2695
3.03999999910593 2587
3.0599999986589 2578
3.07999999821186 2335
3.09999999776483 2341
3.11999999731779 2265
3.13999999687076 2131
3.15999999642372 2197
3.17999999597669 2279
3.19999999552965 2147
3.21999999508262 2085
3.23999999463558 2059
3.25999999418855 1960
3.27999999374151 2075
3.29999999329448 2018
3.31999999284744 2031
3.33999999240041 2010
3.35999999195337 1889
3.37999999150634 1961
3.3999999910593 1947
3.41999999061227 1867
3.43999999016523 1917
3.4599999897182 1902
3.47999998927116 1847
3.49999998882413 1850
3.51999998837709 1838
3.53999998793006 1802
3.55999998748302 1842
3.57999998703599 1813
3.59999998658895 1784
3.61999998614192 1793
3.63999998569489 1831
3.65999998524785 1788
3.67999998480082 1792
3.69999998435378 1794
3.71999998390675 1828
3.73999998345971 1788
3.75999998301268 1767
3.77999998256564 1772
3.79999998211861 1772
3.81999998167157 1742
3.83999998122454 1780
3.8599999807775 1783
3.87999998033047 1763
3.89999997988343 1846
3.9199999794364 1792
3.93999997898936 1811
3.95999997854233 1801
3.97999997809529 1884
3.99999997764826 1944
4.01999997720122 2057
4.03999997675419 2025
4.05999997630715 2032
4.07999997586012 2082
4.09999997541308 2035
4.11999997496605 2092
4.13999997451901 1987
4.15999997407198 2004
4.17999997362494 1977
4.19999997317791 1781
4.21999997273087 1740
4.23999997228384 1744
4.25999997183681 1620
4.27999997138977 1642
4.29999997094274 1578
4.3199999704957 1511
4.33999997004867 1447
4.35999996960163 1413
4.3799999691546 1416
4.39999996870756 1340
4.41999996826053 1324
4.43999996781349 1350
4.45999996736646 1311
4.47999996691942 1265
4.49999996647239 1283
4.51999996602535 1271
4.53999996557832 1270
4.55999996513128 1357
4.57999996468425 1233
4.59999996423721 1250
4.61999996379018 1265
4.63999996334314 1337
4.65999996289611 1270
4.67999996244907 1201
4.69999996200204 1249
4.719999961555 1235
4.73999996110797 1223
4.75999996066093 1286
4.7799999602139 1278
4.79999995976686 1199
4.81999995931983 1258
4.83999995887279 1307
4.85999995842576 1294
4.87999995797873 1317
4.89999995753169 1327
4.91999995708466 1300
4.93999995663762 1316
4.95999995619059 1291
4.97999995574355 1354
4.99999995529652 1362
5.01999995484948 1488
5.03999995440245 1451
5.05999995395541 1470
5.07999995350838 1501
5.09999995306134 1555
5.11999995261431 1626
5.13999995216727 1696
5.15999995172024 1782
5.1799999512732 1816
5.19999995082617 1926
5.21999995037913 1983
5.2399999499321 2153
5.25999994948506 2256
5.27999994903803 2335
5.29999994859099 2503
5.31999994814396 2794
5.33999994769692 3012
5.35999994724989 3408
5.37999994680285 3877
5.39999994635582 4463
5.41999994590878 4494
5.43999994546175 3803
5.45999994501471 3115
5.47999994456768 2785
5.49999994412065 2620
5.51999994367361 2475
5.53999994322658 2497
5.55999994277954 2522
5.57999994233251 2486
5.59999994188547 2568
5.61999994143844 2619
5.6399999409914 2692
5.65999994054437 2779
5.67999994009733 2966
5.6999999396503 3105
5.71999993920326 3320
5.73999993875623 3495
5.75999993830919 3465
5.77999993786216 3192
5.79999993741512 2704
5.81999993696809 2176
5.83999993652105 1684
5.85999993607402 1459
5.87999993562698 1276
5.89999993517995 1162
5.91999993473291 1115
5.93999993428588 1079
5.95999993383884 1014
5.97999993339181 971
5.99999993294477 927
6.01999993249774 973
6.0399999320507 902
6.05999993160367 887
6.07999993115663 835
6.0999999307096 835
6.11999993026257 848
6.13999992981553 891
6.1599999293685 868
6.17999992892146 816
6.19999992847443 793
6.21999992802739 803
6.23999992758036 765
6.25999992713332 799
6.27999992668629 865
6.29999992623925 828
6.31999992579222 894
6.33999992534518 854
6.35999992489815 786
6.37999992445111 805
6.39999992400408 804
6.41999992355704 827
6.43999992311001 812
6.45999992266297 778
6.47999992221594 841
6.4999999217689 801
6.51999992132187 807
6.53999992087483 855
6.5599999204278 799
6.57999991998076 875
6.59999991953373 799
6.61999991908669 868
6.63999991863966 882
6.65999991819262 928
6.67999991774559 925
6.69999991729855 901
6.71999991685152 884
6.73999991640449 934
6.75999991595745 932
6.77999991551042 891
6.79999991506338 856
6.81999991461635 853
6.83999991416931 809
6.85999991372228 779
6.87999991327524 747
6.89999991282821 750
6.91999991238117 735
6.93999991193414 742
6.9599999114871 744
6.97999991104007 695
6.99999991059303 710
7.019999910146 689
7.03999990969896 692
7.05999990925193 711
7.07999990880489 710
7.09999990835786 720
7.11999990791082 684
7.13999990746379 643
7.15999990701675 676
7.17999990656972 758
7.19999990612268 718
7.21999990567565 688
7.23999990522861 694
7.25999990478158 667
7.27999990433454 691
7.29999990388751 695
7.31999990344047 701
7.33999990299344 703
7.35999990254641 650
7.37999990209937 644
7.39999990165234 657
7.4199999012053 690
7.43999990075827 683
7.45999990031123 662
7.4799998998642 649
7.49999989941716 690
7.51999989897013 638
7.53999989852309 667
7.55999989807606 634
7.57999989762902 626
7.59999989718199 660
7.61999989673495 667
7.63999989628792 648
7.65999989584088 687
7.67999989539385 630
7.69999989494681 659
7.71999989449978 687
7.73999989405274 636
7.75999989360571 651
7.77999989315867 653
7.79999989271164 637
7.8199998922646 634
7.83999989181757 686
7.85999989137053 644
7.8799998909235 671
7.89999989047646 680
7.91999989002943 669
7.9399998895824 711
7.95999988913536 675
7.97999988868833 679
7.99999988824129 716
8.01999988779426 680
8.03999988734722 688
8.05999988690019 678
8.07999988645315 719
8.09999988600612 730
8.11999988555908 689
8.13999988511205 712
8.15999988466501 684
8.17999988421798 698
8.19999988377094 744
8.21999988332391 699
8.23999988287687 657
8.25999988242984 669
8.2799998819828 695
8.29999988153577 632
8.31999988108873 674
8.3399998806417 672
8.35999988019466 603
8.37999987974763 670
8.39999987930059 607
8.41999987885356 658
8.43999987840652 630
8.45999987795949 647
8.47999987751245 629
8.49999987706542 632
8.51999987661839 569
8.53999987617135 652
8.55999987572432 609
8.57999987527728 632
8.59999987483025 610
8.61999987438321 564
8.63999987393618 581
8.65999987348914 631
8.67999987304211 590
8.69999987259507 647
8.71999987214804 605
8.739999871701 617
8.75999987125397 634
8.77999987080693 638
8.7999998703599 588
8.81999986991286 619
8.83999986946583 618
8.85999986901879 637
8.87999986857176 648
8.89999986812472 635
8.91999986767769 654
8.93999986723065 693
8.95999986678362 630
8.97999986633658 675
8.99999986588955 668
9.01999986544251 743
9.03999986499548 752
9.05999986454844 730
9.07999986410141 781
9.09999986365438 775
9.11999986320734 849
9.13999986276031 874
9.15999986231327 880
9.17999986186624 994
9.1999998614192 938
9.21999986097217 1106
9.23999986052513 1200
9.2599998600781 1267
9.27999985963106 1467
9.29999985918403 1688
9.31999985873699 2018
9.33999985828996 1928
9.35999985784292 1446
9.37999985739589 1001
9.39999985694885 786
9.41999985650182 722
9.43999985605478 710
9.45999985560775 720
9.47999985516071 670
9.49999985471368 603
9.51999985426664 704
9.53999985381961 661
9.55999985337257 643
9.57999985292554 646
9.5999998524785 625
9.61999985203147 628
9.63999985158443 632
9.6599998511374 633
9.67999985069037 642
9.69999985024333 639
9.7199998497963 624
9.73999984934926 631
9.75999984890223 606
9.77999984845519 614
9.79999984800816 620
9.81999984756112 637
9.83999984711409 704
9.85999984666705 662
9.87999984622002 610
9.89999984577298 663
9.91999984532595 711
9.93999984487891 648
9.95999984443188 679
9.97999984398484 656
9.99999984353781 631
10.0199998430908 669
10.0399998426437 670
10.0599998421967 682
10.0799998417497 742
10.0999998413026 728
10.1199998408556 762
10.1399998404086 746
10.1599998399615 746
10.1799998395145 731
10.1999998390675 772
10.2199998386204 773
10.2399998381734 670
10.2599998377264 667
10.2799998372793 669
10.2999998368323 591
10.3199998363853 620
10.3399998359382 595
10.3599998354912 599
10.3799998350441 573
10.3999998345971 593
10.4199998341501 646
10.439999833703 636
10.459999833256 603
10.479999832809 646
10.4999998323619 610
10.5199998319149 629
10.5399998314679 691
10.5599998310208 671
10.5799998305738 678
10.5999998301268 687
10.6199998296797 709
10.6399998292327 769
10.6599998287857 757
10.6799998283386 822
10.6999998278916 831
10.7199998274446 864
10.7399998269975 977
10.7599998265505 1068
10.7799998261034 1090
10.7999998256564 1029
10.8199998252094 932
10.8399998247623 956
10.8599998243153 919
10.8799998238683 896
10.8999998234212 1017
10.9199998229742 1012
10.9399998225272 1087
10.9599998220801 1007
10.9799998216331 927
10.9999998211861 874
11.019999820739 708
11.039999820292 688
11.059999819845 630
11.0799998193979 670
11.0999998189509 601
11.1199998185039 576
11.1399998180568 650
11.1599998176098 621
11.1799998171628 593
11.1999998167157 609
11.2199998162687 635
11.2399998158216 636
11.2599998153746 656
11.2799998149276 627
11.2999998144805 639
11.3199998140335 651
11.3399998135865 681
11.3599998131394 699
11.3799998126924 633
11.3999998122454 652
11.4199998117983 701
11.4399998113513 705
11.4599998109043 717
11.4799998104572 705
11.4999998100102 713
11.5199998095632 717
11.5399998091161 701
11.5599998086691 694
11.5799998082221 702
11.599999807775 657
11.619999807328 576
11.639999806881 632
11.6599998064339 619
11.6799998059869 604
11.6999998055398 590
11.7199998050928 603
11.7399998046458 612
11.7599998041987 625
11.7799998037517 621
11.7999998033047 585
11.8199998028576 612
11.8399998024106 596
11.8599998019636 613
11.8799998015165 592
11.8999998010695 646
11.9199998006225 609
11.9399998001754 644
11.9599997997284 633
11.9799997992814 651
11.9999997988343 582
12.0199997983873 599
12.0399997979403 680
12.0599997974932 661
12.0799997970462 651
12.0999997965992 724
12.1199997961521 736
12.1399997957051 716
12.159999795258 774
12.179999794811 761
12.199999794364 772
12.2199997939169 780
12.2399997934699 818
12.2599997930229 773
12.2799997925758 754
12.2999997921288 741
12.3199997916818 716
12.3399997912347 714
12.3599997907877 656
12.3799997903407 686
12.3999997898936 656
12.4199997894466 644
12.4399997889996 725
12.4599997885525 637
12.4799997881055 624
12.4999997876585 626
12.5199997872114 648
12.5399997867644 641
12.5599997863173 640
12.5799997858703 614
12.5999997854233 652
12.6199997849762 612
12.6399997845292 655
12.6599997840822 588
12.6799997836351 627
12.6999997831881 617
12.7199997827411 657
12.739999782294 610
12.759999781847 621
12.7799997814 556
12.7999997809529 644
12.8199997805059 607
12.8399997800589 630
12.8599997796118 607
12.8799997791648 630
12.8999997787178 658
12.9199997782707 617
12.9399997778237 598
12.9599997773767 637
12.9799997769296 619
12.9999997764826 629
13.0199997760355 581
13.0399997755885 597
13.0599997751415 622
13.0799997746944 600
13.0999997742474 639
13.1199997738004 620
13.1399997733533 628
13.1599997729063 645
13.1799997724593 612
13.1999997720122 633
13.2199997715652 654
13.2399997711182 704
13.2599997706711 694
13.2799997702241 725
13.2999997697771 668
13.31999976933 620
13.339999768883 661
13.359999768436 623
13.3799997679889 636
13.3999997675419 642
13.4199997670949 642
13.4399997666478 657
13.4599997662008 638
13.4799997657537 650
13.4999997653067 660
13.5199997648597 602
13.5399997644126 643
13.5599997639656 618
13.5799997635186 661
13.5999997630715 668
13.6199997626245 602
13.6399997621775 665
13.6599997617304 631
13.6799997612834 627
13.6999997608364 650
13.7199997603893 617
13.7399997599423 622
13.7599997594953 612
13.7799997590482 645
13.7999997586012 660
13.8199997581542 632
13.8399997577071 611
13.8599997572601 696
13.879999756813 685
13.899999756366 672
13.919999755919 664
13.9399997554719 611
13.9599997550249 592
13.9799997545779 635
13.9999997541308 642
14.0199997536838 655
14.0399997532368 659
14.0599997527897 657
14.0799997523427 658
14.0999997518957 674
14.1199997514486 678
14.1399997510016 636
14.1599997505546 649
14.1799997501075 673
14.1999997496605 732
14.2199997492135 713
14.2399997487664 716
14.2599997483194 654
14.2799997478724 693
14.2999997474253 690
14.3199997469783 715
14.3399997465312 658
14.3599997460842 761
14.3799997456372 725
14.3999997451901 724
14.4199997447431 706
14.4399997442961 691
14.459999743849 685
14.479999743402 697
14.499999742955 672
14.5199997425079 700
14.5399997420609 637
14.5599997416139 713
14.5799997411668 645
14.5999997407198 719
14.6199997402728 656
14.6399997398257 759
14.6599997393787 712
14.6799997389317 691
14.6999997384846 671
14.7199997380376 686
14.7399997375906 712
14.7599997371435 690
14.7799997366965 678
14.7999997362494 699
14.8199997358024 728
14.8399997353554 748
14.8599997349083 740
14.8799997344613 728
14.8999997340143 716
14.9199997335672 751
14.9399997331202 713
14.9599997326732 711
14.9799997322261 697
14.9999997317791 685
15.0199997313321 665
15.039999730885 713
15.059999730438 721
15.079999729991 672
15.0999997295439 682
15.1199997290969 685
15.1399997286499 722
15.1599997282028 673
15.1799997277558 775
15.1999997273088 735
15.2199997268617 708
15.2399997264147 725
15.2599997259676 671
15.2799997255206 714
15.2999997250736 720
15.3199997246265 761
15.3399997241795 756
15.3599997237325 725
15.3799997232854 737
15.3999997228384 703
15.4199997223914 728
15.4399997219443 755
15.4599997214973 769
15.4799997210503 727
15.4999997206032 652
15.5199997201562 722
15.5399997197092 748
15.5599997192621 741
15.5799997188151 758
15.5999997183681 772
15.619999717921 701
15.639999717474 733
15.659999717027 691
15.6799997165799 739
15.6999997161329 751
15.7199997156858 733
15.7399997152388 713
15.7599997147918 775
15.7799997143447 761
15.7999997138977 771
15.8199997134507 757
15.8399997130036 720
15.8599997125566 760
15.8799997121096 736
15.8999997116625 771
15.9199997112155 769
15.9399997107685 739
15.9599997103214 693
15.9799997098744 779
15.9999997094274 776
16.0199997089803 813
16.0399997085333 813
16.0599997080863 696
16.0799997076392 794
16.0999997071922 807
16.1199997067451 838
16.1399997062981 826
16.1599997058511 846
16.179999705404 882
16.199999704957 811
16.21999970451 813
16.2399997040629 829
16.2599997036159 878
16.2799997031689 845
16.2999997027218 848
16.3199997022748 867
16.3399997018278 868
16.3599997013807 902
16.3799997009337 879
16.3999997004867 855
16.4199997000396 832
16.4399996995926 898
16.4599996991456 865
16.4799996986985 868
16.4999996982515 875
16.5199996978045 884
16.5399996973574 832
16.5599996969104 897
16.5799996964633 815
16.5999996960163 838
16.6199996955693 820
16.6399996951222 894
16.6599996946752 859
16.6799996942282 944
16.6999996937811 896
16.7199996933341 1005
16.7399996928871 961
16.75999969244 956
16.779999691993 974
16.799999691546 1009
16.8199996910989 1109
16.8399996906519 1145
16.8599996902049 1167
16.8799996897578 1208
16.8999996893108 1360
16.9199996888638 1482
16.9399996884167 1798
16.9599996879697 1927
16.9799996875226 2249
16.9999996870756 2390
17.0199996866286 2128
17.0399996861815 1811
17.0599996857345 1448
17.0799996852875 1305
17.0999996848404 1047
17.1199996843934 1045
17.1399996839464 1012
17.1599996834993 966
17.1799996830523 968
17.1999996826053 960
17.2199996821582 974
17.2399996817112 1025
17.2599996812642 1004
17.2799996808171 972
17.2999996803701 1017
17.3199996799231 986
17.339999679476 971
17.359999679029 973
17.379999678582 974
17.3999996781349 937
17.4199996776879 953
17.4399996772408 897
17.4599996767938 925
17.4799996763468 930
17.4999996758997 908
17.5199996754527 965
17.5399996750057 953
17.5599996745586 913
17.5799996741116 956
17.5999996736646 900
17.6199996732175 959
17.6399996727705 935
17.6599996723235 979
17.6799996718764 1014
17.6999996714294 1000
17.7199996709824 961
17.7399996705353 1029
17.7599996700883 958
17.7799996696413 942
17.7999996691942 1018
17.8199996687472 1013
17.8399996683002 975
17.8599996678531 1022
17.8799996674061 1047
17.899999666959 1057
17.919999666512 997
17.939999666065 1001
17.9599996656179 962
17.9799996651709 1036
17.9999996647239 1006
18.0199996642768 1032
18.0399996638298 1051
18.0599996633828 1074
18.0799996629357 985
18.0999996624887 1048
18.1199996620417 1027
18.1399996615946 1019
18.1599996611476 1033
18.1799996607006 995
18.1999996602535 1074
18.2199996598065 1048
18.2399996593595 1026
18.2599996589124 1011
18.2799996584654 1039
18.2999996580184 1050
18.3199996575713 1040
18.3399996571243 1064
18.3599996566772 1098
18.3799996562302 1008
18.3999996557832 1039
18.4199996553361 1057
18.4399996548891 1092
18.4599996544421 1075
18.479999653995 995
18.499999653548 1111
18.519999653101 1078
18.5399996526539 1070
18.5599996522069 1095
18.5799996517599 1069
18.5999996513128 1096
18.6199996508658 1088
18.6399996504188 1183
18.6599996499717 1229
18.6799996495247 1211
18.6999996490777 1115
18.7199996486306 1174
18.7399996481836 1108
18.7599996477366 1184
18.7799996472895 1186
18.7999996468425 1137
18.8199996463954 1138
18.8399996459484 1170
18.8599996455014 1208
18.8799996450543 1256
18.8999996446073 1203
18.9199996441603 1194
18.9399996437132 1186
18.9599996432662 1176
18.9799996428192 1237
18.9999996423721 1288
19.0199996419251 1204
19.0399996414781 1231
19.059999641031 1260
19.079999640584 1289
19.099999640137 1246
19.1199996396899 1235
19.1399996392429 1269
19.1599996387959 1222
19.1799996383488 1261
19.1999996379018 1267
19.2199996374547 1242
19.2399996370077 1213
19.2599996365607 1168
19.2799996361136 1188
19.2999996356666 1145
19.3199996352196 1280
19.3399996347725 1268
19.3599996343255 1309
19.3799996338785 1367
19.3999996334314 1392
19.4199996329844 1368
19.4399996325374 1420
19.4599996320903 1406
19.4799996316433 1385
19.4999996311963 1426
19.5199996307492 1430
19.5399996303022 1472
19.5599996298552 1357
19.5799996294081 1396
19.5999996289611 1283
19.6199996285141 1326
19.639999628067 1255
19.65999962762 1210
19.6799996271729 1198
19.6999996267259 1166
19.7199996262789 1256
19.7399996258318 1290
19.7599996253848 1287
19.7799996249378 1279
19.7999996244907 1284
19.8199996240437 1303
19.8399996235967 1315
19.8599996231496 1323
19.8799996227026 1292
19.8999996222556 1264
19.9199996218085 1322
19.9399996213615 1296
19.9599996209145 1246
19.9799996204674 1287
19.9999996200204 1252
