3 2516
3.01999999955297 2303
3.03999999910593 2171
3.0599999986589 2059
3.07999999821186 1916
3.09999999776483 1826
3.11999999731779 1750
3.13999999687076 1762
3.15999999642372 1770
3.17999999597669 1679
3.19999999552965 1656
3.21999999508262 1644
3.23999999463558 1554
3.25999999418855 1571
3.27999999374151 1611
3.29999999329448 1658
3.31999999284744 1566
3.33999999240041 1533
3.35999999195337 1555
3.37999999150634 1534
3.3999999910593 1458
3.41999999061227 1486
3.43999999016523 1460
3.4599999897182 1446
3.47999998927116 1376
3.49999998882413 1350
3.51999998837709 1443
3.53999998793006 1356
3.55999998748302 1333
3.57999998703599 1371
3.59999998658895 1378
3.61999998614192 1329
3.63999998569489 1328
3.65999998524785 1370
3.67999998480082 1342
3.69999998435378 1219
3.71999998390675 1353
3.73999998345971 1251
3.75999998301268 1298
3.77999998256564 1216
3.79999998211861 1317
3.81999998167157 1231
3.83999998122454 1200
3.8599999807775 1144
3.87999998033047 1167
3.89999997988343 1253
3.9199999794364 1195
3.93999997898936 1178
3.95999997854233 1218
3.97999997809529 1132
3.99999997764826 1141
4.01999997720122 1196
4.03999997675419 1134
4.05999997630715 1154
4.07999997586012 1160
4.09999997541308 1101
4.11999997496605 1108
4.13999997451901 1161
4.15999997407198 1094
4.17999997362494 1056
4.19999997317791 1130
4.21999997273087 1098
4.23999997228384 1067
4.25999997183681 1034
4.27999997138977 1062
4.29999997094274 1026
4.3199999704957 958
4.33999997004867 984
4.35999996960163 985
4.3799999691546 952
4.39999996870756 976
4.41999996826053 1011
4.43999996781349 945
4.45999996736646 973
4.47999996691942 930
4.49999996647239 987
4.51999996602535 935
4.53999996557832 920
4.55999996513128 872
4.57999996468425 948
4.59999996423721 939
4.61999996379018 933
4.63999996334314 963
4.65999996289611 893
4.67999996244907 952
4.69999996200204 947
4.719999961555 908
4.73999996110797 888
4.75999996066093 905
4.7799999602139 914
4.79999995976686 892
4.81999995931983 942
4.83999995887279 870
4.85999995842576 893
4.87999995797873 950
4.89999995753169 924
4.91999995708466 905
4.93999995663762 939
4.95999995619059 918
4.97999995574355 919
4.99999995529652 943
5.01999995484948 984
5.03999995440245 1034
5.05999995395541 1026
5.07999995350838 1002
5.09999995306134 987
5.11999995261431 1030
5.13999995216727 1093
5.15999995172024 1122
5.1799999512732 1114
5.19999995082617 1027
5.21999995037913 1196
5.2399999499321 1184
5.25999994948506 1309
5.27999994903803 1314
5.29999994859099 1320
5.31999994814396 1435
5.33999994769692 1485
5.35999994724989 1603
5.37999994680285 1809
5.39999994635582 1956
5.41999994590878 1980
5.43999994546175 1963
5.45999994501471 1889
5.47999994456768 1853
5.49999994412065 1719
5.51999994367361 1577
5.53999994322658 1618
5.55999994277954 1475
5.57999994233251 1364
5.59999994188547 1340
5.61999994143844 1365
5.6399999409914 1381
5.65999994054437 1405
5.67999994009733 1402
5.6999999396503 1489
5.71999993920326 1505
5.73999993875623 1500
5.75999993830919 1599
5.77999993786216 1491
5.79999993741512 1521
5.81999993696809 1303
5.83999993652105 1261
5.85999993607402 1191
5.87999993562698 1090
5.89999993517995 947
5.91999993473291 855
5.93999993428588 803
5.95999993383884 827
5.97999993339181 791
5.99999993294477 766
6.01999993249774 789
6.0399999320507 765
6.05999993160367 776
6.07999993115663 745
6.0999999307096 736
6.11999993026257 764
6.13999992981553 739
6.1599999293685 717
6.17999992892146 681
6.19999992847443 737
6.21999992802739 712
6.23999992758036 688
6.25999992713332 643
6.27999992668629 667
6.29999992623925 695
6.31999992579222 686
6.33999992534518 705
6.35999992489815 704
6.37999992445111 689
6.39999992400408 703
6.41999992355704 688
6.43999992311001 714
6.45999992266297 717
6.47999992221594 675
6.4999999217689 714
6.51999992132187 693
6.53999992087483 665
6.5599999204278 706
6.57999991998076 741
6.59999991953373 634
6.61999991908669 731
6.63999991863966 681
6.65999991819262 688
6.67999991774559 729
6.69999991729855 745
6.71999991685152 744
6.73999991640449 734
6.75999991595745 725
6.77999991551042 713
6.79999991506338 708
6.81999991461635 722
6.83999991416931 709
6.85999991372228 671
6.87999991327524 634
6.89999991282821 713
6.91999991238117 669
6.93999991193414 626
6.9599999114871 678
6.97999991104007 656
6.99999991059303 654
7.019999910146 655
7.03999990969896 664
7.05999990925193 701
7.07999990880489 635
7.09999990835786 664
7.11999990791082 656
7.13999990746379 618
7.15999990701675 638
7.17999990656972 653
7.19999990612268 657
7.21999990567565 673
7.23999990522861 663
7.25999990478158 685
7.27999990433454 638
7.29999990388751 603
7.31999990344047 663
7.33999990299344 662
7.35999990254641 639
7.37999990209937 637
7.39999990165234 623
7.4199999012053 630
7.43999990075827 653
7.45999990031123 611
7.4799998998642 621
7.49999989941716 629
7.51999989897013 649
7.53999989852309 640
7.55999989807606 615
7.57999989762902 656
7.59999989718199 655
7.61999989673495 672
7.63999989628792 625
7.65999989584088 602
7.67999989539385 628
7.69999989494681 620
7.71999989449978 626
7.73999989405274 649
7.75999989360571 653
7.77999989315867 591
7.79999989271164 650
7.8199998922646 628
7.83999989181757 628
7.85999989137053 639
7.8799998909235 646
7.89999989047646 649
7.91999989002943 644
7.9399998895824 653
7.95999988913536 614
7.97999988868833 641
7.99999988824129 645
8.01999988779426 639
8.03999988734722 637
8.05999988690019 654
8.07999988645315 646
8.09999988600612 667
8.11999988555908 618
8.13999988511205 642
8.15999988466501 627
8.17999988421798 645
8.19999988377094 614
8.21999988332391 650
8.23999988287687 611
8.25999988242984 643
8.2799998819828 647
8.29999988153577 659
8.31999988108873 627
8.3399998806417 631
8.35999988019466 619
8.37999987974763 649
8.39999987930059 599
8.41999987885356 596
8.43999987840652 673
8.45999987795949 597
8.47999987751245 616
8.49999987706542 619
8.51999987661839 620
8.53999987617135 612
8.55999987572432 567
8.57999987527728 617
8.59999987483025 594
8.61999987438321 584
8.63999987393618 629
8.65999987348914 648
8.67999987304211 637
8.69999987259507 629
8.71999987214804 629
8.739999871701 633
8.75999987125397 662
8.77999987080693 632
8.7999998703599 591
8.81999986991286 608
8.83999986946583 665
8.85999986901879 638
8.87999986857176 655
8.89999986812472 659
8.91999986767769 683
8.93999986723065 704
8.95999986678362 673
8.97999986633658 635
8.99999986588955 679
9.01999986544251 647
9.03999986499548 639
9.05999986454844 653
9.07999986410141 726
9.09999986365438 722
9.11999986320734 690
9.13999986276031 716
9.15999986231327 726
9.17999986186624 722
9.1999998614192 750
9.21999986097217 788
9.23999986052513 820
9.2599998600781 812
9.27999985963106 920
9.29999985918403 963
9.31999985873699 1063
9.33999985828996 1109
9.35999985784292 982
9.37999985739589 912
9.39999985694885 924
9.41999985650182 835
9.43999985605478 747
9.45999985560775 763
9.47999985516071 707
9.49999985471368 648
9.51999985426664 668
9.53999985381961 669
9.55999985337257 675
9.57999985292554 668
9.5999998524785 621
9.61999985203147 666
9.63999985158443 619
9.6599998511374 607
9.67999985069037 642
9.69999985024333 650
9.7199998497963 681
9.73999984934926 600
9.75999984890223 628
9.77999984845519 569
9.79999984800816 628
9.81999984756112 695
9.83999984711409 627
9.85999984666705 598
9.87999984622002 611
9.89999984577298 590
9.91999984532595 588
9.93999984487891 606
9.95999984443188 622
9.97999984398484 618
9.99999984353781 578
10.0199998430908 627
10.0399998426437 679
10.0599998421967 676
10.0799998417497 678
10.0999998413026 707
10.1199998408556 691
10.1399998404086 662
10.1599998399615 696
10.1799998395145 668
10.1999998390675 667
10.2199998386204 736
10.2399998381734 691
10.2599998377264 671
10.2799998372793 615
10.2999998368323 641
10.3199998363853 679
10.3399998359382 713
10.3599998354912 643
10.3799998350441 604
10.3999998345971 592
10.4199998341501 652
10.439999833703 609
10.459999833256 614
10.479999832809 622
10.4999998323619 620
10.5199998319149 626
10.5399998314679 676
10.5599998310208 689
10.5799998305738 653
10.5999998301268 673
10.6199998296797 706
10.6399998292327 682
10.6599998287857 702
10.6799998283386 720
10.6999998278916 715
10.7199998274446 699
10.7399998269975 748
10.7599998265505 794
10.7799998261034 809
10.7999998256564 883
10.8199998252094 799
10.8399998247623 779
10.8599998243153 753
10.8799998238683 770
10.8999998234212 772
10.9199998229742 765
10.9399998225272 732
10.9599998220801 746
10.9799998216331 765
10.9999998211861 732
11.019999820739 679
11.039999820292 681
11.059999819845 654
11.0799998193979 632
11.0999998189509 662
11.1199998185039 640
11.1399998180568 643
11.1599998176098 652
11.1799998171628 607
11.1999998167157 643
11.2199998162687 623
11.2399998158216 689
11.2599998153746 594
11.2799998149276 632
11.2999998144805 686
11.3199998140335 631
11.3399998135865 613
11.3599998131394 638
11.3799998126924 673
11.3999998122454 643
11.4199998117983 659
11.4399998113513 641
11.4599998109043 682
11.4799998104572 669
11.4999998100102 591
11.5199998095632 692
11.5399998091161 620
11.5599998086691 627
11.5799998082221 656
11.599999807775 620
11.619999807328 639
11.639999806881 641
11.6599998064339 659
11.6799998059869 640
11.6999998055398 636
11.7199998050928 662
11.7399998046458 613
11.7599998041987 671
11.7799998037517 654
11.7999998033047 656
11.8199998028576 674
11.8399998024106 624
11.8599998019636 601
11.8799998015165 631
11.8999998010695 589
11.9199998006225 643
11.9399998001754 657
11.9599997997284 671
11.9799997992814 653
11.9999997988343 614
12.0199997983873 688
12.0399997979403 660
12.0599997974932 678
12.0799997970462 700
12.0999997965992 696
12.1199997961521 636
12.1399997957051 647
12.159999795258 644
12.179999794811 719
12.199999794364 684
12.2199997939169 661
12.2399997934699 712
12.2599997930229 681
12.2799997925758 665
12.2999997921288 701
12.3199997916818 639
12.3399997912347 647
12.3599997907877 681
12.3799997903407 686
12.3999997898936 662
12.4199997894466 658
12.4399997889996 613
12.4599997885525 678
12.4799997881055 661
12.4999997876585 642
12.5199997872114 678
12.5399997867644 658
12.5599997863173 676
12.5799997858703 655
12.5999997854233 676
12.6199997849762 654
12.6399997845292 669
12.6599997840822 665
12.6799997836351 660
12.6999997831881 691
12.7199997827411 666
12.739999782294 655
12.759999781847 661
12.7799997814 702
12.7999997809529 667
12.8199997805059 695
12.8399997800589 683
12.8599997796118 658
12.8799997791648 672
12.8999997787178 644
12.9199997782707 647
12.9399997778237 669
12.9599997773767 682
12.9799997769296 654
12.9999997764826 666
13.0199997760355 681
13.0399997755885 706
13.0599997751415 729
13.0799997746944 703
13.0999997742474 664
13.1199997738004 662
13.1399997733533 671
13.1599997729063 712
13.1799997724593 749
13.1999997720122 707
13.2199997715652 684
13.2399997711182 652
13.2599997706711 712
13.2799997702241 713
13.2999997697771 746
13.31999976933 700
13.339999768883 682
13.359999768436 694
13.3799997679889 715
13.3999997675419 645
13.4199997670949 700
13.4399997666478 733
13.4599997662008 754
13.4799997657537 714
13.4999997653067 706
13.5199997648597 682
13.5399997644126 753
13.5599997639656 718
13.5799997635186 721
13.5999997630715 677
13.6199997626245 713
13.6399997621775 704
13.6599997617304 701
13.6799997612834 703
13.6999997608364 748
13.7199997603893 699
13.7399997599423 741
13.7599997594953 740
13.7799997590482 711
13.7999997586012 701
13.8199997581542 746
13.8399997577071 783
13.8599997572601 752
13.879999756813 712
13.899999756366 698
13.919999755919 691
13.9399997554719 720
13.9599997550249 746
13.9799997545779 733
13.9999997541308 766
14.0199997536838 775
14.0399997532368 777
14.0599997527897 769
14.0799997523427 720
14.0999997518957 769
14.1199997514486 769
14.1399997510016 783
14.1599997505546 706
14.1799997501075 750
14.1999997496605 768
14.2199997492135 756
14.2399997487664 786
14.2599997483194 747
14.2799997478724 771
14.2999997474253 755
14.3199997469783 786
14.3399997465312 783
14.3599997460842 820
14.3799997456372 809
14.3999997451901 794
14.4199997447431 761
14.4399997442961 755
14.459999743849 779
14.479999743402 807
14.499999742955 767
14.5199997425079 784
14.5399997420609 793
14.5599997416139 815
14.5799997411668 822
14.5999997407198 785
14.6199997402728 769
14.6399997398257 832
14.6599997393787 794
14.6799997389317 767
14.6999997384846 762
14.7199997380376 790
14.7399997375906 779
14.7599997371435 785
14.7799997366965 746
14.7999997362494 850
14.8199997358024 833
14.8399997353554 789
14.8599997349083 796
14.8799997344613 814
14.8999997340143 830
14.9199997335672 837
14.9399997331202 863
14.9599997326732 848
14.9799997322261 860
14.9999997317791 862
15.0199997313321 838
15.039999730885 814
15.059999730438 867
15.079999729991 881
15.0999997295439 843
15.1199997290969 821
15.1399997286499 810
15.1599997282028 887
15.1799997277558 834
15.1999997273088 882
15.2199997268617 874
15.2399997264147 818
15.2599997259676 849
15.2799997255206 859
15.2999997250736 906
15.3199997246265 851
15.3399997241795 850
15.3599997237325 884
15.3799997232854 856
15.3999997228384 854
15.4199997223914 885
15.4399997219443 869
15.4599997214973 922
15.4799997210503 898
15.4999997206032 875
15.5199997201562 878
15.5399997197092 890
15.5599997192621 869
15.5799997188151 858
15.5999997183681 910
15.619999717921 898
15.639999717474 846
15.659999717027 899
15.6799997165799 851
15.6999997161329 890
15.7199997156858 892
15.7399997152388 895
15.7599997147918 858
15.7799997143447 923
15.7999997138977 904
15.8199997134507 888
15.8399997130036 875
15.8599997125566 966
15.8799997121096 929
15.8999997116625 911
15.9199997112155 891
15.9399997107685 960
15.9599997103214 959
15.9799997098744 928
15.9999997094274 976
16.0199997089803 967
16.0399997085333 945
16.0599997080863 963
16.0799997076392 981
16.0999997071922 972
16.1199997067451 928
16.1399997062981 925
16.1599997058511 939
16.179999705404 942
16.199999704957 962
16.21999970451 950
16.2399997040629 952
16.2599997036159 971
16.2799997031689 1010
16.2999997027218 1019
16.3199997022748 994
16.3399997018278 1007
16.3599997013807 967
16.3799997009337 1027
16.3999997004867 986
16.4199997000396 1025
16.4399996995926 942
16.4599996991456 999
16.4799996986985 1037
16.4999996982515 1030
16.5199996978045 973
16.5399996973574 1011
16.5599996969104 1026
16.5799996964633 1016
16.5999996960163 1044
16.6199996955693 1053
16.6399996951222 1047
16.6599996946752 1061
16.6799996942282 1053
16.6999996937811 1060
16.7199996933341 1071
16.7399996928871 1114
16.75999969244 1110
16.779999691993 1075
16.799999691546 1141
16.8199996910989 1122
16.8399996906519 1174
16.8599996902049 1151
16.8799996897578 1186
16.8999996893108 1223
16.9199996888638 1274
16.9399996884167 1377
16.9599996879697 1381
16.9799996875226 1405
16.9999996870756 1382
17.0199996866286 1365
17.0399996861815 1344
17.0599996857345 1253
17.0799996852875 1184
17.0999996848404 1162
17.1199996843934 1188
17.1399996839464 1139
17.1599996834993 1141
17.1799996830523 1139
17.1999996826053 1153
17.2199996821582 1111
17.2399996817112 1127
17.2599996812642 1127
17.2799996808171 1142
17.2999996803701 1139
17.3199996799231 1201
17.339999679476 1125
17.359999679029 1156
17.379999678582 1218
17.3999996781349 1200
17.4199996776879 1179
17.4399996772408 1161
17.4599996767938 1175
17.4799996763468 1205
17.4999996758997 1149
17.5199996754527 1182
17.5399996750057 1199
17.5599996745586 1177
17.5799996741116 1209
17.5999996736646 1117
17.6199996732175 1216
17.6399996727705 1227
17.6599996723235 1193
17.6799996718764 1195
17.6999996714294 1216
17.7199996709824 1154
17.7399996705353 1282
17.7599996700883 1244
17.7799996696413 1209
17.7999996691942 1261
17.8199996687472 1200
17.8399996683002 1191
17.8599996678531 1225
17.8799996674061 1194
17.899999666959 1267
17.919999666512 1233
17.939999666065 1259
17.9599996656179 1303
17.9799996651709 1308
17.9999996647239 1317
18.0199996642768 1262
18.0399996638298 1292
18.0599996633828 1251
18.0799996629357 1319
18.0999996624887 1326
18.1199996620417 1330
18.1399996615946 1303
18.1599996611476 1296
18.1799996607006 1343
18.1999996602535 1234
18.2199996598065 1346
18.2399996593595 1274
18.2599996589124 1344
18.2799996584654 1291
18.2999996580184 1309
18.3199996575713 1331
18.3399996571243 1357
18.3599996566772 1330
18.3799996562302 1320
18.3999996557832 1308
18.4199996553361 1347
18.4399996548891 1354
18.4599996544421 1356
18.479999653995 1327
18.499999653548 1373
18.519999653101 1350
18.5399996526539 1368
18.5599996522069 1350
18.5799996517599 1383
18.5999996513128 1398
18.6199996508658 1366
18.6399996504188 1393
18.6599996499717 1336
18.6799996495247 1379
18.6999996490777 1387
18.7199996486306 1428
18.7399996481836 1446
18.7599996477366 1417
18.7799996472895 1438
18.7999996468425 1472
18.8199996463954 1471
18.8399996459484 1474
18.8599996455014 1348
18.8799996450543 1405
18.8999996446073 1514
18.9199996441603 1454
18.9399996437132 1472
18.9599996432662 1439
18.9799996428192 1532
18.9999996423721 1539
19.0199996419251 1492
19.0399996414781 1534
19.059999641031 1553
19.079999640584 1512
19.099999640137 1522
19.1199996396899 1488
19.1399996392429 1496
19.1599996387959 1575
19.1799996383488 1573
19.1999996379018 1536
19.2199996374547 1493
19.2399996370077 1548
19.2599996365607 1542
19.2799996361136 1595
19.2999996356666 1510
19.3199996352196 1552
19.3399996347725 1561
19.3599996343255 1594
19.3799996338785 1629
19.3999996334314 1653
19.4199996329844 1681
19.4399996325374 1691
19.4599996320903 1661
19.4799996316433 1728
19.4999996311963 1586
19.5199996307492 1712
19.5399996303022 1695
19.5599996298552 1646
19.5799996294081 1635
19.5999996289611 1570
19.6199996285141 1602
19.639999628067 1592
19.65999962762 1636
19.6799996271729 1603
19.6999996267259 1588
19.7199996262789 1615
19.7399996258318 1621
19.7599996253848 1597
19.7799996249378 1632
19.7999996244907 1588
19.8199996240437 1635
19.8399996235967 1596
19.8599996231496 1683
19.8799996227026 1649
19.8999996222556 1586
19.9199996218085 1672
19.9399996213615 1707
19.9599996209145 1649
19.9799996204674 1694
19.9999996200204 1645
