3 2414
3.01999999955297 2339
3.03999999910593 2173
3.0599999986589 2003
3.07999999821186 1937
3.09999999776483 1934
3.11999999731779 1787
3.13999999687076 1779
3.15999999642372 1768
3.17999999597669 1696
3.19999999552965 1657
3.21999999508262 1704
3.23999999463558 1636
3.25999999418855 1683
3.27999999374151 1667
3.29999999329448 1608
3.31999999284744 1634
3.33999999240041 1613
3.35999999195337 1573
3.37999999150634 1611
3.3999999910593 1600
3.41999999061227 1519
3.43999999016523 1519
3.4599999897182 1537
3.47999998927116 1434
3.49999998882413 1503
3.51999998837709 1510
3.53999998793006 1463
3.55999998748302 1493
3.57999998703599 1479
3.59999998658895 1437
3.61999998614192 1466
3.63999998569489 1451
3.65999998524785 1443
3.67999998480082 1407
3.69999998435378 1416
3.71999998390675 1412
3.73999998345971 1453
3.75999998301268 1433
3.77999998256564 1355
3.79999998211861 1324
3.81999998167157 1400
3.83999998122454 1381
3.8599999807775 1425
3.87999998033047 1389
3.89999997988343 1428
3.9199999794364 1449
3.93999997898936 1441
3.95999997854233 1485
3.97999997809529 1447
3.99999997764826 1484
4.01999997720122 1477
4.03999997675419 1455
4.05999997630715 1479
4.07999997586012 1451
4.09999997541308 1408
4.11999997496605 1456
4.13999997451901 1394
4.15999997407198 1331
4.17999997362494 1263
4.19999997317791 1265
4.21999997273087 1201
4.23999997228384 1168
4.25999997183681 1184
4.27999997138977 1260
4.29999997094274 1139
4.3199999704957 1137
4.33999997004867 1151
4.35999996960163 1096
4.3799999691546 1074
4.39999996870756 1095
4.41999996826053 1107
4.43999996781349 1110
4.45999996736646 1124
4.47999996691942 1085
4.49999996647239 1083
4.51999996602535 1103
4.53999996557832 1114
4.55999996513128 1073
4.57999996468425 1036
4.59999996423721 1049
4.61999996379018 1135
4.63999996334314 1119
4.65999996289611 1044
4.67999996244907 1025
4.69999996200204 1096
4.719999961555 1077
4.73999996110797 1093
4.75999996066093 1094
4.7799999602139 1086
4.79999995976686 1047
4.81999995931983 1073
4.83999995887279 1133
4.85999995842576 1031
4.87999995797873 1114
4.89999995753169 1108
4.91999995708466 1096
4.93999995663762 1202
4.95999995619059 1244
4.97999995574355 1103
4.99999995529652 1185
5.01999995484948 1233
5.03999995440245 1266
5.05999995395541 1285
5.07999995350838 1332
5.09999995306134 1440
5.11999995261431 1407
5.13999995216727 1453
5.15999995172024 1509
5.1799999512732 1556
5.19999995082617 1603
5.21999995037913 1729
5.2399999499321 1874
5.25999994948506 1883
5.27999994903803 1987
5.29999994859099 2125
5.31999994814396 2328
5.33999994769692 2494
5.35999994724989 2857
5.37999994680285 3150
5.39999994635582 3437
5.41999994590878 3198
5.43999994546175 2619
5.45999994501471 2263
5.47999994456768 2200
5.49999994412065 2071
5.51999994367361 2080
5.53999994322658 2017
5.55999994277954 2152
5.57999994233251 2227
5.59999994188547 2230
5.61999994143844 2268
5.6399999409914 2412
5.65999994054437 2577
5.67999994009733 2715
5.6999999396503 2899
5.71999993920326 3166
5.73999993875623 3370
5.75999993830919 3235
5.77999993786216 2975
5.79999993741512 2438
5.81999993696809 1937
5.83999993652105 1461
5.85999993607402 1230
5.87999993562698 1114
5.89999993517995 1014
5.91999993473291 1023
5.93999993428588 925
5.95999993383884 915
5.97999993339181 903
5.99999993294477 908
6.01999993249774 883
6.0399999320507 863
6.05999993160367 839
6.07999993115663 818
6.0999999307096 832
6.11999993026257 820
6.13999992981553 796
6.1599999293685 784
6.17999992892146 782
6.19999992847443 824
6.21999992802739 799
6.23999992758036 804
6.25999992713332 735
6.27999992668629 793
6.29999992623925 806
6.31999992579222 802
6.33999992534518 793
6.35999992489815 790
6.37999992445111 782
6.39999992400408 805
6.41999992355704 800
6.43999992311001 778
6.45999992266297 801
6.47999992221594 767
6.4999999217689 835
6.51999992132187 772
6.53999992087483 790
6.5599999204278 762
6.57999991998076 778
6.59999991953373 803
6.61999991908669 838
6.63999991863966 857
6.65999991819262 818
6.67999991774559 922
6.69999991729855 906
6.71999991685152 885
6.73999991640449 930
6.75999991595745 825
6.77999991551042 852
6.79999991506338 830
6.81999991461635 857
6.83999991416931 798
6.85999991372228 741
6.87999991327524 718
6.89999991282821 722
6.91999991238117 729
6.93999991193414 699
6.9599999114871 722
6.97999991104007 702
6.99999991059303 673
7.019999910146 661
7.03999990969896 688
7.05999990925193 705
7.07999990880489 716
7.09999990835786 701
7.11999990791082 660
7.13999990746379 716
7.15999990701675 664
7.17999990656972 679
7.19999990612268 682
7.21999990567565 676
7.23999990522861 687
7.25999990478158 673
7.27999990433454 716
7.29999990388751 710
7.31999990344047 641
7.33999990299344 641
7.35999990254641 651
7.37999990209937 671
7.39999990165234 666
7.4199999012053 683
7.43999990075827 646
7.45999990031123 670
7.4799998998642 656
7.49999989941716 649
7.51999989897013 656
7.53999989852309 613
7.55999989807606 650
7.57999989762902 649
7.59999989718199 623
7.61999989673495 694
7.63999989628792 671
7.65999989584088 627
7.67999989539385 640
7.69999989494681 686
7.71999989449978 652
7.73999989405274 662
7.75999989360571 651
7.77999989315867 652
7.79999989271164 647
7.8199998922646 651
7.83999989181757 682
7.85999989137053 677
7.8799998909235 679
7.89999989047646 636
7.91999989002943 675
7.9399998895824 647
7.95999988913536 659
7.97999988868833 675
7.99999988824129 627
8.01999988779426 629
8.03999988734722 655
8.05999988690019 734
8.07999988645315 719
8.09999988600612 668
8.11999988555908 679
8.13999988511205 669
8.15999988466501 696
8.17999988421798 636
8.19999988377094 649
8.21999988332391 681
8.23999988287687 659
8.25999988242984 684
8.2799998819828 683
8.29999988153577 619
8.31999988108873 639
8.3399998806417 636
8.35999988019466 651
8.37999987974763 688
8.39999987930059 621
8.41999987885356 633
8.43999987840652 667
8.45999987795949 678
8.47999987751245 618
8.49999987706542 660
8.51999987661839 635
8.53999987617135 636
8.55999987572432 633
8.57999987527728 650
8.59999987483025 636
8.61999987438321 673
8.63999987393618 655
8.65999987348914 630
8.67999987304211 616
8.69999987259507 672
8.71999987214804 717
8.739999871701 652
8.75999987125397 627
8.77999987080693 658
8.7999998703599 667
8.81999986991286 624
8.83999986946583 629
8.85999986901879 663
8.87999986857176 676
8.89999986812472 667
8.91999986767769 683
8.93999986723065 687
8.95999986678362 655
8.97999986633658 710
8.99999986588955 691
9.01999986544251 730
9.03999986499548 687
9.05999986454844 737
9.07999986410141 755
9.09999986365438 787
9.11999986320734 778
9.13999986276031 854
9.15999986231327 857
9.17999986186624 923
9.1999998614192 972
9.21999986097217 1006
9.23999986052513 1063
9.2599998600781 1214
9.27999985963106 1410
9.29999985918403 1574
9.31999985873699 1613
9.33999985828996 1408
9.35999985784292 1105
9.37999985739589 874
9.39999985694885 780
9.41999985650182 682
9.43999985605478 703
9.45999985560775 686
9.47999985516071 674
9.49999985471368 655
9.51999985426664 654
9.53999985381961 670
9.55999985337257 656
9.57999985292554 691
9.5999998524785 680
9.61999985203147 664
9.63999985158443 665
9.6599998511374 638
9.67999985069037 642
9.69999985024333 636
9.7199998497963 666
9.73999984934926 722
9.75999984890223 624
9.77999984845519 652
9.79999984800816 645
9.81999984756112 683
9.83999984711409 656
9.85999984666705 630
9.87999984622002 655
9.89999984577298 651
9.91999984532595 656
9.93999984487891 658
9.95999984443188 627
9.97999984398484 657
9.99999984353781 719
10.0199998430908 695
10.0399998426437 740
10.0599998421967 774
10.0799998417497 714
10.0999998413026 748
10.1199998408556 774
10.1399998404086 814
10.1599998399615 801
10.1799998395145 790
10.1999998390675 755
10.2199998386204 707
10.2399998381734 713
10.2599998377264 630
10.2799998372793 601
10.2999998368323 635
10.3199998363853 594
10.3399998359382 612
10.3599998354912 638
10.3799998350441 659
10.3999998345971 643
10.4199998341501 630
10.439999833703 609
10.459999833256 629
10.479999832809 596
10.4999998323619 636
10.5199998319149 643
10.5399998314679 658
10.5599998310208 702
10.5799998305738 706
10.5999998301268 727
10.6199998296797 718
10.6399998292327 735
10.6599998287857 727
10.6799998283386 807
10.6999998278916 843
10.7199998274446 863
10.7399998269975 921
10.7599998265505 951
10.7799998261034 969
10.7999998256564 958
10.8199998252094 852
10.8399998247623 825
10.8599998243153 913
10.8799998238683 878
10.8999998234212 957
10.9199998229742 964
10.9399998225272 1027
10.9599998220801 971
10.9799998216331 859
10.9999998211861 808
11.019999820739 676
11.039999820292 683
11.059999819845 661
11.0799998193979 671
11.0999998189509 630
11.1199998185039 661
11.1399998180568 634
11.1599998176098 677
11.1799998171628 642
11.1999998167157 631
11.2199998162687 603
11.2399998158216 637
11.2599998153746 655
11.2799998149276 689
11.2999998144805 678
11.3199998140335 654
11.3399998135865 680
11.3599998131394 648
11.3799998126924 681
11.3999998122454 646
11.4199998117983 731
11.4399998113513 700
11.4599998109043 673
11.4799998104572 746
11.4999998100102 718
11.5199998095632 733
11.5399998091161 741
11.5599998086691 709
11.5799998082221 719
11.599999807775 661
11.619999807328 630
11.639999806881 698
11.6599998064339 576
11.6799998059869 611
11.6999998055398 585
11.7199998050928 667
11.7399998046458 636
11.7599998041987 607
11.7799998037517 591
11.7999998033047 624
11.8199998028576 679
11.8399998024106 650
11.8599998019636 610
11.8799998015165 618
11.8999998010695 614
11.9199998006225 679
11.9399998001754 696
11.9599997997284 612
11.9799997992814 631
11.9999997988343 635
12.0199997983873 634
12.0399997979403 590
12.0599997974932 636
12.0799997970462 644
12.0999997965992 655
12.1199997961521 681
12.1399997957051 706
12.159999795258 665
12.179999794811 672
12.199999794364 645
12.2199997939169 700
12.2399997934699 692
12.2599997930229 700
12.2799997925758 681
12.2999997921288 671
12.3199997916818 664
12.3399997912347 652
12.3599997907877 622
12.3799997903407 616
12.3999997898936 668
12.4199997894466 661
12.4399997889996 583
12.4599997885525 607
12.4799997881055 637
12.4999997876585 615
12.5199997872114 628
12.5399997867644 660
12.5599997863173 654
12.5799997858703 628
12.5999997854233 638
12.6199997849762 638
12.6399997845292 668
12.6599997840822 578
12.6799997836351 603
12.6999997831881 624
12.7199997827411 612
12.739999782294 642
12.759999781847 653
12.7799997814 607
12.7999997809529 662
12.8199997805059 618
12.8399997800589 654
12.8599997796118 646
12.8799997791648 608
12.8999997787178 628
12.9199997782707 656
12.9399997778237 716
12.9599997773767 654
12.9799997769296 660
12.9999997764826 667
13.0199997760355 682
13.0399997755885 680
13.0599997751415 716
13.0799997746944 701
13.0999997742474 677
13.1199997738004 692
13.1399997733533 744
13.1599997729063 719
13.1799997724593 776
13.1999997720122 891
13.2199997715652 903
13.2399997711182 1103
13.2599997706711 1142
13.2799997702241 989
13.2999997697771 837
13.31999976933 726
13.339999768883 703
13.359999768436 657
13.3799997679889 702
13.3999997675419 642
13.4199997670949 700
13.4399997666478 685
13.4599997662008 706
13.4799997657537 648
13.4999997653067 645
13.5199997648597 683
13.5399997644126 669
13.5599997639656 645
13.5799997635186 619
13.5999997630715 628
13.6199997626245 649
13.6399997621775 652
13.6599997617304 633
13.6799997612834 703
13.6999997608364 637
13.7199997603893 709
13.7399997599423 692
13.7599997594953 677
13.7799997590482 692
13.7999997586012 686
13.8199997581542 663
13.8399997577071 680
13.8599997572601 680
13.879999756813 686
13.899999756366 656
13.919999755919 665
13.9399997554719 670
13.9599997550249 666
13.9799997545779 702
13.9999997541308 689
14.0199997536838 683
14.0399997532368 672
14.0599997527897 693
14.0799997523427 702
14.0999997518957 675
14.1199997514486 662
14.1399997510016 676
14.1599997505546 704
14.1799997501075 673
14.1999997496605 719
14.2199997492135 743
14.2399997487664 682
14.2599997483194 669
14.2799997478724 746
14.2999997474253 709
14.3199997469783 693
14.3399997465312 732
14.3599997460842 740
14.3799997456372 689
14.3999997451901 732
14.4199997447431 702
14.4399997442961 694
14.459999743849 705
14.479999743402 699
14.499999742955 690
14.5199997425079 740
14.5399997420609 729
14.5599997416139 758
14.5799997411668 674
14.5999997407198 731
14.6199997402728 715
14.6399997398257 704
14.6599997393787 687
14.6799997389317 689
14.6999997384846 746
14.7199997380376 739
14.7399997375906 753
14.7599997371435 700
14.7799997366965 751
14.7999997362494 734
14.8199997358024 705
14.8399997353554 770
14.8599997349083 711
14.8799997344613 748
14.8999997340143 737
14.9199997335672 742
14.9399997331202 794
14.9599997326732 712
14.9799997322261 703
14.9999997317791 715
15.0199997313321 723
15.039999730885 745
15.059999730438 703
15.079999729991 713
15.0999997295439 773
15.1199997290969 774
15.1399997286499 775
15.1599997282028 724
15.1799997277558 736
15.1999997273088 806
15.2199997268617 773
15.2399997264147 799
15.2599997259676 782
15.2799997255206 778
15.2999997250736 753
15.3199997246265 809
15.3399997241795 708
15.3599997237325 803
15.3799997232854 765
15.3999997228384 794
15.4199997223914 792
15.4399997219443 747
15.4599997214973 757
15.4799997210503 746
15.4999997206032 746
15.5199997201562 780
15.5399997197092 775
15.5599997192621 798
15.5799997188151 779
15.5999997183681 741
15.619999717921 770
15.639999717474 738
15.659999717027 799
15.6799997165799 790
15.6999997161329 811
15.7199997156858 772
15.7399997152388 798
15.7599997147918 779
15.7799997143447 723
15.7999997138977 780
15.8199997134507 764
15.8399997130036 750
15.8599997125566 823
15.8799997121096 790
15.8999997116625 797
15.9199997112155 815
15.9399997107685 809
15.9599997103214 822
15.9799997098744 815
15.9999997094274 796
16.0199997089803 766
16.0399997085333 785
16.0599997080863 775
16.0799997076392 808
16.0999997071922 792
16.1199997067451 843
16.1399997062981 839
16.1599997058511 849
16.179999705404 836
16.199999704957 839
16.21999970451 843
16.2399997040629 842
16.2599997036159 852
16.2799997031689 882
16.2999997027218 837
16.3199997022748 832
16.3399997018278 848
16.3599997013807 882
16.3799997009337 895
16.3999997004867 858
16.4199997000396 878
16.4399996995926 832
16.4599996991456 846
16.4799996986985 906
16.4999996982515 867
16.5199996978045 836
16.5399996973574 879
16.5599996969104 890
16.5799996964633 944
16.5999996960163 888
16.6199996955693 861
16.6399996951222 936
16.6599996946752 941
16.6799996942282 952
16.6999996937811 966
16.7199996933341 957
16.7399996928871 994
16.75999969244 1075
16.779999691993 1113
16.799999691546 1235
16.8199996910989 1216
16.8399996906519 1266
16.8599996902049 1171
16.8799996897578 1341
16.8999996893108 1565
16.9199996888638 1795
16.9399996884167 2351
16.9599996879697 2768
16.9799996875226 3118
16.9999996870756 2858
17.0199996866286 2451
17.0399996861815 1941
17.0599996857345 1427
17.0799996852875 1139
17.0999996848404 1010
17.1199996843934 975
17.1399996839464 986
17.1599996834993 972
17.1799996830523 981
17.1999996826053 960
17.2199996821582 974
17.2399996817112 1011
17.2599996812642 957
17.2799996808171 1027
17.2999996803701 955
17.3199996799231 1025
17.339999679476 1000
17.359999679029 898
17.379999678582 1005
17.3999996781349 989
17.4199996776879 958
17.4399996772408 947
17.4599996767938 1016
17.4799996763468 1010
17.4999996758997 996
17.5199996754527 950
17.5399996750057 932
17.5599996745586 1003
17.5799996741116 978
17.5999996736646 1014
17.6199996732175 1004
17.6399996727705 1002
17.6599996723235 1050
17.6799996718764 994
17.6999996714294 1031
17.7199996709824 1011
17.7399996705353 1045
17.7599996700883 1000
17.7799996696413 1027
17.7999996691942 1012
17.8199996687472 1061
17.8399996683002 1081
17.8599996678531 1056
17.8799996674061 1044
17.899999666959 1057
17.919999666512 1065
17.939999666065 1090
17.9599996656179 1068
17.9799996651709 1018
17.9999996647239 1085
18.0199996642768 1066
18.0399996638298 1093
18.0599996633828 1082
18.0799996629357 1046
18.0999996624887 1058
18.1199996620417 1083
18.1399996615946 1052
18.1599996611476 1063
18.1799996607006 1007
18.1999996602535 1098
18.2199996598065 1061
18.2399996593595 1025
18.2599996589124 1113
18.2799996584654 1081
18.2999996580184 1083
18.3199996575713 1081
18.3399996571243 1077
18.3599996566772 1068
18.3799996562302 1067
18.3999996557832 1127
18.4199996553361 1066
18.4399996548891 1117
18.4599996544421 1094
18.479999653995 1135
18.499999653548 1108
18.519999653101 1061
18.5399996526539 1164
18.5599996522069 1110
18.5799996517599 1119
18.5999996513128 1106
18.6199996508658 1102
18.6399996504188 1137
18.6599996499717 1106
18.6799996495247 1122
18.6999996490777 1189
18.7199996486306 1125
18.7399996481836 1194
18.7599996477366 1265
18.7799996472895 1169
18.7999996468425 1183
18.8199996463954 1180
18.8399996459484 1208
18.8599996455014 1228
18.8799996450543 1136
18.8999996446073 1218
18.9199996441603 1241
18.9399996437132 1200
18.9599996432662 1229
18.9799996428192 1243
18.9999996423721 1231
19.0199996419251 1190
19.0399996414781 1266
19.059999641031 1266
19.079999640584 1307
19.099999640137 1251
19.1199996396899 1259
19.1399996392429 1281
19.1599996387959 1257
19.1799996383488 1231
19.1999996379018 1223
19.2199996374547 1183
19.2399996370077 1209
19.2599996365607 1231
19.2799996361136 1247
19.2999996356666 1315
19.3199996352196 1269
19.3399996347725 1268
19.3599996343255 1280
19.3799996338785 1329
19.3999996334314 1314
19.4199996329844 1381
19.4399996325374 1400
19.4599996320903 1324
19.4799996316433 1481
19.4999996311963 1394
19.5199996307492 1412
19.5399996303022 1336
19.5599996298552 1359
19.5799996294081 1319
19.5999996289611 1263
19.6199996285141 1270
19.639999628067 1226
19.65999962762 1274
19.6799996271729 1287
19.6999996267259 1276
19.7199996262789 1277
19.7399996258318 1359
19.7599996253848 1311
19.7799996249378 1333
19.7999996244907 1390
19.8199996240437 1291
19.8399996235967 1319
19.8599996231496 1287
19.8799996227026 1323
19.8999996222556 1268
19.9199996218085 1322
19.9399996213615 1310
19.9599996209145 1305
19.9799996204674 1338
19.9999996200204 1284
