3 2263
3.01999999955297 2022
3.03999999910593 1958
3.0599999986589 1804
3.07999999821186 1696
3.09999999776483 1723
3.11999999731779 1557
3.13999999687076 1631
3.15999999642372 1651
3.17999999597669 1543
3.19999999552965 1527
3.21999999508262 1429
3.23999999463558 1573
3.25999999418855 1435
3.27999999374151 1464
3.29999999329448 1476
3.31999999284744 1442
3.33999999240041 1489
3.35999999195337 1492
3.37999999150634 1466
3.3999999910593 1449
3.41999999061227 1445
3.43999999016523 1436
3.4599999897182 1377
3.47999998927116 1397
3.49999998882413 1337
3.51999998837709 1391
3.53999998793006 1428
3.55999998748302 1376
3.57999998703599 1407
3.59999998658895 1372
3.61999998614192 1345
3.63999998569489 1372
3.65999998524785 1379
3.67999998480082 1422
3.69999998435378 1300
3.71999998390675 1307
3.73999998345971 1281
3.75999998301268 1387
3.77999998256564 1299
3.79999998211861 1327
3.81999998167157 1294
3.83999998122454 1299
3.8599999807775 1331
3.87999998033047 1313
3.89999997988343 1330
3.9199999794364 1309
3.93999997898936 1296
3.95999997854233 1246
3.97999997809529 1254
3.99999997764826 1238
4.01999997720122 1254
4.03999997675419 1240
4.05999997630715 1272
4.07999997586012 1240
4.09999997541308 1222
4.11999997496605 1237
4.13999997451901 1222
4.15999997407198 1278
4.17999997362494 1222
4.19999997317791 1219
4.21999997273087 1293
4.23999997228384 1207
4.25999997183681 1202
4.27999997138977 1203
4.29999997094274 1266
4.3199999704957 1184
4.33999997004867 1166
4.35999996960163 1245
4.3799999691546 1253
4.39999996870756 1193
4.41999996826053 1162
4.43999996781349 1194
4.45999996736646 1269
4.47999996691942 1199
4.49999996647239 1193
4.51999996602535 1200
4.53999996557832 1191
4.55999996513128 1274
4.57999996468425 1208
4.59999996423721 1185
4.61999996379018 1248
4.63999996334314 1152
4.65999996289611 1213
4.67999996244907 1245
4.69999996200204 1171
4.719999961555 1219
4.73999996110797 1278
4.75999996066093 1180
4.7799999602139 1217
4.79999995976686 1217
4.81999995931983 1189
4.83999995887279 1182
4.85999995842576 1211
4.87999995797873 1301
4.89999995753169 1259
4.91999995708466 1255
4.93999995663762 1305
4.95999995619059 1241
4.97999995574355 1244
4.99999995529652 1218
5.01999995484948 1209
5.03999995440245 1257
5.05999995395541 1265
5.07999995350838 1291
5.09999995306134 1271
5.11999995261431 1327
5.13999995216727 1306
5.15999995172024 1279
5.1799999512732 1332
5.19999995082617 1356
5.21999995037913 1352
5.2399999499321 1450
5.25999994948506 1378
5.27999994903803 1425
5.29999994859099 1500
5.31999994814396 1452
5.33999994769692 1441
5.35999994724989 1556
5.37999994680285 1531
5.39999994635582 1602
5.41999994590878 1633
5.43999994546175 1733
5.45999994501471 1806
5.47999994456768 1803
5.49999994412065 2009
5.51999994367361 2043
5.53999994322658 2031
5.55999994277954 2061
5.57999994233251 2097
5.59999994188547 2005
5.61999994143844 1898
5.6399999409914 1798
5.65999994054437 1647
5.67999994009733 1560
5.6999999396503 1501
5.71999993920326 1445
5.73999993875623 1415
5.75999993830919 1334
5.77999993786216 1299
5.79999993741512 1261
5.81999993696809 1248
5.83999993652105 1278
5.85999993607402 1221
5.87999993562698 1194
5.89999993517995 1216
5.91999993473291 1206
5.93999993428588 1257
5.95999993383884 1146
5.97999993339181 1157
5.99999993294477 1155
6.01999993249774 1120
6.0399999320507 1071
6.05999993160367 1092
6.07999993115663 1100
6.0999999307096 1054
6.11999993026257 1057
6.13999992981553 1104
6.1599999293685 1008
6.17999992892146 1086
6.19999992847443 1041
6.21999992802739 1036
6.23999992758036 1117
6.25999992713332 1041
6.27999992668629 982
6.29999992623925 1049
6.31999992579222 984
6.33999992534518 990
6.35999992489815 957
6.37999992445111 930
6.39999992400408 1029
6.41999992355704 992
6.43999992311001 985
6.45999992266297 1004
6.47999992221594 966
6.4999999217689 987
6.51999992132187 981
6.53999992087483 976
6.5599999204278 911
6.57999991998076 936
6.59999991953373 935
6.61999991908669 894
6.63999991863966 928
6.65999991819262 879
6.67999991774559 928
6.69999991729855 902
6.71999991685152 908
6.73999991640449 916
6.75999991595745 862
6.77999991551042 924
6.79999991506338 904
6.81999991461635 929
6.83999991416931 915
6.85999991372228 898
6.87999991327524 842
6.89999991282821 892
6.91999991238117 856
6.93999991193414 813
6.9599999114871 878
6.97999991104007 895
6.99999991059303 826
7.019999910146 841
7.03999990969896 852
7.05999990925193 827
7.07999990880489 882
7.09999990835786 789
7.11999990791082 800
7.13999990746379 856
7.15999990701675 809
7.17999990656972 815
7.19999990612268 807
7.21999990567565 797
7.23999990522861 821
7.25999990478158 814
7.27999990433454 844
7.29999990388751 770
7.31999990344047 813
7.33999990299344 818
7.35999990254641 778
7.37999990209937 809
7.39999990165234 845
7.4199999012053 814
7.43999990075827 777
7.45999990031123 741
7.4799998998642 761
7.49999989941716 781
7.51999989897013 788
7.53999989852309 823
7.55999989807606 783
7.57999989762902 737
7.59999989718199 745
7.61999989673495 816
7.63999989628792 788
7.65999989584088 795
7.67999989539385 786
7.69999989494681 793
7.71999989449978 726
7.73999989405274 704
7.75999989360571 770
7.77999989315867 785
7.79999989271164 752
7.8199998922646 746
7.83999989181757 770
7.85999989137053 761
7.8799998909235 727
7.89999989047646 795
7.91999989002943 801
7.9399998895824 746
7.95999988913536 747
7.97999988868833 705
7.99999988824129 719
8.01999988779426 740
8.03999988734722 732
8.05999988690019 713
8.07999988645315 676
8.09999988600612 706
8.11999988555908 737
8.13999988511205 740
8.15999988466501 726
8.17999988421798 738
8.19999988377094 762
8.21999988332391 692
8.23999988287687 728
8.25999988242984 705
8.2799998819828 737
8.29999988153577 729
8.31999988108873 704
8.3399998806417 730
8.35999988019466 681
8.37999987974763 705
8.39999987930059 708
8.41999987885356 758
8.43999987840652 671
8.45999987795949 715
8.47999987751245 680
8.49999987706542 713
8.51999987661839 734
8.53999987617135 671
8.55999987572432 696
8.57999987527728 710
8.59999987483025 674
8.61999987438321 747
8.63999987393618 770
8.65999987348914 719
8.67999987304211 706
8.69999987259507 706
8.71999987214804 747
8.739999871701 706
8.75999987125397 712
8.77999987080693 715
8.7999998703599 755
8.81999986991286 695
8.83999986946583 766
8.85999986901879 744
8.87999986857176 732
8.89999986812472 718
8.91999986767769 699
8.93999986723065 752
8.95999986678362 676
8.97999986633658 736
8.99999986588955 692
9.01999986544251 771
9.03999986499548 742
9.05999986454844 741
9.07999986410141 778
9.09999986365438 767
9.11999986320734 778
9.13999986276031 758
9.15999986231327 790
9.17999986186624 805
9.1999998614192 774
9.21999986097217 800
9.23999986052513 821
9.2599998600781 848
9.27999985963106 841
9.29999985918403 825
9.31999985873699 870
9.33999985828996 844
9.35999985784292 908
9.37999985739589 924
9.39999985694885 909
9.41999985650182 984
9.43999985605478 957
9.45999985560775 962
9.47999985516071 975
9.49999985471368 998
9.51999985426664 943
9.53999985381961 979
9.55999985337257 853
9.57999985292554 870
9.5999998524785 767
9.61999985203147 811
9.63999985158443 743
9.6599998511374 701
9.67999985069037 771
9.69999985024333 690
9.7199998497963 712
9.73999984934926 660
9.75999984890223 726
9.77999984845519 697
9.79999984800816 674
9.81999984756112 657
9.83999984711409 665
9.85999984666705 650
9.87999984622002 698
9.89999984577298 652
9.91999984532595 640
9.93999984487891 680
9.95999984443188 678
9.97999984398484 678
9.99999984353781 678
10.0199998430908 646
10.0399998426437 700
10.0599998421967 667
10.0799998417497 603
10.0999998413026 636
10.1199998408556 663
10.1399998404086 683
10.1599998399615 710
10.1799998395145 646
10.1999998390675 651
10.2199998386204 672
10.2399998381734 666
10.2599998377264 664
10.2799998372793 617
10.2999998368323 656
10.3199998363853 637
10.3399998359382 638
10.3599998354912 630
10.3799998350441 628
10.3999998345971 647
10.4199998341501 622
10.439999833703 614
10.459999833256 599
10.479999832809 621
10.4999998323619 631
10.5199998319149 683
10.5399998314679 624
10.5599998310208 651
10.5799998305738 636
10.5999998301268 635
10.6199998296797 643
10.6399998292327 617
10.6599998287857 636
10.6799998283386 633
10.6999998278916 587
10.7199998274446 610
10.7399998269975 681
10.7599998265505 655
10.7799998261034 709
10.7999998256564 718
10.8199998252094 698
10.8399998247623 723
10.8599998243153 694
10.8799998238683 744
10.8999998234212 717
10.9199998229742 737
10.9399998225272 748
10.9599998220801 727
10.9799998216331 711
10.9999998211861 674
11.019999820739 646
11.039999820292 684
11.059999819845 689
11.0799998193979 653
11.0999998189509 661
11.1199998185039 639
11.1399998180568 561
11.1599998176098 623
11.1799998171628 656
11.1999998167157 621
11.2199998162687 603
11.2399998158216 601
11.2599998153746 619
11.2799998149276 621
11.2999998144805 563
11.3199998140335 581
11.3399998135865 607
11.3599998131394 616
11.3799998126924 556
11.3999998122454 569
11.4199998117983 569
11.4399998113513 588
11.4599998109043 635
11.4799998104572 568
11.4999998100102 591
11.5199998095632 587
11.5399998091161 585
11.5599998086691 589
11.5799998082221 578
11.599999807775 564
11.619999807328 552
11.639999806881 624
11.6599998064339 587
11.6799998059869 545
11.6999998055398 559
11.7199998050928 578
11.7399998046458 554
11.7599998041987 561
11.7799998037517 593
11.7999998033047 569
11.8199998028576 544
11.8399998024106 544
11.8599998019636 561
11.8799998015165 577
11.8999998010695 573
11.9199998006225 552
11.9399998001754 547
11.9599997997284 580
11.9799997992814 586
11.9999997988343 548
12.0199997983873 561
12.0399997979403 582
12.0599997974932 590
12.0799997970462 654
12.0999997965992 610
12.1199997961521 598
12.1399997957051 586
12.159999795258 602
12.179999794811 576
12.199999794364 567
12.2199997939169 540
12.2399997934699 575
12.2599997930229 576
12.2799997925758 524
12.2999997921288 582
12.3199997916818 545
12.3399997912347 602
12.3599997907877 574
12.3799997903407 568
12.3999997898936 585
12.4199997894466 569
12.4399997889996 573
12.4599997885525 557
12.4799997881055 540
12.4999997876585 573
12.5199997872114 546
12.5399997867644 597
12.5599997863173 567
12.5799997858703 563
12.5999997854233 523
12.6199997849762 537
12.6399997845292 580
12.6599997840822 589
12.6799997836351 587
12.6999997831881 556
12.7199997827411 570
12.739999782294 614
12.759999781847 584
12.7799997814 587
12.7999997809529 527
12.8199997805059 542
12.8399997800589 560
12.8599997796118 540
12.8799997791648 523
12.8999997787178 585
12.9199997782707 575
12.9399997778237 624
12.9599997773767 584
12.9799997769296 554
12.9999997764826 574
13.0199997760355 576
13.0399997755885 584
13.0599997751415 582
13.0799997746944 560
13.0999997742474 534
13.1199997738004 559
13.1399997733533 555
13.1599997729063 576
13.1799997724593 569
13.1999997720122 588
13.2199997715652 599
13.2399997711182 568
13.2599997706711 592
13.2799997702241 634
13.2999997697771 665
13.31999976933 611
13.339999768883 638
13.359999768436 655
13.3799997679889 662
13.3999997675419 666
13.4199997670949 637
13.4399997666478 690
13.4599997662008 614
13.4799997657537 621
13.4999997653067 632
13.5199997648597 572
13.5399997644126 562
13.5599997639656 592
13.5799997635186 556
13.5999997630715 535
13.6199997626245 585
13.6399997621775 555
13.6599997617304 591
13.6799997612834 607
13.6999997608364 565
13.7199997603893 562
13.7399997599423 540
13.7599997594953 567
13.7799997590482 580
13.7999997586012 566
13.8199997581542 537
13.8399997577071 526
13.8599997572601 562
13.879999756813 558
13.899999756366 544
13.919999755919 559
13.9399997554719 546
13.9599997550249 552
13.9799997545779 559
13.9999997541308 516
14.0199997536838 536
14.0399997532368 593
14.0599997527897 546
14.0799997523427 563
14.0999997518957 516
14.1199997514486 588
14.1399997510016 560
14.1599997505546 542
14.1799997501075 546
14.1999997496605 520
14.2199997492135 537
14.2399997487664 557
14.2599997483194 566
14.2799997478724 526
14.2999997474253 568
14.3199997469783 575
14.3399997465312 552
14.3599997460842 527
14.3799997456372 507
14.3999997451901 532
14.4199997447431 591
14.4399997442961 578
14.459999743849 552
14.479999743402 570
14.499999742955 513
14.5199997425079 583
14.5399997420609 610
14.5599997416139 566
14.5799997411668 529
14.5999997407198 561
14.6199997402728 555
14.6399997398257 615
14.6599997393787 542
14.6799997389317 500
14.6999997384846 524
14.7199997380376 533
14.7399997375906 540
14.7599997371435 566
14.7799997366965 549
14.7999997362494 501
14.8199997358024 552
14.8399997353554 589
14.8599997349083 539
14.8799997344613 549
14.8999997340143 575
14.9199997335672 555
14.9399997331202 586
14.9599997326732 539
14.9799997322261 522
14.9999997317791 528
15.0199997313321 570
15.039999730885 505
15.059999730438 542
15.079999729991 541
15.0999997295439 557
15.1199997290969 527
15.1399997286499 527
15.1599997282028 570
15.1799997277558 569
15.1999997273088 566
15.2199997268617 541
15.2399997264147 548
15.2599997259676 571
15.2799997255206 555
15.2999997250736 575
15.3199997246265 567
15.3399997241795 573
15.3599997237325 578
15.3799997232854 568
15.3999997228384 599
15.4199997223914 557
15.4399997219443 614
15.4599997214973 555
15.4799997210503 540
15.4999997206032 609
15.5199997201562 586
15.5399997197092 615
15.5599997192621 627
15.5799997188151 549
15.5999997183681 542
15.619999717921 577
15.639999717474 549
15.659999717027 555
15.6799997165799 524
15.6999997161329 575
15.7199997156858 548
15.7399997152388 525
15.7599997147918 545
15.7799997143447 534
15.7999997138977 548
15.8199997134507 568
15.8399997130036 542
15.8599997125566 560
15.8799997121096 541
15.8999997116625 587
15.9199997112155 534
15.9399997107685 539
15.9599997103214 574
15.9799997098744 534
15.9999997094274 530
16.0199997089803 570
16.0399997085333 562
16.0599997080863 552
16.0799997076392 573
16.0999997071922 544
16.1199997067451 516
16.1399997062981 539
16.1599997058511 601
16.179999705404 575
16.199999704957 559
16.21999970451 555
16.2399997040629 580
16.2599997036159 550
16.2799997031689 611
16.2999997027218 582
16.3199997022748 585
16.3399997018278 601
16.3599997013807 600
16.3799997009337 654
16.3999997004867 589
16.4199997000396 631
16.4399996995926 574
16.4599996991456 567
16.4799996986985 634
16.4999996982515 601
16.5199996978045 635
16.5399996973574 670
16.5599996969104 688
16.5799996964633 727
16.5999996960163 717
16.6199996955693 757
16.6399996951222 743
16.6599996946752 753
16.6799996942282 797
16.6999996937811 777
16.7199996933341 829
16.7399996928871 921
16.75999969244 1015
16.779999691993 1063
16.799999691546 1084
16.8199996910989 1217
16.8399996906519 1332
16.8599996902049 1501
16.8799996897578 1734
16.8999996893108 1932
16.9199996888638 2220
16.9399996884167 2655
16.9599996879697 3099
16.9799996875226 3656
16.9999996870756 4369
17.0199996866286 5050
17.0399996861815 5671
17.0599996857345 6513
17.0799996852875 7113
17.0999996848404 7506
17.1199996843934 7922
17.1399996839464 7673
17.1599996834993 7147
17.1799996830523 6383
17.1999996826053 5347
17.2199996821582 4147
17.2399996817112 3180
17.2599996812642 2317
17.2799996808171 1727
17.2999996803701 1457
17.3199996799231 1218
17.339999679476 1023
17.359999679029 1007
17.379999678582 890
17.3999996781349 842
17.4199996776879 820
17.4399996772408 775
17.4599996767938 740
17.4799996763468 772
17.4999996758997 745
17.5199996754527 742
17.5399996750057 674
17.5599996745586 723
17.5799996741116 664
17.5999996736646 704
17.6199996732175 672
17.6399996727705 688
17.6599996723235 666
17.6799996718764 649
17.6999996714294 652
17.7199996709824 634
17.7399996705353 634
17.7599996700883 611
17.7799996696413 646
17.7999996691942 668
17.8199996687472 648
17.8399996683002 691
17.8599996678531 607
17.8799996674061 662
17.899999666959 656
17.919999666512 628
17.939999666065 724
17.9599996656179 670
17.9799996651709 617
17.9999996647239 618
18.0199996642768 669
18.0399996638298 632
18.0599996633828 647
18.0799996629357 674
18.0999996624887 633
18.1199996620417 638
18.1399996615946 654
18.1599996611476 633
18.1799996607006 627
18.1999996602535 660
18.2199996598065 639
18.2399996593595 651
18.2599996589124 699
18.2799996584654 663
18.2999996580184 657
18.3199996575713 659
18.3399996571243 651
18.3599996566772 626
18.3799996562302 682
18.3999996557832 655
18.4199996553361 677
18.4399996548891 684
18.4599996544421 606
18.479999653995 666
18.499999653548 633
18.519999653101 618
18.5399996526539 634
18.5599996522069 685
18.5799996517599 667
18.5999996513128 662
18.6199996508658 688
18.6399996504188 638
18.6599996499717 679
18.6799996495247 648
18.6999996490777 688
18.7199996486306 641
18.7399996481836 674
18.7599996477366 640
18.7799996472895 635
18.7999996468425 683
18.8199996463954 665
18.8399996459484 662
18.8599996455014 664
18.8799996450543 635
18.8999996446073 616
18.9199996441603 667
18.9399996437132 667
18.9599996432662 676
18.9799996428192 679
18.9999996423721 654
19.0199996419251 659
19.0399996414781 649
19.059999641031 701
19.079999640584 677
19.099999640137 658
19.1199996396899 690
19.1399996392429 716
19.1599996387959 685
19.1799996383488 657
19.1999996379018 675
19.2199996374547 654
19.2399996370077 698
19.2599996365607 731
19.2799996361136 636
19.2999996356666 723
19.3199996352196 674
19.3399996347725 662
19.3599996343255 685
19.3799996338785 674
19.3999996334314 648
19.4199996329844 685
19.4399996325374 695
19.4599996320903 678
19.4799996316433 766
19.4999996311963 704
19.5199996307492 712
19.5399996303022 678
19.5599996298552 683
19.5799996294081 701
19.5999996289611 769
19.6199996285141 762
19.639999628067 723
19.65999962762 735
19.6799996271729 713
19.6999996267259 695
19.7199996262789 683
19.7399996258318 708
19.7599996253848 690
19.7799996249378 723
19.7999996244907 734
19.8199996240437 717
19.8399996235967 678
19.8599996231496 727
19.8799996227026 717
19.8999996222556 729
19.9199996218085 753
19.9399996213615 666
19.9599996209145 668
19.9799996204674 710
19.9999996200204 677
