3 2595
3.01999999955297 2361
3.03999999910593 2251
3.0599999986589 2058
3.07999999821186 2023
3.09999999776483 1885
3.11999999731779 1908
3.13999999687076 1844
3.15999999642372 1789
3.17999999597669 1813
3.19999999552965 1807
3.21999999508262 1651
3.23999999463558 1646
3.25999999418855 1686
3.27999999374151 1543
3.29999999329448 1555
3.31999999284744 1537
3.33999999240041 1539
3.35999999195337 1515
3.37999999150634 1547
3.3999999910593 1550
3.41999999061227 1479
3.43999999016523 1424
3.4599999897182 1406
3.47999998927116 1437
3.49999998882413 1509
3.51999998837709 1421
3.53999998793006 1365
3.55999998748302 1379
3.57999998703599 1336
3.59999998658895 1320
3.61999998614192 1357
3.63999998569489 1323
3.65999998524785 1285
3.67999998480082 1243
3.69999998435378 1229
3.71999998390675 1205
3.73999998345971 1248
3.75999998301268 1248
3.77999998256564 1133
3.79999998211861 1200
3.81999998167157 1178
3.83999998122454 1147
3.8599999807775 1188
3.87999998033047 1133
3.89999997988343 1171
3.9199999794364 1080
3.93999997898936 1102
3.95999997854233 1054
3.97999997809529 1131
3.99999997764826 1073
4.01999997720122 1033
4.03999997675419 1048
4.05999997630715 1046
4.07999997586012 1045
4.09999997541308 1009
4.11999997496605 985
4.13999997451901 973
4.15999997407198 988
4.17999997362494 975
4.19999997317791 954
4.21999997273087 941
4.23999997228384 959
4.25999997183681 925
4.27999997138977 996
4.29999997094274 965
4.3199999704957 926
4.33999997004867 903
4.35999996960163 912
4.3799999691546 908
4.39999996870756 893
4.41999996826053 896
4.43999996781349 851
4.45999996736646 899
4.47999996691942 820
4.49999996647239 859
4.51999996602535 886
4.53999996557832 818
4.55999996513128 876
4.57999996468425 856
4.59999996423721 851
4.61999996379018 832
4.63999996334314 867
4.65999996289611 784
4.67999996244907 795
4.69999996200204 794
4.719999961555 768
4.73999996110797 833
4.75999996066093 805
4.7799999602139 766
4.79999995976686 823
4.81999995931983 834
4.83999995887279 781
4.85999995842576 790
4.87999995797873 733
4.89999995753169 767
4.91999995708466 745
4.93999995663762 702
4.95999995619059 757
4.97999995574355 788
4.99999995529652 743
5.01999995484948 736
5.03999995440245 697
5.05999995395541 763
5.07999995350838 717
5.09999995306134 699
5.11999995261431 692
5.13999995216727 717
5.15999995172024 711
5.1799999512732 724
5.19999995082617 682
5.21999995037913 693
5.2399999499321 666
5.25999994948506 731
5.27999994903803 690
5.29999994859099 704
5.31999994814396 688
5.33999994769692 703
5.35999994724989 688
5.37999994680285 692
5.39999994635582 724
5.41999994590878 696
5.43999994546175 703
5.45999994501471 684
5.47999994456768 703
5.49999994412065 653
5.51999994367361 659
5.53999994322658 649
5.55999994277954 668
5.57999994233251 694
5.59999994188547 662
5.61999994143844 668
5.6399999409914 677
5.65999994054437 639
5.67999994009733 641
5.6999999396503 658
5.71999993920326 682
5.73999993875623 674
5.75999993830919 658
5.77999993786216 657
5.79999993741512 692
5.81999993696809 650
5.83999993652105 688
5.85999993607402 686
5.87999993562698 705
5.89999993517995 653
5.91999993473291 684
5.93999993428588 651
5.95999993383884 611
5.97999993339181 657
5.99999993294477 660
6.01999993249774 652
6.0399999320507 624
6.05999993160367 609
6.07999993115663 647
6.0999999307096 665
6.11999993026257 651
6.13999992981553 610
6.1599999293685 637
6.17999992892146 674
6.19999992847443 635
6.21999992802739 643
6.23999992758036 646
6.25999992713332 642
6.27999992668629 630
6.29999992623925 641
6.31999992579222 602
6.33999992534518 636
6.35999992489815 629
6.37999992445111 615
6.39999992400408 644
6.41999992355704 640
6.43999992311001 633
6.45999992266297 633
6.47999992221594 695
6.4999999217689 682
6.51999992132187 649
6.53999992087483 602
6.5599999204278 617
6.57999991998076 619
6.59999991953373 648
6.61999991908669 646
6.63999991863966 605
6.65999991819262 635
6.67999991774559 643
6.69999991729855 621
6.71999991685152 594
6.73999991640449 628
6.75999991595745 609
6.77999991551042 640
6.79999991506338 621
6.81999991461635 622
6.83999991416931 619
6.85999991372228 633
6.87999991327524 598
6.89999991282821 652
6.91999991238117 575
6.93999991193414 636
6.9599999114871 624
6.97999991104007 623
6.99999991059303 669
7.019999910146 657
7.03999990969896 615
7.05999990925193 598
7.07999990880489 639
7.09999990835786 629
7.11999990791082 634
7.13999990746379 609
7.15999990701675 635
7.17999990656972 590
7.19999990612268 627
7.21999990567565 641
7.23999990522861 603
7.25999990478158 621
7.27999990433454 618
7.29999990388751 649
7.31999990344047 645
7.33999990299344 626
7.35999990254641 615
7.37999990209937 607
7.39999990165234 569
7.4199999012053 591
7.43999990075827 576
7.45999990031123 606
7.4799998998642 610
7.49999989941716 622
7.51999989897013 634
7.53999989852309 598
7.55999989807606 599
7.57999989762902 603
7.59999989718199 623
7.61999989673495 635
7.63999989628792 632
7.65999989584088 569
7.67999989539385 603
7.69999989494681 597
7.71999989449978 639
7.73999989405274 605
7.75999989360571 600
7.77999989315867 651
7.79999989271164 640
7.8199998922646 594
7.83999989181757 660
7.85999989137053 630
7.8799998909235 615
7.89999989047646 616
7.91999989002943 602
7.9399998895824 612
7.95999988913536 590
7.97999988868833 616
7.99999988824129 605
8.01999988779426 587
8.03999988734722 619
8.05999988690019 571
8.07999988645315 560
8.09999988600612 622
8.11999988555908 582
8.13999988511205 579
8.15999988466501 604
8.17999988421798 640
8.19999988377094 617
8.21999988332391 593
8.23999988287687 585
8.25999988242984 613
8.2799998819828 571
8.29999988153577 623
8.31999988108873 610
8.3399998806417 642
8.35999988019466 573
8.37999987974763 617
8.39999987930059 610
8.41999987885356 591
8.43999987840652 597
8.45999987795949 641
8.47999987751245 608
8.49999987706542 616
8.51999987661839 603
8.53999987617135 682
8.55999987572432 629
8.57999987527728 625
8.59999987483025 619
8.61999987438321 636
8.63999987393618 602
8.65999987348914 641
8.67999987304211 612
8.69999987259507 646
8.71999987214804 645
8.739999871701 669
8.75999987125397 669
8.77999987080693 667
8.7999998703599 695
8.81999986991286 646
8.83999986946583 656
8.85999986901879 723
8.87999986857176 738
8.89999986812472 661
8.91999986767769 722
8.93999986723065 766
8.95999986678362 739
8.97999986633658 832
8.99999986588955 821
9.01999986544251 856
9.03999986499548 819
9.05999986454844 724
9.07999986410141 626
9.09999986365438 650
9.11999986320734 638
9.13999986276031 611
9.15999986231327 592
9.17999986186624 592
9.1999998614192 616
9.21999986097217 613
9.23999986052513 614
9.2599998600781 587
9.27999985963106 581
9.29999985918403 599
9.31999985873699 621
9.33999985828996 564
9.35999985784292 618
9.37999985739589 585
9.39999985694885 630
9.41999985650182 548
9.43999985605478 608
9.45999985560775 607
9.47999985516071 586
9.49999985471368 592
9.51999985426664 562
9.53999985381961 561
9.55999985337257 567
9.57999985292554 587
9.5999998524785 620
9.61999985203147 566
9.63999985158443 544
9.6599998511374 607
9.67999985069037 587
9.69999985024333 584
9.7199998497963 598
9.73999984934926 565
9.75999984890223 616
9.77999984845519 611
9.79999984800816 621
9.81999984756112 573
9.83999984711409 628
9.85999984666705 606
9.87999984622002 648
9.89999984577298 630
9.91999984532595 709
9.93999984487891 691
9.95999984443188 719
9.97999984398484 719
9.99999984353781 629
10.0199998430908 645
10.0399998426437 590
10.0599998421967 581
10.0799998417497 587
10.0999998413026 554
10.1199998408556 590
10.1399998404086 563
10.1599998399615 534
10.1799998395145 530
10.1999998390675 596
10.2199998386204 531
10.2399998381734 544
10.2599998377264 563
10.2799998372793 531
10.2999998368323 540
10.3199998363853 565
10.3399998359382 571
10.3599998354912 579
10.3799998350441 590
10.3999998345971 562
10.4199998341501 544
10.439999833703 569
10.459999833256 593
10.479999832809 596
10.4999998323619 561
10.5199998319149 574
10.5399998314679 549
10.5599998310208 545
10.5799998305738 580
10.5999998301268 558
10.6199998296797 553
10.6399998292327 528
10.6599998287857 547
10.6799998283386 541
10.6999998278916 569
10.7199998274446 580
10.7399998269975 560
10.7599998265505 575
10.7799998261034 564
10.7999998256564 542
10.8199998252094 519
10.8399998247623 534
10.8599998243153 573
10.8799998238683 593
10.8999998234212 542
10.9199998229742 545
10.9399998225272 588
10.9599998220801 552
10.9799998216331 587
10.9999998211861 539
11.019999820739 552
11.039999820292 551
11.059999819845 548
11.0799998193979 546
11.0999998189509 566
11.1199998185039 559
11.1399998180568 619
11.1599998176098 573
11.1799998171628 565
11.1999998167157 549
11.2199998162687 548
11.2399998158216 550
11.2599998153746 565
11.2799998149276 551
11.2999998144805 558
11.3199998140335 551
11.3399998135865 577
11.3599998131394 560
11.3799998126924 540
11.3999998122454 604
11.4199998117983 548
11.4399998113513 534
11.4599998109043 546
11.4799998104572 568
11.4999998100102 561
11.5199998095632 561
11.5399998091161 584
11.5599998086691 570
11.5799998082221 598
11.599999807775 546
11.619999807328 548
11.639999806881 557
11.6599998064339 532
11.6799998059869 586
11.6999998055398 558
11.7199998050928 605
11.7399998046458 601
11.7599998041987 576
11.7799998037517 560
11.7999998033047 551
11.8199998028576 593
11.8399998024106 571
11.8599998019636 611
11.8799998015165 543
11.8999998010695 554
11.9199998006225 595
11.9399998001754 566
11.9599997997284 587
11.9799997992814 575
11.9999997988343 574
12.0199997983873 589
12.0399997979403 537
12.0599997974932 573
12.0799997970462 534
12.0999997965992 567
12.1199997961521 571
12.1399997957051 624
12.159999795258 603
12.179999794811 593
12.199999794364 587
12.2199997939169 597
12.2399997934699 561
12.2599997930229 574
12.2799997925758 551
12.2999997921288 560
12.3199997916818 566
12.3399997912347 522
12.3599997907877 595
12.3799997903407 556
12.3999997898936 556
12.4199997894466 570
12.4399997889996 587
12.4599997885525 605
12.4799997881055 582
12.4999997876585 585
12.5199997872114 561
12.5399997867644 581
12.5599997863173 544
12.5799997858703 589
12.5999997854233 603
12.6199997849762 619
12.6399997845292 593
12.6599997840822 607
12.6799997836351 599
12.6999997831881 555
12.7199997827411 591
12.739999782294 629
12.759999781847 625
12.7799997814 622
12.7999997809529 576
12.8199997805059 587
12.8399997800589 561
12.8599997796118 551
12.8799997791648 566
12.8999997787178 600
12.9199997782707 590
12.9399997778237 575
12.9599997773767 595
12.9799997769296 602
12.9999997764826 599
13.0199997760355 584
13.0399997755885 607
13.0599997751415 555
13.0799997746944 612
13.0999997742474 613
13.1199997738004 627
13.1399997733533 604
13.1599997729063 649
13.1799997724593 595
13.1999997720122 605
13.2199997715652 612
13.2399997711182 666
13.2599997706711 636
13.2799997702241 605
13.2999997697771 643
13.31999976933 627
13.339999768883 643
13.359999768436 721
13.3799997679889 666
13.3999997675419 675
13.4199997670949 675
13.4399997666478 692
13.4599997662008 619
13.4799997657537 682
13.4999997653067 652
13.5199997648597 603
13.5399997644126 639
13.5599997639656 612
13.5799997635186 605
13.5999997630715 593
13.6199997626245 614
13.6399997621775 666
13.6599997617304 660
13.6799997612834 633
13.6999997608364 654
13.7199997603893 654
13.7399997599423 627
13.7599997594953 629
13.7799997590482 593
13.7999997586012 623
13.8199997581542 619
13.8399997577071 616
13.8599997572601 591
13.879999756813 601
13.899999756366 637
13.919999755919 618
13.9399997554719 574
13.9599997550249 655
13.9799997545779 654
13.9999997541308 637
14.0199997536838 628
14.0399997532368 645
14.0599997527897 646
14.0799997523427 636
14.0999997518957 641
14.1199997514486 627
14.1399997510016 626
14.1599997505546 618
14.1799997501075 627
14.1999997496605 652
14.2199997492135 652
14.2399997487664 650
14.2599997483194 641
14.2799997478724 664
14.2999997474253 618
14.3199997469783 645
14.3399997465312 619
14.3599997460842 645
14.3799997456372 693
14.3999997451901 658
14.4199997447431 640
14.4399997442961 671
14.459999743849 631
14.479999743402 680
14.499999742955 686
14.5199997425079 699
14.5399997420609 684
14.5599997416139 673
14.5799997411668 692
14.5999997407198 707
14.6199997402728 677
14.6399997398257 676
14.6599997393787 639
14.6799997389317 593
14.6999997384846 729
14.7199997380376 686
14.7399997375906 706
14.7599997371435 643
14.7799997366965 656
14.7999997362494 649
14.8199997358024 702
14.8399997353554 665
14.8599997349083 651
14.8799997344613 674
14.8999997340143 648
14.9199997335672 743
14.9399997331202 734
14.9599997326732 682
14.9799997322261 754
14.9999997317791 670
15.0199997313321 668
15.039999730885 673
15.059999730438 701
15.079999729991 720
15.0999997295439 678
15.1199997290969 665
15.1399997286499 722
15.1599997282028 705
15.1799997277558 664
15.1999997273088 742
15.2199997268617 685
15.2399997264147 737
15.2599997259676 705
15.2799997255206 704
15.2999997250736 749
15.3199997246265 707
15.3399997241795 704
15.3599997237325 731
15.3799997232854 736
15.3999997228384 729
15.4199997223914 708
15.4399997219443 725
15.4599997214973 699
15.4799997210503 697
15.4999997206032 743
15.5199997201562 792
15.5399997197092 735
15.5599997192621 735
15.5799997188151 697
15.5999997183681 722
15.619999717921 730
15.639999717474 735
15.659999717027 723
15.6799997165799 737
15.6999997161329 785
15.7199997156858 753
15.7399997152388 750
15.7599997147918 771
15.7799997143447 764
15.7999997138977 727
15.8199997134507 721
15.8399997130036 731
15.8599997125566 775
15.8799997121096 774
15.8999997116625 781
15.9199997112155 794
15.9399997107685 755
15.9599997103214 784
15.9799997098744 770
15.9999997094274 787
16.0199997089803 753
16.0399997085333 754
16.0599997080863 796
16.0799997076392 764
16.0999997071922 826
16.1199997067451 744
16.1399997062981 797
16.1599997058511 821
16.179999705404 852
16.199999704957 759
16.21999970451 811
16.2399997040629 794
16.2599997036159 794
16.2799997031689 780
16.2999997027218 829
16.3199997022748 774
16.3399997018278 807
16.3599997013807 765
16.3799997009337 800
16.3999997004867 812
16.4199997000396 796
16.4399996995926 853
16.4599996991456 835
16.4799996986985 864
16.4999996982515 898
16.5199996978045 789
16.5399996973574 837
16.5599996969104 819
16.5799996964633 886
16.5999996960163 846
16.6199996955693 840
16.6399996951222 827
16.6599996946752 848
16.6799996942282 805
16.6999996937811 870
16.7199996933341 888
16.7399996928871 914
16.75999969244 920
16.779999691993 885
16.799999691546 950
16.8199996910989 986
16.8399996906519 907
16.8599996902049 926
16.8799996897578 1010
16.8999996893108 993
16.9199996888638 1025
16.9399996884167 1039
16.9599996879697 1120
16.9799996875226 1123
16.9999996870756 1222
17.0199996866286 1138
17.0399996861815 1103
17.0599996857345 1068
17.0799996852875 1033
17.0999996848404 942
17.1199996843934 929
17.1399996839464 905
17.1599996834993 921
17.1799996830523 967
17.1999996826053 908
17.2199996821582 948
17.2399996817112 909
17.2599996812642 925
17.2799996808171 952
17.2999996803701 968
17.3199996799231 964
17.339999679476 965
17.359999679029 933
17.379999678582 1009
17.3999996781349 936
17.4199996776879 926
17.4399996772408 943
17.4599996767938 982
17.4799996763468 953
17.4999996758997 981
17.5199996754527 1030
17.5399996750057 957
17.5599996745586 987
17.5799996741116 995
17.5999996736646 979
17.6199996732175 925
17.6399996727705 940
17.6599996723235 952
17.6799996718764 963
17.6999996714294 1007
17.7199996709824 1025
17.7399996705353 1012
17.7599996700883 946
17.7799996696413 998
17.7999996691942 1012
17.8199996687472 982
17.8399996683002 1044
17.8599996678531 1030
17.8799996674061 1061
17.899999666959 1058
17.919999666512 1033
17.939999666065 1051
17.9599996656179 1013
17.9799996651709 1012
17.9999996647239 1028
18.0199996642768 1055
18.0399996638298 1020
18.0599996633828 1042
18.0799996629357 959
18.0999996624887 1035
18.1199996620417 1045
18.1399996615946 1108
18.1599996611476 1021
18.1799996607006 1020
18.1999996602535 1081
18.2199996598065 1053
18.2399996593595 1034
18.2599996589124 1108
18.2799996584654 1094
18.2999996580184 1098
18.3199996575713 1090
18.3399996571243 1095
18.3599996566772 1103
18.3799996562302 1076
18.3999996557832 1117
18.4199996553361 1151
18.4399996548891 1108
18.4599996544421 1123
18.479999653995 1089
18.499999653548 1086
18.519999653101 1101
18.5399996526539 1090
18.5599996522069 1195
18.5799996517599 1137
18.5999996513128 1180
18.6199996508658 1132
18.6399996504188 1129
18.6599996499717 1160
18.6799996495247 1158
18.6999996490777 1115
18.7199996486306 1135
18.7399996481836 1151
18.7599996477366 1177
18.7799996472895 1139
18.7999996468425 1183
18.8199996463954 1201
18.8399996459484 1136
18.8599996455014 1194
18.8799996450543 1196
18.8999996446073 1196
18.9199996441603 1119
18.9399996437132 1115
18.9599996432662 1136
18.9799996428192 1162
18.9999996423721 1204
19.0199996419251 1210
19.0399996414781 1190
19.059999641031 1251
19.079999640584 1185
19.099999640137 1207
19.1199996396899 1191
19.1399996392429 1240
19.1599996387959 1204
19.1799996383488 1241
19.1999996379018 1181
19.2199996374547 1195
19.2399996370077 1200
19.2599996365607 1299
19.2799996361136 1214
19.2999996356666 1233
19.3199996352196 1235
19.3399996347725 1284
19.3599996343255 1267
19.3799996338785 1308
19.3999996334314 1279
19.4199996329844 1290
19.4399996325374 1172
19.4599996320903 1278
19.4799996316433 1225
19.4999996311963 1310
19.5199996307492 1270
19.5399996303022 1254
19.5599996298552 1270
19.5799996294081 1309
19.5999996289611 1272
19.6199996285141 1268
19.639999628067 1285
19.65999962762 1337
19.6799996271729 1278
19.6999996267259 1267
19.7199996262789 1358
19.7399996258318 1326
19.7599996253848 1331
19.7799996249378 1341
19.7999996244907 1314
19.8199996240437 1312
19.8399996235967 1322
19.8599996231496 1347
19.8799996227026 1313
19.8999996222556 1396
19.9199996218085 1390
19.9399996213615 1327
19.9599996209145 1338
19.9799996204674 1318
19.9999996200204 1366
