3 2813
3.01999999955297 2674
3.03999999910593 2570
3.0599999986589 2451
3.07999999821186 2397
3.09999999776483 2259
3.11999999731779 2248
3.13999999687076 2214
3.15999999642372 2206
3.17999999597669 2169
3.19999999552965 2161
3.21999999508262 2115
3.23999999463558 2039
3.25999999418855 2049
3.27999999374151 2066
3.29999999329448 2013
3.31999999284744 2039
3.33999999240041 1987
3.35999999195337 1934
3.37999999150634 1961
3.3999999910593 1937
3.41999999061227 1932
3.43999999016523 1909
3.4599999897182 1929
3.47999998927116 1865
3.49999998882413 1909
3.51999998837709 1856
3.53999998793006 1845
3.55999998748302 1807
3.57999998703599 1858
3.59999998658895 1830
3.61999998614192 1784
3.63999998569489 1762
3.65999998524785 1771
3.67999998480082 1735
3.69999998435378 1676
3.71999998390675 1709
3.73999998345971 1730
3.75999998301268 1733
3.77999998256564 1736
3.79999998211861 1578
3.81999998167157 1684
3.83999998122454 1650
3.8599999807775 1707
3.87999998033047 1582
3.89999997988343 1614
3.9199999794364 1659
3.93999997898936 1657
3.95999997854233 1548
3.97999997809529 1602
3.99999997764826 1584
4.01999997720122 1594
4.03999997675419 1525
4.05999997630715 1541
4.07999997586012 1520
4.09999997541308 1592
4.11999997496605 1460
4.13999997451901 1545
4.15999997407198 1494
4.17999997362494 1555
4.19999997317791 1433
4.21999997273087 1540
4.23999997228384 1441
4.25999997183681 1473
4.27999997138977 1426
4.29999997094274 1467
4.3199999704957 1485
4.33999997004867 1477
4.35999996960163 1445
4.3799999691546 1455
4.39999996870756 1428
4.41999996826053 1381
4.43999996781349 1368
4.45999996736646 1432
4.47999996691942 1392
4.49999996647239 1377
4.51999996602535 1365
4.53999996557832 1368
4.55999996513128 1315
4.57999996468425 1317
4.59999996423721 1377
4.61999996379018 1386
4.63999996334314 1309
4.65999996289611 1313
4.67999996244907 1320
4.69999996200204 1330
4.719999961555 1259
4.73999996110797 1306
4.75999996066093 1293
4.7799999602139 1265
4.79999995976686 1328
4.81999995931983 1255
4.83999995887279 1348
4.85999995842576 1297
4.87999995797873 1251
4.89999995753169 1349
4.91999995708466 1318
4.93999995663762 1282
4.95999995619059 1251
4.97999995574355 1250
4.99999995529652 1293
5.01999995484948 1302
5.03999995440245 1333
5.05999995395541 1284
5.07999995350838 1287
5.09999995306134 1344
5.11999995261431 1314
5.13999995216727 1340
5.15999995172024 1342
5.1799999512732 1353
5.19999995082617 1361
5.21999995037913 1380
5.2399999499321 1319
5.25999994948506 1428
5.27999994903803 1448
5.29999994859099 1425
5.31999994814396 1476
5.33999994769692 1514
5.35999994724989 1541
5.37999994680285 1645
5.39999994635582 1765
5.41999994590878 1762
5.43999994546175 1702
5.45999994501471 1560
5.47999994456768 1445
5.49999994412065 1348
5.51999994367361 1308
5.53999994322658 1296
5.55999994277954 1276
5.57999994233251 1271
5.59999994188547 1231
5.61999994143844 1215
5.6399999409914 1204
5.65999994054437 1203
5.67999994009733 1185
5.6999999396503 1096
5.71999993920326 1161
5.73999993875623 1100
5.75999993830919 1145
5.77999993786216 1111
5.79999993741512 1065
5.81999993696809 1012
5.83999993652105 1056
5.85999993607402 1059
5.87999993562698 1081
5.89999993517995 981
5.91999993473291 949
5.93999993428588 1012
5.95999993383884 1067
5.97999993339181 1026
5.99999993294477 999
6.01999993249774 966
6.0399999320507 985
6.05999993160367 1025
6.07999993115663 972
6.0999999307096 997
6.11999993026257 1000
6.13999992981553 985
6.1599999293685 984
6.17999992892146 931
6.19999992847443 912
6.21999992802739 961
6.23999992758036 922
6.25999992713332 955
6.27999992668629 962
6.29999992623925 966
6.31999992579222 936
6.33999992534518 973
6.35999992489815 974
6.37999992445111 910
6.39999992400408 919
6.41999992355704 944
6.43999992311001 942
6.45999992266297 969
6.47999992221594 909
6.4999999217689 919
6.51999992132187 904
6.53999992087483 884
6.5599999204278 922
6.57999991998076 908
6.59999991953373 844
6.61999991908669 873
6.63999991863966 859
6.65999991819262 858
6.67999991774559 888
6.69999991729855 816
6.71999991685152 909
6.73999991640449 902
6.75999991595745 885
6.77999991551042 883
6.79999991506338 845
6.81999991461635 856
6.83999991416931 836
6.85999991372228 848
6.87999991327524 814
6.89999991282821 920
6.91999991238117 832
6.93999991193414 803
6.9599999114871 760
6.97999991104007 862
6.99999991059303 845
7.019999910146 862
7.03999990969896 778
7.05999990925193 831
7.07999990880489 816
7.09999990835786 800
7.11999990791082 798
7.13999990746379 846
7.15999990701675 813
7.17999990656972 775
7.19999990612268 838
7.21999990567565 783
7.23999990522861 774
7.25999990478158 818
7.27999990433454 805
7.29999990388751 809
7.31999990344047 848
7.33999990299344 835
7.35999990254641 782
7.37999990209937 812
7.39999990165234 845
7.4199999012053 822
7.43999990075827 820
7.45999990031123 761
7.4799998998642 818
7.49999989941716 805
7.51999989897013 786
7.53999989852309 774
7.55999989807606 776
7.57999989762902 810
7.59999989718199 823
7.61999989673495 813
7.63999989628792 808
7.65999989584088 805
7.67999989539385 823
7.69999989494681 776
7.71999989449978 804
7.73999989405274 783
7.75999989360571 788
7.77999989315867 723
7.79999989271164 790
7.8199998922646 766
7.83999989181757 831
7.85999989137053 822
7.8799998909235 831
7.89999989047646 798
7.91999989002943 770
7.9399998895824 805
7.95999988913536 724
7.97999988868833 762
7.99999988824129 783
8.01999988779426 772
8.03999988734722 748
8.05999988690019 733
8.07999988645315 786
8.09999988600612 775
8.11999988555908 782
8.13999988511205 785
8.15999988466501 739
8.17999988421798 795
8.19999988377094 759
8.21999988332391 769
8.23999988287687 730
8.25999988242984 751
8.2799998819828 749
8.29999988153577 736
8.31999988108873 743
8.3399998806417 752
8.35999988019466 706
8.37999987974763 746
8.39999987930059 733
8.41999987885356 767
8.43999987840652 743
8.45999987795949 712
8.47999987751245 773
8.49999987706542 738
8.51999987661839 773
8.53999987617135 701
8.55999987572432 710
8.57999987527728 735
8.59999987483025 724
8.61999987438321 760
8.63999987393618 745
8.65999987348914 735
8.67999987304211 685
8.69999987259507 771
8.71999987214804 773
8.739999871701 723
8.75999987125397 735
8.77999987080693 708
8.7999998703599 712
8.81999986991286 700
8.83999986946583 726
8.85999986901879 740
8.87999986857176 710
8.89999986812472 754
8.91999986767769 750
8.93999986723065 728
8.95999986678362 747
8.97999986633658 740
8.99999986588955 779
9.01999986544251 815
9.03999986499548 759
9.05999986454844 751
9.07999986410141 741
9.09999986365438 751
9.11999986320734 732
9.13999986276031 771
9.15999986231327 746
9.17999986186624 770
9.1999998614192 783
9.21999986097217 753
9.23999986052513 739
9.2599998600781 746
9.27999985963106 867
9.29999985918403 823
9.31999985873699 842
9.33999985828996 894
9.35999985784292 871
9.37999985739589 814
9.39999985694885 735
9.41999985650182 730
9.43999985605478 773
9.45999985560775 718
9.47999985516071 708
9.49999985471368 699
9.51999985426664 709
9.53999985381961 711
9.55999985337257 733
9.57999985292554 719
9.5999998524785 675
9.61999985203147 692
9.63999985158443 727
9.6599998511374 696
9.67999985069037 732
9.69999985024333 761
9.7199998497963 694
9.73999984934926 708
9.75999984890223 695
9.77999984845519 694
9.79999984800816 706
9.81999984756112 693
9.83999984711409 714
9.85999984666705 687
9.87999984622002 705
9.89999984577298 631
9.91999984532595 688
9.93999984487891 692
9.95999984443188 700
9.97999984398484 738
9.99999984353781 728
10.0199998430908 721
10.0399998426437 715
10.0599998421967 695
10.0799998417497 661
10.0999998413026 696
10.1199998408556 683
10.1399998404086 673
10.1599998399615 744
10.1799998395145 660
10.1999998390675 695
10.2199998386204 690
10.2399998381734 772
10.2599998377264 682
10.2799998372793 717
10.2999998368323 693
10.3199998363853 668
10.3399998359382 656
10.3599998354912 682
10.3799998350441 640
10.3999998345971 677
10.4199998341501 658
10.439999833703 651
10.459999833256 703
10.479999832809 743
10.4999998323619 681
10.5199998319149 672
10.5399998314679 695
10.5599998310208 674
10.5799998305738 662
10.5999998301268 692
10.6199998296797 706
10.6399998292327 715
10.6599998287857 713
10.6799998283386 707
10.6999998278916 763
10.7199998274446 735
10.7399998269975 767
10.7599998265505 729
10.7799998261034 758
10.7999998256564 743
10.8199998252094 769
10.8399998247623 716
10.8599998243153 720
10.8799998238683 732
10.8999998234212 710
10.9199998229742 700
10.9399998225272 681
10.9599998220801 749
10.9799998216331 716
10.9999998211861 688
11.019999820739 704
11.039999820292 683
11.059999819845 650
11.0799998193979 679
11.0999998189509 676
11.1199998185039 683
11.1399998180568 672
11.1599998176098 670
11.1799998171628 680
11.1999998167157 684
11.2199998162687 715
11.2399998158216 724
11.2599998153746 649
11.2799998149276 670
11.2999998144805 677
11.3199998140335 702
11.3399998135865 681
11.3599998131394 719
11.3799998126924 723
11.3999998122454 683
11.4199998117983 690
11.4399998113513 673
11.4599998109043 702
11.4799998104572 701
11.4999998100102 713
11.5199998095632 713
11.5399998091161 698
11.5599998086691 698
11.5799998082221 653
11.599999807775 638
11.619999807328 711
11.639999806881 692
11.6599998064339 656
11.6799998059869 667
11.6999998055398 732
11.7199998050928 699
11.7399998046458 658
11.7599998041987 686
11.7799998037517 694
11.7999998033047 628
11.8199998028576 674
11.8399998024106 718
11.8599998019636 665
11.8799998015165 699
11.8999998010695 681
11.9199998006225 713
11.9399998001754 699
11.9599997997284 735
11.9799997992814 704
11.9999997988343 736
12.0199997983873 696
12.0399997979403 687
12.0599997974932 694
12.0799997970462 707
12.0999997965992 696
12.1199997961521 719
12.1399997957051 697
12.159999795258 728
12.179999794811 656
12.199999794364 690
12.2199997939169 731
12.2399997934699 701
12.2599997930229 744
12.2799997925758 679
12.2999997921288 713
12.3199997916818 712
12.3399997912347 727
12.3599997907877 713
12.3799997903407 692
12.3999997898936 698
12.4199997894466 690
12.4399997889996 749
12.4599997885525 697
12.4799997881055 689
12.4999997876585 718
12.5199997872114 713
12.5399997867644 717
12.5599997863173 684
12.5799997858703 699
12.5999997854233 716
12.6199997849762 719
12.6399997845292 736
12.6599997840822 751
12.6799997836351 767
12.6999997831881 701
12.7199997827411 748
12.739999782294 716
12.759999781847 724
12.7799997814 720
12.7999997809529 669
12.8199997805059 660
12.8399997800589 706
12.8599997796118 675
12.8799997791648 678
12.8999997787178 665
12.9199997782707 721
12.9399997778237 742
12.9599997773767 676
12.9799997769296 695
12.9999997764826 705
13.0199997760355 759
13.0399997755885 710
13.0599997751415 754
13.0799997746944 745
13.0999997742474 740
13.1199997738004 755
13.1399997733533 744
13.1599997729063 718
13.1799997724593 723
13.1999997720122 727
13.2199997715652 736
13.2399997711182 815
13.2599997706711 757
13.2799997702241 737
13.2999997697771 746
13.31999976933 732
13.339999768883 738
13.359999768436 695
13.3799997679889 741
13.3999997675419 781
13.4199997670949 751
13.4399997666478 732
13.4599997662008 738
13.4799997657537 728
13.4999997653067 774
13.5199997648597 675
13.5399997644126 695
13.5599997639656 738
13.5799997635186 757
13.5999997630715 734
13.6199997626245 765
13.6399997621775 726
13.6599997617304 783
13.6799997612834 714
13.6999997608364 728
13.7199997603893 765
13.7399997599423 753
13.7599997594953 762
13.7799997590482 756
13.7999997586012 734
13.8199997581542 763
13.8399997577071 771
13.8599997572601 729
13.879999756813 756
13.899999756366 801
13.919999755919 777
13.9399997554719 804
13.9599997550249 762
13.9799997545779 777
13.9999997541308 711
14.0199997536838 756
14.0399997532368 774
14.0599997527897 785
14.0799997523427 770
14.0999997518957 783
14.1199997514486 806
14.1399997510016 821
14.1599997505546 782
14.1799997501075 787
14.1999997496605 803
14.2199997492135 841
14.2399997487664 802
14.2599997483194 789
14.2799997478724 777
14.2999997474253 786
14.3199997469783 799
14.3399997465312 762
14.3599997460842 793
14.3799997456372 845
14.3999997451901 822
14.4199997447431 861
14.4399997442961 808
14.459999743849 847
14.479999743402 849
14.499999742955 802
14.5199997425079 848
14.5399997420609 784
14.5599997416139 848
14.5799997411668 806
14.5999997407198 800
14.6199997402728 809
14.6399997398257 816
14.6599997393787 830
14.6799997389317 824
14.6999997384846 844
14.7199997380376 836
14.7399997375906 833
14.7599997371435 810
14.7799997366965 827
14.7999997362494 823
14.8199997358024 782
14.8399997353554 850
14.8599997349083 806
14.8799997344613 841
14.8999997340143 873
14.9199997335672 889
14.9399997331202 894
14.9599997326732 883
14.9799997322261 867
14.9999997317791 825
15.0199997313321 833
15.039999730885 817
15.059999730438 819
15.079999729991 843
15.0999997295439 882
15.1199997290969 866
15.1399997286499 873
15.1599997282028 870
15.1799997277558 851
15.1999997273088 911
15.2199997268617 911
15.2399997264147 911
15.2599997259676 879
15.2799997255206 858
15.2999997250736 866
15.3199997246265 878
15.3399997241795 921
15.3599997237325 846
15.3799997232854 911
15.3999997228384 952
15.4199997223914 903
15.4399997219443 887
15.4599997214973 932
15.4799997210503 966
15.4999997206032 870
15.5199997201562 913
15.5399997197092 927
15.5599997192621 920
15.5799997188151 955
15.5999997183681 902
15.619999717921 924
15.639999717474 906
15.659999717027 1001
15.6799997165799 927
15.6999997161329 921
15.7199997156858 942
15.7399997152388 878
15.7599997147918 995
15.7799997143447 927
15.7999997138977 918
15.8199997134507 948
15.8399997130036 921
15.8599997125566 924
15.8799997121096 920
15.8999997116625 1000
15.9199997112155 951
15.9399997107685 940
15.9599997103214 967
15.9799997098744 931
15.9999997094274 970
16.0199997089803 929
16.0399997085333 940
16.0599997080863 993
16.0799997076392 1000
16.0999997071922 990
16.1199997067451 970
16.1399997062981 1001
16.1599997058511 970
16.179999705404 959
16.199999704957 998
16.21999970451 1004
16.2399997040629 957
16.2599997036159 931
16.2799997031689 1006
16.2999997027218 1003
16.3199997022748 1035
16.3399997018278 1022
16.3599997013807 958
16.3799997009337 1024
16.3999997004867 1061
16.4199997000396 1039
16.4399996995926 1004
16.4599996991456 1059
16.4799996986985 1081
16.4999996982515 1075
16.5199996978045 1022
16.5399996973574 1039
16.5599996969104 1076
16.5799996964633 996
16.5999996960163 1096
16.6199996955693 1136
16.6399996951222 1083
16.6599996946752 1090
16.6799996942282 1161
16.6999996937811 1172
16.7199996933341 1201
16.7399996928871 1247
16.75999969244 1240
16.779999691993 1299
16.799999691546 1335
16.8199996910989 1350
16.8399996906519 1406
16.8599996902049 1523
16.8799996897578 1636
16.8999996893108 1824
16.9199996888638 2088
16.9399996884167 2403
16.9599996879697 2695
16.9799996875226 2801
16.9999996870756 2987
17.0199996866286 2703
17.0399996861815 2380
17.0599996857345 2001
17.0799996852875 1631
17.0999996848404 1511
17.1199996843934 1313
17.1399996839464 1275
17.1599996834993 1173
17.1799996830523 1192
17.1999996826053 1192
17.2199996821582 1178
17.2399996817112 1159
17.2599996812642 1166
17.2799996808171 1182
17.2999996803701 1125
17.3199996799231 1144
17.339999679476 1179
17.359999679029 1182
17.379999678582 1159
17.3999996781349 1147
17.4199996776879 1218
17.4399996772408 1230
17.4599996767938 1267
17.4799996763468 1176
17.4999996758997 1194
17.5199996754527 1151
17.5399996750057 1162
17.5599996745586 1209
17.5799996741116 1158
17.5999996736646 1210
17.6199996732175 1191
17.6399996727705 1197
17.6599996723235 1181
17.6799996718764 1229
17.6999996714294 1259
17.7199996709824 1196
17.7399996705353 1148
17.7599996700883 1192
17.7799996696413 1203
17.7999996691942 1230
17.8199996687472 1245
17.8399996683002 1306
17.8599996678531 1203
17.8799996674061 1257
17.899999666959 1195
17.919999666512 1244
17.939999666065 1278
17.9599996656179 1284
17.9799996651709 1232
17.9999996647239 1284
18.0199996642768 1243
18.0399996638298 1264
18.0599996633828 1307
18.0799996629357 1333
18.0999996624887 1313
18.1199996620417 1337
18.1399996615946 1276
18.1599996611476 1338
18.1799996607006 1290
18.1999996602535 1295
18.2199996598065 1287
18.2399996593595 1304
18.2599996589124 1295
18.2799996584654 1268
18.2999996580184 1313
18.3199996575713 1314
18.3399996571243 1304
18.3599996566772 1368
18.3799996562302 1337
18.3999996557832 1314
18.4199996553361 1338
18.4399996548891 1332
18.4599996544421 1377
18.479999653995 1354
18.499999653548 1355
18.519999653101 1361
18.5399996526539 1410
18.5599996522069 1387
18.5799996517599 1377
18.5999996513128 1316
18.6199996508658 1389
18.6399996504188 1402
18.6599996499717 1351
18.6799996495247 1367
18.6999996490777 1330
18.7199996486306 1383
18.7399996481836 1398
18.7599996477366 1383
18.7799996472895 1442
18.7999996468425 1432
18.8199996463954 1462
18.8399996459484 1434
18.8599996455014 1465
18.8799996450543 1511
18.8999996446073 1412
18.9199996441603 1431
18.9399996437132 1384
18.9599996432662 1434
18.9799996428192 1443
18.9999996423721 1460
19.0199996419251 1374
19.0399996414781 1441
19.059999641031 1423
19.079999640584 1481
19.099999640137 1434
19.1199996396899 1458
19.1399996392429 1424
19.1599996387959 1518
19.1799996383488 1506
19.1999996379018 1507
19.2199996374547 1462
19.2399996370077 1512
19.2599996365607 1551
19.2799996361136 1464
19.2999996356666 1592
19.3199996352196 1536
19.3399996347725 1553
19.3599996343255 1512
19.3799996338785 1541
19.3999996334314 1576
19.4199996329844 1590
19.4399996325374 1495
19.4599996320903 1540
19.4799996316433 1563
19.4999996311963 1549
19.5199996307492 1590
19.5399996303022 1523
19.5599996298552 1562
19.5799996294081 1552
19.5999996289611 1576
19.6199996285141 1615
19.639999628067 1559
19.65999962762 1576
19.6799996271729 1604
19.6999996267259 1594
19.7199996262789 1545
19.7399996258318 1611
19.7599996253848 1674
19.7799996249378 1601
19.7999996244907 1602
19.8199996240437 1645
19.8399996235967 1466
19.8599996231496 1704
19.8799996227026 1533
19.8999996222556 1591
19.9199996218085 1623
19.9399996213615 1595
19.9599996209145 1595
19.9799996204674 1637
19.9999996200204 1635
