3 3517
3.01999999955297 3295
3.03999999910593 3034
3.0599999986589 3039
3.07999999821186 2879
3.09999999776483 2787
3.11999999731779 2658
3.13999999687076 2656
3.15999999642372 2678
3.17999999597669 2563
3.19999999552965 2642
3.21999999508262 2462
3.23999999463558 2407
3.25999999418855 2358
3.27999999374151 2376
3.29999999329448 2401
3.31999999284744 2278
3.33999999240041 2230
3.35999999195337 2167
3.37999999150634 2162
3.3999999910593 2120
3.41999999061227 1987
3.43999999016523 2056
3.4599999897182 2010
3.47999998927116 2001
3.49999998882413 2024
3.51999998837709 1976
3.53999998793006 1941
3.55999998748302 1956
3.57999998703599 1863
3.59999998658895 1839
3.61999998614192 1757
3.63999998569489 1745
3.65999998524785 1805
3.67999998480082 1733
3.69999998435378 1673
3.71999998390675 1717
3.73999998345971 1636
3.75999998301268 1624
3.77999998256564 1567
3.79999998211861 1560
3.81999998167157 1477
3.83999998122454 1554
3.8599999807775 1541
3.87999998033047 1499
3.89999997988343 1457
3.9199999794364 1536
3.93999997898936 1431
3.95999997854233 1453
3.97999997809529 1418
3.99999997764826 1381
4.01999997720122 1389
4.03999997675419 1314
4.05999997630715 1317
4.07999997586012 1290
4.09999997541308 1273
4.11999997496605 1249
4.13999997451901 1278
4.15999997407198 1202
4.17999997362494 1185
4.19999997317791 1259
4.21999997273087 1230
4.23999997228384 1236
4.25999997183681 1158
4.27999997138977 1128
4.29999997094274 1202
4.3199999704957 1118
4.33999997004867 1146
4.35999996960163 1156
4.3799999691546 1089
4.39999996870756 1095
4.41999996826053 1081
4.43999996781349 1074
4.45999996736646 1056
4.47999996691942 1048
4.49999996647239 1020
4.51999996602535 1100
4.53999996557832 1022
4.55999996513128 1037
4.57999996468425 1012
4.59999996423721 970
4.61999996379018 1002
4.63999996334314 984
4.65999996289611 979
4.67999996244907 1003
4.69999996200204 980
4.719999961555 927
4.73999996110797 913
4.75999996066093 980
4.7799999602139 894
4.79999995976686 915
4.81999995931983 886
4.83999995887279 883
4.85999995842576 927
4.87999995797873 914
4.89999995753169 841
4.91999995708466 838
4.93999995663762 885
4.95999995619059 861
4.97999995574355 846
4.99999995529652 832
5.01999995484948 856
5.03999995440245 828
5.05999995395541 853
5.07999995350838 822
5.09999995306134 841
5.11999995261431 809
5.13999995216727 810
5.15999995172024 831
5.1799999512732 802
5.19999995082617 796
5.21999995037913 823
5.2399999499321 738
5.25999994948506 804
5.27999994903803 847
5.29999994859099 763
5.31999994814396 760
5.33999994769692 789
5.35999994724989 785
5.37999994680285 762
5.39999994635582 757
5.41999994590878 800
5.43999994546175 696
5.45999994501471 748
5.47999994456768 772
5.49999994412065 770
5.51999994367361 713
5.53999994322658 713
5.55999994277954 684
5.57999994233251 726
5.59999994188547 762
5.61999994143844 694
5.6399999409914 757
5.65999994054437 759
5.67999994009733 733
5.6999999396503 716
5.71999993920326 727
5.73999993875623 686
5.75999993830919 711
5.77999993786216 708
5.79999993741512 651
5.81999993696809 697
5.83999993652105 708
5.85999993607402 648
5.87999993562698 671
5.89999993517995 699
5.91999993473291 633
5.93999993428588 703
5.95999993383884 711
5.97999993339181 671
5.99999993294477 731
6.01999993249774 674
6.0399999320507 672
6.05999993160367 675
6.07999993115663 699
6.0999999307096 675
6.11999993026257 651
6.13999992981553 684
6.1599999293685 696
6.17999992892146 660
6.19999992847443 618
6.21999992802739 611
6.23999992758036 658
6.25999992713332 621
6.27999992668629 639
6.29999992623925 686
6.31999992579222 653
6.33999992534518 673
6.35999992489815 649
6.37999992445111 644
6.39999992400408 638
6.41999992355704 657
6.43999992311001 601
6.45999992266297 618
6.47999992221594 627
6.4999999217689 662
6.51999992132187 637
6.53999992087483 628
6.5599999204278 655
6.57999991998076 659
6.59999991953373 620
6.61999991908669 650
6.63999991863966 596
6.65999991819262 594
6.67999991774559 618
6.69999991729855 631
6.71999991685152 684
6.73999991640449 618
6.75999991595745 613
6.77999991551042 638
6.79999991506338 673
6.81999991461635 619
6.83999991416931 650
6.85999991372228 655
6.87999991327524 603
6.89999991282821 633
6.91999991238117 630
6.93999991193414 614
6.9599999114871 593
6.97999991104007 633
6.99999991059303 584
7.019999910146 621
7.03999990969896 604
7.05999990925193 612
7.07999990880489 532
7.09999990835786 593
7.11999990791082 609
7.13999990746379 617
7.15999990701675 575
7.17999990656972 599
7.19999990612268 632
7.21999990567565 557
7.23999990522861 627
7.25999990478158 677
7.27999990433454 606
7.29999990388751 598
7.31999990344047 575
7.33999990299344 613
7.35999990254641 585
7.37999990209937 598
7.39999990165234 629
7.4199999012053 609
7.43999990075827 621
7.45999990031123 585
7.4799998998642 598
7.49999989941716 582
7.51999989897013 574
7.53999989852309 607
7.55999989807606 604
7.57999989762902 558
7.59999989718199 556
7.61999989673495 602
7.63999989628792 584
7.65999989584088 575
7.67999989539385 638
7.69999989494681 566
7.71999989449978 577
7.73999989405274 595
7.75999989360571 559
7.77999989315867 569
7.79999989271164 547
7.8199998922646 564
7.83999989181757 602
7.85999989137053 627
7.8799998909235 604
7.89999989047646 564
7.91999989002943 621
7.9399998895824 586
7.95999988913536 547
7.97999988868833 553
7.99999988824129 558
8.01999988779426 567
8.03999988734722 545
8.05999988690019 594
8.07999988645315 573
8.09999988600612 570
8.11999988555908 625
8.13999988511205 648
8.15999988466501 562
8.17999988421798 560
8.19999988377094 574
8.21999988332391 595
8.23999988287687 581
8.25999988242984 549
8.2799998819828 625
8.29999988153577 600
8.31999988108873 601
8.3399998806417 607
8.35999988019466 614
8.37999987974763 564
8.39999987930059 558
8.41999987885356 636
8.43999987840652 620
8.45999987795949 636
8.47999987751245 623
8.49999987706542 625
8.51999987661839 596
8.53999987617135 666
8.55999987572432 682
8.57999987527728 696
8.59999987483025 703
8.61999987438321 742
8.63999987393618 738
8.65999987348914 748
8.67999987304211 814
8.69999987259507 794
8.71999987214804 898
8.739999871701 901
8.75999987125397 916
8.77999987080693 1005
8.7999998703599 1065
8.81999986991286 1089
8.83999986946583 1179
8.85999986901879 1260
8.87999986857176 1412
8.89999986812472 1564
8.91999986767769 1691
8.93999986723065 2016
8.95999986678362 2264
8.97999986633658 2571
8.99999986588955 2707
9.01999986544251 2611
9.03999986499548 2253
9.05999986454844 1610
9.07999986410141 1110
9.09999986365438 902
9.11999986320734 802
9.13999986276031 760
9.15999986231327 754
9.17999986186624 718
9.1999998614192 715
9.21999986097217 652
9.23999986052513 673
9.2599998600781 718
9.27999985963106 671
9.29999985918403 659
9.31999985873699 704
9.33999985828996 690
9.35999985784292 659
9.37999985739589 637
9.39999985694885 633
9.41999985650182 583
9.43999985605478 619
9.45999985560775 684
9.47999985516071 612
9.49999985471368 665
9.51999985426664 683
9.53999985381961 642
9.55999985337257 661
9.57999985292554 703
9.5999998524785 663
9.61999985203147 712
9.63999985158443 716
9.6599998511374 751
9.67999985069037 764
9.69999985024333 772
9.7199998497963 780
9.73999984934926 829
9.75999984890223 898
9.77999984845519 903
9.79999984800816 964
9.81999984756112 1034
9.83999984711409 1123
9.85999984666705 1194
9.87999984622002 1318
9.89999984577298 1499
9.91999984532595 1703
9.93999984487891 2149
9.95999984443188 2376
9.97999984398484 2108
9.99999984353781 1635
10.0199998430908 1187
10.0399998426437 884
10.0599998421967 737
10.0799998417497 678
10.0999998413026 636
10.1199998408556 660
10.1399998404086 615
10.1599998399615 588
10.1799998395145 565
10.1999998390675 576
10.2199998386204 601
10.2399998381734 590
10.2599998377264 502
10.2799998372793 542
10.2999998368323 550
10.3199998363853 574
10.3399998359382 574
10.3599998354912 557
10.3799998350441 559
10.3999998345971 592
10.4199998341501 525
10.439999833703 523
10.459999833256 543
10.479999832809 554
10.4999998323619 530
10.5199998319149 540
10.5399998314679 574
10.5599998310208 533
10.5799998305738 527
10.5999998301268 554
10.6199998296797 512
10.6399998292327 536
10.6599998287857 565
10.6799998283386 507
10.6999998278916 547
10.7199998274446 573
10.7399998269975 506
10.7599998265505 487
10.7799998261034 506
10.7999998256564 558
10.8199998252094 529
10.8399998247623 540
10.8599998243153 532
10.8799998238683 520
10.8999998234212 513
10.9199998229742 521
10.9399998225272 558
10.9599998220801 560
10.9799998216331 496
10.9999998211861 499
11.019999820739 534
11.039999820292 505
11.059999819845 514
11.0799998193979 542
11.0999998189509 514
11.1199998185039 526
11.1399998180568 516
11.1599998176098 495
11.1799998171628 517
11.1999998167157 476
11.2199998162687 552
11.2399998158216 491
11.2599998153746 492
11.2799998149276 518
11.2999998144805 495
11.3199998140335 518
11.3399998135865 522
11.3599998131394 515
11.3799998126924 531
11.3999998122454 546
11.4199998117983 522
11.4399998113513 507
11.4599998109043 503
11.4799998104572 529
11.4999998100102 506
11.5199998095632 504
11.5399998091161 543
11.5599998086691 541
11.5799998082221 556
11.599999807775 518
11.619999807328 511
11.639999806881 506
11.6599998064339 491
11.6799998059869 472
11.6999998055398 550
11.7199998050928 510
11.7399998046458 501
11.7599998041987 483
11.7799998037517 483
11.7999998033047 483
11.8199998028576 531
11.8399998024106 537
11.8599998019636 492
11.8799998015165 477
11.8999998010695 547
11.9199998006225 514
11.9399998001754 527
11.9599997997284 529
11.9799997992814 518
11.9999997988343 547
12.0199997983873 491
12.0399997979403 524
12.0599997974932 524
12.0799997970462 515
12.0999997965992 542
12.1199997961521 534
12.1399997957051 543
12.159999795258 541
12.179999794811 512
12.199999794364 533
12.2199997939169 495
12.2399997934699 542
12.2599997930229 530
12.2799997925758 572
12.2999997921288 525
12.3199997916818 545
12.3399997912347 544
12.3599997907877 540
12.3799997903407 538
12.3999997898936 550
12.4199997894466 530
12.4399997889996 528
12.4599997885525 609
12.4799997881055 568
12.4999997876585 594
12.5199997872114 603
12.5399997867644 643
12.5599997863173 630
12.5799997858703 685
12.5999997854233 677
12.6199997849762 741
12.6399997845292 714
12.6599997840822 749
12.6799997836351 799
12.6999997831881 783
12.7199997827411 782
12.739999782294 715
12.759999781847 699
12.7799997814 677
12.7999997809529 660
12.8199997805059 640
12.8399997800589 592
12.8599997796118 578
12.8799997791648 625
12.8999997787178 556
12.9199997782707 553
12.9399997778237 519
12.9599997773767 540
12.9799997769296 555
12.9999997764826 583
13.0199997760355 553
13.0399997755885 565
13.0599997751415 538
13.0799997746944 568
13.0999997742474 594
13.1199997738004 571
13.1399997733533 597
13.1599997729063 632
13.1799997724593 640
13.1999997720122 650
13.2199997715652 655
13.2399997711182 640
13.2599997706711 682
13.2799997702241 741
13.2999997697771 805
13.31999976933 827
13.339999768883 909
13.359999768436 918
13.3799997679889 1028
13.3999997675419 1041
13.4199997670949 1166
13.4399997666478 1063
13.4599997662008 956
13.4799997657537 853
13.4999997653067 672
13.5199997648597 665
13.5399997644126 609
13.5599997639656 583
13.5799997635186 636
13.5999997630715 589
13.6199997626245 521
13.6399997621775 560
13.6599997617304 563
13.6799997612834 552
13.6999997608364 537
13.7199997603893 540
13.7399997599423 536
13.7599997594953 567
13.7799997590482 580
13.7999997586012 574
13.8199997581542 532
13.8399997577071 523
13.8599997572601 547
13.879999756813 562
13.899999756366 547
13.919999755919 540
13.9399997554719 541
13.9599997550249 538
13.9799997545779 553
13.9999997541308 524
14.0199997536838 523
14.0399997532368 555
14.0599997527897 566
14.0799997523427 575
14.0999997518957 581
14.1199997514486 553
14.1399997510016 583
14.1599997505546 592
14.1799997501075 579
14.1999997496605 540
14.2199997492135 571
14.2399997487664 533
14.2599997483194 576
14.2799997478724 556
14.2999997474253 569
14.3199997469783 522
14.3399997465312 528
14.3599997460842 535
14.3799997456372 510
14.3999997451901 561
14.4199997447431 582
14.4399997442961 535
14.459999743849 544
14.479999743402 529
14.499999742955 528
14.5199997425079 577
14.5399997420609 575
14.5599997416139 600
14.5799997411668 568
14.5999997407198 569
14.6199997402728 538
14.6399997398257 603
14.6599997393787 540
14.6799997389317 532
14.6999997384846 554
14.7199997380376 587
14.7399997375906 543
14.7599997371435 533
14.7799997366965 609
14.7999997362494 589
14.8199997358024 572
14.8399997353554 519
14.8599997349083 601
14.8799997344613 580
14.8999997340143 563
14.9199997335672 541
14.9399997331202 570
14.9599997326732 556
14.9799997322261 574
14.9999997317791 580
15.0199997313321 530
15.039999730885 581
15.059999730438 600
15.079999729991 554
15.0999997295439 581
15.1199997290969 604
15.1399997286499 562
15.1599997282028 608
15.1799997277558 581
15.1999997273088 563
15.2199997268617 570
15.2399997264147 592
15.2599997259676 587
15.2799997255206 585
15.2999997250736 573
15.3199997246265 562
15.3399997241795 574
15.3599997237325 621
15.3799997232854 572
15.3999997228384 624
15.4199997223914 576
15.4399997219443 591
15.4599997214973 593
15.4799997210503 608
15.4999997206032 581
15.5199997201562 622
15.5399997197092 635
15.5599997192621 572
15.5799997188151 572
15.5999997183681 612
15.619999717921 615
15.639999717474 624
15.659999717027 593
15.6799997165799 548
15.6999997161329 623
15.7199997156858 602
15.7399997152388 603
15.7599997147918 582
15.7799997143447 589
15.7999997138977 617
15.8199997134507 627
15.8399997130036 618
15.8599997125566 579
15.8799997121096 654
15.8999997116625 629
15.9199997112155 614
15.9399997107685 595
15.9599997103214 601
15.9799997098744 591
15.9999997094274 620
16.0199997089803 593
16.0399997085333 635
16.0599997080863 632
16.0799997076392 671
16.0999997071922 613
16.1199997067451 627
16.1399997062981 613
16.1599997058511 657
16.179999705404 623
16.199999704957 653
16.21999970451 621
16.2399997040629 655
16.2599997036159 638
16.2799997031689 637
16.2999997027218 642
16.3199997022748 635
16.3399997018278 657
16.3599997013807 649
16.3799997009337 646
16.3999997004867 645
16.4199997000396 636
16.4399996995926 615
16.4599996991456 659
16.4799996986985 624
16.4999996982515 684
16.5199996978045 653
16.5399996973574 660
16.5599996969104 692
16.5799996964633 636
16.5999996960163 655
16.6199996955693 649
16.6399996951222 661
16.6599996946752 689
16.6799996942282 725
16.6999996937811 680
16.7199996933341 695
16.7399996928871 736
16.75999969244 704
16.779999691993 728
16.799999691546 701
16.8199996910989 743
16.8399996906519 751
16.8599996902049 755
16.8799996897578 789
16.8999996893108 808
16.9199996888638 916
16.9399996884167 930
16.9599996879697 1059
16.9799996875226 1101
16.9999996870756 1105
17.0199996866286 1182
17.0399996861815 1146
17.0599996857345 995
17.0799996852875 928
17.0999996848404 787
17.1199996843934 765
17.1399996839464 729
17.1599996834993 711
17.1799996830523 724
17.1999996826053 773
17.2199996821582 724
17.2399996817112 731
17.2599996812642 701
17.2799996808171 668
17.2999996803701 700
17.3199996799231 762
17.339999679476 669
17.359999679029 687
17.379999678582 741
17.3999996781349 729
17.4199996776879 719
17.4399996772408 745
17.4599996767938 704
17.4799996763468 728
17.4999996758997 705
17.5199996754527 757
17.5399996750057 718
17.5599996745586 751
17.5799996741116 759
17.5999996736646 732
17.6199996732175 742
17.6399996727705 757
17.6599996723235 785
17.6799996718764 718
17.6999996714294 761
17.7199996709824 820
17.7399996705353 694
17.7599996700883 804
17.7799996696413 804
17.7999996691942 817
17.8199996687472 795
17.8399996683002 793
17.8599996678531 801
17.8799996674061 777
17.899999666959 834
17.919999666512 803
17.939999666065 782
17.9599996656179 828
17.9799996651709 823
17.9999996647239 817
18.0199996642768 861
18.0399996638298 787
18.0599996633828 811
18.0799996629357 842
18.0999996624887 812
18.1199996620417 785
18.1399996615946 774
18.1599996611476 807
18.1799996607006 819
18.1999996602535 786
18.2199996598065 838
18.2399996593595 845
18.2599996589124 810
18.2799996584654 774
18.2999996580184 841
18.3199996575713 778
18.3399996571243 869
18.3599996566772 863
18.3799996562302 820
18.3999996557832 876
18.4199996553361 873
18.4399996548891 851
18.4599996544421 905
18.479999653995 906
18.499999653548 885
18.519999653101 939
18.5399996526539 835
18.5599996522069 850
18.5799996517599 873
18.5999996513128 845
18.6199996508658 944
18.6399996504188 866
18.6599996499717 906
18.6799996495247 851
18.6999996490777 882
18.7199996486306 846
18.7399996481836 874
18.7599996477366 830
18.7799996472895 880
18.7999996468425 848
18.8199996463954 873
18.8399996459484 863
18.8599996455014 810
18.8799996450543 852
18.8999996446073 845
18.9199996441603 887
18.9399996437132 863
18.9599996432662 839
18.9799996428192 850
18.9999996423721 866
19.0199996419251 869
19.0399996414781 894
19.059999641031 897
19.079999640584 863
19.099999640137 869
19.1199996396899 907
19.1399996392429 958
19.1599996387959 884
19.1799996383488 873
19.1999996379018 878
19.2199996374547 866
19.2399996370077 901
19.2599996365607 877
19.2799996361136 932
19.2999996356666 883
19.3199996352196 866
19.3399996347725 930
19.3599996343255 956
19.3799996338785 905
19.3999996334314 889
19.4199996329844 919
19.4399996325374 935
19.4599996320903 907
19.4799996316433 905
19.4999996311963 931
19.5199996307492 968
19.5399996303022 882
19.5599996298552 955
19.5799996294081 929
19.5999996289611 931
19.6199996285141 885
19.639999628067 926
19.65999962762 1008
19.6799996271729 997
19.6999996267259 928
19.7199996262789 984
19.7399996258318 1002
19.7599996253848 983
19.7799996249378 1026
19.7999996244907 1035
19.8199996240437 1032
19.8399996235967 1095
19.8599996231496 1136
19.8799996227026 1190
19.8999996222556 1300
19.9199996218085 1330
19.9399996213615 1342
19.9599996209145 1321
19.9799996204674 1265
19.9999996200204 1211
