3 3069
3.01999999955297 2875
3.03999999910593 2703
3.0599999986589 2469
3.07999999821186 2522
3.09999999776483 2378
3.11999999731779 2375
3.13999999687076 2366
3.15999999642372 2229
3.17999999597669 2224
3.19999999552965 2241
3.21999999508262 2159
3.23999999463558 2129
3.25999999418855 2089
3.27999999374151 2112
3.29999999329448 2068
3.31999999284744 1986
3.33999999240041 1992
3.35999999195337 1971
3.37999999150634 1948
3.3999999910593 1991
3.41999999061227 1988
3.43999999016523 1939
3.4599999897182 1807
3.47999998927116 1879
3.49999998882413 1811
3.51999998837709 1831
3.53999998793006 1756
3.55999998748302 1761
3.57999998703599 1780
3.59999998658895 1764
3.61999998614192 1763
3.63999998569489 1720
3.65999998524785 1689
3.67999998480082 1700
3.69999998435378 1608
3.71999998390675 1702
3.73999998345971 1666
3.75999998301268 1608
3.77999998256564 1562
3.79999998211861 1591
3.81999998167157 1595
3.83999998122454 1604
3.8599999807775 1570
3.87999998033047 1503
3.89999997988343 1489
3.9199999794364 1479
3.93999997898936 1399
3.95999997854233 1460
3.97999997809529 1433
3.99999997764826 1436
4.01999997720122 1436
4.03999997675419 1420
4.05999997630715 1404
4.07999997586012 1346
4.09999997541308 1395
4.11999997496605 1396
4.13999997451901 1299
4.15999997407198 1314
4.17999997362494 1335
4.19999997317791 1220
4.21999997273087 1254
4.23999997228384 1228
4.25999997183681 1276
4.27999997138977 1204
4.29999997094274 1262
4.3199999704957 1256
4.33999997004867 1159
4.35999996960163 1191
4.3799999691546 1238
4.39999996870756 1216
4.41999996826053 1180
4.43999996781349 1177
4.45999996736646 1158
4.47999996691942 1200
4.49999996647239 1160
4.51999996602535 1096
4.53999996557832 1140
4.55999996513128 1143
4.57999996468425 1174
4.59999996423721 1179
4.61999996379018 1110
4.63999996334314 1112
4.65999996289611 1117
4.67999996244907 1070
4.69999996200204 1042
4.719999961555 1057
4.73999996110797 1081
4.75999996066093 1028
4.7799999602139 1061
4.79999995976686 1023
4.81999995931983 1049
4.83999995887279 1093
4.85999995842576 1062
4.87999995797873 1088
4.89999995753169 1023
4.91999995708466 991
4.93999995663762 1066
4.95999995619059 1026
4.97999995574355 1050
4.99999995529652 989
5.01999995484948 1049
5.03999995440245 1020
5.05999995395541 986
5.07999995350838 988
5.09999995306134 1015
5.11999995261431 1052
5.13999995216727 985
5.15999995172024 974
5.1799999512732 1056
5.19999995082617 1047
5.21999995037913 1071
5.2399999499321 1124
5.25999994948506 1012
5.27999994903803 1137
5.29999994859099 1149
5.31999994814396 1093
5.33999994769692 1200
5.35999994724989 1158
5.37999994680285 1231
5.39999994635582 1319
5.41999994590878 1396
5.43999994546175 1410
5.45999994501471 1462
5.47999994456768 1510
5.49999994412065 1376
5.51999994367361 1409
5.53999994322658 1268
5.55999994277954 1131
5.57999994233251 1083
5.59999994188547 998
5.61999994143844 982
5.6399999409914 955
5.65999994054437 945
5.67999994009733 955
5.6999999396503 955
5.71999993920326 919
5.73999993875623 917
5.75999993830919 903
5.77999993786216 904
5.79999993741512 877
5.81999993696809 882
5.83999993652105 890
5.85999993607402 849
5.87999993562698 842
5.89999993517995 801
5.91999993473291 817
5.93999993428588 825
5.95999993383884 830
5.97999993339181 815
5.99999993294477 809
6.01999993249774 808
6.0399999320507 848
6.05999993160367 826
6.07999993115663 756
6.0999999307096 822
6.11999993026257 788
6.13999992981553 755
6.1599999293685 767
6.17999992892146 765
6.19999992847443 747
6.21999992802739 788
6.23999992758036 827
6.25999992713332 754
6.27999992668629 774
6.29999992623925 748
6.31999992579222 743
6.33999992534518 745
6.35999992489815 704
6.37999992445111 774
6.39999992400408 781
6.41999992355704 700
6.43999992311001 754
6.45999992266297 756
6.47999992221594 768
6.4999999217689 712
6.51999992132187 751
6.53999992087483 701
6.5599999204278 749
6.57999991998076 729
6.59999991953373 710
6.61999991908669 694
6.63999991863966 662
6.65999991819262 656
6.67999991774559 754
6.69999991729855 751
6.71999991685152 743
6.73999991640449 719
6.75999991595745 698
6.77999991551042 704
6.79999991506338 679
6.81999991461635 673
6.83999991416931 712
6.85999991372228 703
6.87999991327524 713
6.89999991282821 728
6.91999991238117 709
6.93999991193414 711
6.9599999114871 654
6.97999991104007 715
6.99999991059303 703
7.019999910146 725
7.03999990969896 676
7.05999990925193 693
7.07999990880489 655
7.09999990835786 706
7.11999990791082 702
7.13999990746379 700
7.15999990701675 665
7.17999990656972 685
7.19999990612268 677
7.21999990567565 687
7.23999990522861 730
7.25999990478158 674
7.27999990433454 649
7.29999990388751 650
7.31999990344047 695
7.33999990299344 675
7.35999990254641 659
7.37999990209937 690
7.39999990165234 705
7.4199999012053 692
7.43999990075827 726
7.45999990031123 663
7.4799998998642 699
7.49999989941716 689
7.51999989897013 668
7.53999989852309 670
7.55999989807606 696
7.57999989762902 643
7.59999989718199 665
7.61999989673495 677
7.63999989628792 678
7.65999989584088 661
7.67999989539385 638
7.69999989494681 634
7.71999989449978 674
7.73999989405274 665
7.75999989360571 684
7.77999989315867 647
7.79999989271164 671
7.8199998922646 702
7.83999989181757 660
7.85999989137053 578
7.8799998909235 632
7.89999989047646 622
7.91999989002943 656
7.9399998895824 659
7.95999988913536 638
7.97999988868833 635
7.99999988824129 668
8.01999988779426 657
8.03999988734722 666
8.05999988690019 630
8.07999988645315 652
8.09999988600612 588
8.11999988555908 634
8.13999988511205 645
8.15999988466501 603
8.17999988421798 641
8.19999988377094 568
8.21999988332391 603
8.23999988287687 651
8.25999988242984 639
8.2799998819828 620
8.29999988153577 656
8.31999988108873 685
8.3399998806417 612
8.35999988019466 636
8.37999987974763 657
8.39999987930059 670
8.41999987885356 615
8.43999987840652 647
8.45999987795949 681
8.47999987751245 609
8.49999987706542 690
8.51999987661839 631
8.53999987617135 616
8.55999987572432 604
8.57999987527728 624
8.59999987483025 652
8.61999987438321 612
8.63999987393618 631
8.65999987348914 618
8.67999987304211 602
8.69999987259507 648
8.71999987214804 629
8.739999871701 564
8.75999987125397 602
8.77999987080693 560
8.7999998703599 609
8.81999986991286 600
8.83999986946583 633
8.85999986901879 602
8.87999986857176 603
8.89999986812472 634
8.91999986767769 617
8.93999986723065 598
8.95999986678362 596
8.97999986633658 603
8.99999986588955 616
9.01999986544251 625
9.03999986499548 604
9.05999986454844 612
9.07999986410141 622
9.09999986365438 613
9.11999986320734 612
9.13999986276031 619
9.15999986231327 648
9.17999986186624 604
9.1999998614192 640
9.21999986097217 602
9.23999986052513 638
9.2599998600781 663
9.27999985963106 688
9.29999985918403 698
9.31999985873699 727
9.33999985828996 750
9.35999985784292 743
9.37999985739589 780
9.39999985694885 748
9.41999985650182 720
9.43999985605478 758
9.45999985560775 701
9.47999985516071 684
9.49999985471368 654
9.51999985426664 609
9.53999985381961 629
9.55999985337257 589
9.57999985292554 612
9.5999998524785 627
9.61999985203147 627
9.63999985158443 551
9.6599998511374 613
9.67999985069037 618
9.69999985024333 612
9.7199998497963 600
9.73999984934926 556
9.75999984890223 562
9.77999984845519 619
9.79999984800816 617
9.81999984756112 583
9.83999984711409 589
9.85999984666705 585
9.87999984622002 631
9.89999984577298 544
9.91999984532595 593
9.93999984487891 547
9.95999984443188 556
9.97999984398484 574
9.99999984353781 608
10.0199998430908 575
10.0399998426437 666
10.0599998421967 580
10.0799998417497 575
10.0999998413026 616
10.1199998408556 573
10.1399998404086 600
10.1599998399615 590
10.1799998395145 583
10.1999998390675 564
10.2199998386204 591
10.2399998381734 597
10.2599998377264 559
10.2799998372793 604
10.2999998368323 605
10.3199998363853 590
10.3399998359382 600
10.3599998354912 546
10.3799998350441 575
10.3999998345971 573
10.4199998341501 590
10.439999833703 615
10.459999833256 587
10.479999832809 584
10.4999998323619 620
10.5199998319149 613
10.5399998314679 596
10.5599998310208 608
10.5799998305738 617
10.5999998301268 615
10.6199998296797 644
10.6399998292327 619
10.6599998287857 598
10.6799998283386 560
10.6999998278916 596
10.7199998274446 567
10.7399998269975 664
10.7599998265505 619
10.7799998261034 625
10.7999998256564 657
10.8199998252094 629
10.8399998247623 675
10.8599998243153 666
10.8799998238683 644
10.8999998234212 671
10.9199998229742 611
10.9399998225272 614
10.9599998220801 617
10.9799998216331 602
10.9999998211861 618
11.019999820739 599
11.039999820292 622
11.059999819845 589
11.0799998193979 613
11.0999998189509 606
11.1199998185039 567
11.1399998180568 595
11.1599998176098 589
11.1799998171628 572
11.1999998167157 586
11.2199998162687 562
11.2399998158216 564
11.2599998153746 594
11.2799998149276 606
11.2999998144805 568
11.3199998140335 547
11.3399998135865 588
11.3599998131394 592
11.3799998126924 568
11.3999998122454 589
11.4199998117983 590
11.4399998113513 545
11.4599998109043 545
11.4799998104572 586
11.4999998100102 542
11.5199998095632 604
11.5399998091161 588
11.5599998086691 567
11.5799998082221 600
11.599999807775 594
11.619999807328 551
11.639999806881 562
11.6599998064339 586
11.6799998059869 579
11.6999998055398 572
11.7199998050928 580
11.7399998046458 563
11.7599998041987 607
11.7799998037517 563
11.7999998033047 596
11.8199998028576 612
11.8399998024106 585
11.8599998019636 559
11.8799998015165 587
11.8999998010695 572
11.9199998006225 591
11.9399998001754 581
11.9599997997284 609
11.9799997992814 598
11.9999997988343 580
12.0199997983873 596
12.0399997979403 550
12.0599997974932 619
12.0799997970462 566
12.0999997965992 610
12.1199997961521 583
12.1399997957051 603
12.159999795258 587
12.179999794811 617
12.199999794364 637
12.2199997939169 624
12.2399997934699 555
12.2599997930229 599
12.2799997925758 580
12.2999997921288 582
12.3199997916818 621
12.3399997912347 579
12.3599997907877 607
12.3799997903407 597
12.3999997898936 612
12.4199997894466 660
12.4399997889996 619
12.4599997885525 589
12.4799997881055 615
12.4999997876585 610
12.5199997872114 626
12.5399997867644 621
12.5599997863173 599
12.5799997858703 632
12.5999997854233 540
12.6199997849762 629
12.6399997845292 585
12.6599997840822 567
12.6799997836351 610
12.6999997831881 608
12.7199997827411 590
12.739999782294 609
12.759999781847 621
12.7799997814 586
12.7999997809529 615
12.8199997805059 578
12.8399997800589 619
12.8599997796118 586
12.8799997791648 578
12.8999997787178 610
12.9199997782707 620
12.9399997778237 659
12.9599997773767 662
12.9799997769296 618
12.9999997764826 596
13.0199997760355 623
13.0399997755885 626
13.0599997751415 645
13.0799997746944 643
13.0999997742474 584
13.1199997738004 622
13.1399997733533 593
13.1599997729063 624
13.1799997724593 643
13.1999997720122 599
13.2199997715652 646
13.2399997711182 645
13.2599997706711 639
13.2799997702241 633
13.2999997697771 592
13.31999976933 644
13.339999768883 657
13.359999768436 651
13.3799997679889 641
13.3999997675419 649
13.4199997670949 637
13.4399997666478 643
13.4599997662008 635
13.4799997657537 639
13.4999997653067 625
13.5199997648597 663
13.5399997644126 640
13.5599997639656 638
13.5799997635186 644
13.5999997630715 631
13.6199997626245 653
13.6399997621775 658
13.6599997617304 619
13.6799997612834 641
13.6999997608364 694
13.7199997603893 571
13.7399997599423 646
13.7599997594953 637
13.7799997590482 654
13.7999997586012 645
13.8199997581542 670
13.8399997577071 632
13.8599997572601 621
13.879999756813 651
13.899999756366 658
13.919999755919 650
13.9399997554719 644
13.9599997550249 664
13.9799997545779 650
13.9999997541308 687
14.0199997536838 645
14.0399997532368 676
14.0599997527897 686
14.0799997523427 616
14.0999997518957 669
14.1199997514486 679
14.1399997510016 672
14.1599997505546 705
14.1799997501075 686
14.1999997496605 666
14.2199997492135 679
14.2399997487664 670
14.2599997483194 703
14.2799997478724 677
14.2999997474253 717
14.3199997469783 680
14.3399997465312 688
14.3599997460842 726
14.3799997456372 693
14.3999997451901 663
14.4199997447431 692
14.4399997442961 732
14.459999743849 710
14.479999743402 681
14.499999742955 704
14.5199997425079 715
14.5399997420609 654
14.5599997416139 701
14.5799997411668 717
14.5999997407198 663
14.6199997402728 711
14.6399997398257 702
14.6599997393787 667
14.6799997389317 755
14.6999997384846 727
14.7199997380376 673
14.7399997375906 773
14.7599997371435 734
14.7799997366965 713
14.7999997362494 683
14.8199997358024 745
14.8399997353554 717
14.8599997349083 658
14.8799997344613 662
14.8999997340143 721
14.9199997335672 764
14.9399997331202 701
14.9599997326732 738
14.9799997322261 730
14.9999997317791 760
15.0199997313321 714
15.039999730885 704
15.059999730438 741
15.079999729991 740
15.0999997295439 701
15.1199997290969 672
15.1399997286499 749
15.1599997282028 750
15.1799997277558 750
15.1999997273088 732
15.2199997268617 749
15.2399997264147 760
15.2599997259676 728
15.2799997255206 766
15.2999997250736 751
15.3199997246265 771
15.3399997241795 754
15.3599997237325 746
15.3799997232854 764
15.3999997228384 748
15.4199997223914 758
15.4399997219443 806
15.4599997214973 780
15.4799997210503 823
15.4999997206032 775
15.5199997201562 762
15.5399997197092 747
15.5599997192621 754
15.5799997188151 754
15.5999997183681 746
15.619999717921 841
15.639999717474 772
15.659999717027 806
15.6799997165799 778
15.6999997161329 815
15.7199997156858 820
15.7399997152388 741
15.7599997147918 765
15.7799997143447 757
15.7999997138977 814
15.8199997134507 781
15.8399997130036 774
15.8599997125566 805
15.8799997121096 780
15.8999997116625 789
15.9199997112155 840
15.9399997107685 814
15.9599997103214 824
15.9799997098744 851
15.9999997094274 859
16.0199997089803 840
16.0399997085333 828
16.0599997080863 810
16.0799997076392 841
16.0999997071922 765
16.1199997067451 853
16.1399997062981 872
16.1599997058511 843
16.179999705404 842
16.199999704957 848
16.21999970451 854
16.2399997040629 816
16.2599997036159 852
16.2799997031689 839
16.2999997027218 879
16.3199997022748 881
16.3399997018278 858
16.3599997013807 824
16.3799997009337 855
16.3999997004867 833
16.4199997000396 845
16.4399996995926 877
16.4599996991456 840
16.4799996986985 867
16.4999996982515 878
16.5199996978045 872
16.5399996973574 904
16.5599996969104 856
16.5799996964633 868
16.5999996960163 836
16.6199996955693 976
16.6399996951222 902
16.6599996946752 937
16.6799996942282 940
16.6999996937811 949
16.7199996933341 954
16.7399996928871 924
16.75999969244 970
16.779999691993 934
16.799999691546 1007
16.8199996910989 950
16.8399996906519 1026
16.8599996902049 1031
16.8799996897578 1029
16.8999996893108 1144
16.9199996888638 1085
16.9399996884167 1210
16.9599996879697 1278
16.9799996875226 1405
16.9999996870756 1477
17.0199996866286 1522
17.0399996861815 1654
17.0599996857345 1545
17.0799996852875 1456
17.0999996848404 1388
17.1199996843934 1252
17.1399996839464 1158
17.1599996834993 1143
17.1799996830523 1060
17.1999996826053 1020
17.2199996821582 1019
17.2399996817112 1011
17.2599996812642 1018
17.2799996808171 1017
17.2999996803701 992
17.3199996799231 965
17.339999679476 1029
17.359999679029 1018
17.379999678582 950
17.3999996781349 1061
17.4199996776879 1003
17.4399996772408 1010
17.4599996767938 1027
17.4799996763468 1019
17.4999996758997 1010
17.5199996754527 1050
17.5399996750057 1011
17.5599996745586 1099
17.5799996741116 1035
17.5999996736646 1068
17.6199996732175 1095
17.6399996727705 1022
17.6599996723235 1024
17.6799996718764 1063
17.6999996714294 1129
17.7199996709824 1032
17.7399996705353 1104
17.7599996700883 1091
17.7799996696413 1078
17.7999996691942 1086
17.8199996687472 1109
17.8399996683002 1058
17.8599996678531 1093
17.8799996674061 1145
17.899999666959 1123
17.919999666512 1124
17.939999666065 1089
17.9599996656179 1051
17.9799996651709 1095
17.9999996647239 1096
18.0199996642768 1078
18.0399996638298 1066
18.0599996633828 1117
18.0799996629357 1127
18.0999996624887 1122
18.1199996620417 1120
18.1399996615946 1102
18.1599996611476 1079
18.1799996607006 1128
18.1999996602535 1090
18.2199996598065 1125
18.2399996593595 1098
18.2599996589124 1078
18.2799996584654 1155
18.2999996580184 1125
18.3199996575713 1153
18.3399996571243 1157
18.3599996566772 1184
18.3799996562302 1157
18.3999996557832 1186
18.4199996553361 1237
18.4399996548891 1201
18.4599996544421 1183
18.479999653995 1232
18.499999653548 1231
18.519999653101 1206
18.5399996526539 1197
18.5599996522069 1157
18.5799996517599 1232
18.5999996513128 1208
18.6199996508658 1250
18.6399996504188 1228
18.6599996499717 1262
18.6799996495247 1265
18.6999996490777 1249
18.7199996486306 1226
18.7399996481836 1308
18.7599996477366 1280
18.7799996472895 1250
18.7999996468425 1252
18.8199996463954 1245
18.8399996459484 1212
18.8599996455014 1305
18.8799996450543 1260
18.8999996446073 1200
18.9199996441603 1175
18.9399996437132 1281
18.9599996432662 1251
18.9799996428192 1305
18.9999996423721 1320
19.0199996419251 1281
19.0399996414781 1297
19.059999641031 1334
19.079999640584 1300
19.099999640137 1215
19.1199996396899 1293
19.1399996392429 1287
19.1599996387959 1307
19.1799996383488 1320
19.1999996379018 1309
19.2199996374547 1294
19.2399996370077 1308
19.2599996365607 1341
19.2799996361136 1367
19.2999996356666 1310
19.3199996352196 1342
19.3399996347725 1353
19.3599996343255 1373
19.3799996338785 1323
19.3999996334314 1332
19.4199996329844 1376
19.4399996325374 1360
19.4599996320903 1380
19.4799996316433 1326
19.4999996311963 1344
19.5199996307492 1398
19.5399996303022 1408
19.5599996298552 1405
19.5799996294081 1360
19.5999996289611 1377
19.6199996285141 1416
19.639999628067 1380
19.65999962762 1405
19.6799996271729 1351
19.6999996267259 1423
19.7199996262789 1340
19.7399996258318 1433
19.7599996253848 1495
19.7799996249378 1414
19.7999996244907 1419
19.8199996240437 1438
19.8399996235967 1391
19.8599996231496 1452
19.8799996227026 1482
19.8999996222556 1410
19.9199996218085 1488
19.9399996213615 1505
19.9599996209145 1458
19.9799996204674 1421
19.9999996200204 1478
