3 3108
3.01999999955297 3057
3.03999999910593 2812
3.0599999986589 2822
3.07999999821186 2697
3.09999999776483 2575
3.11999999731779 2526
3.13999999687076 2517
3.15999999642372 2496
3.17999999597669 2359
3.19999999552965 2377
3.21999999508262 2370
3.23999999463558 2292
3.25999999418855 2256
3.27999999374151 2244
3.29999999329448 2172
3.31999999284744 2220
3.33999999240041 2111
3.35999999195337 2202
3.37999999150634 2061
3.3999999910593 2058
3.41999999061227 2017
3.43999999016523 1993
3.4599999897182 2010
3.47999998927116 2017
3.49999998882413 1968
3.51999998837709 1961
3.53999998793006 1989
3.55999998748302 1947
3.57999998703599 1967
3.59999998658895 1900
3.61999998614192 1841
3.63999998569489 1961
3.65999998524785 1797
3.67999998480082 1825
3.69999998435378 1770
3.71999998390675 1816
3.73999998345971 1751
3.75999998301268 1783
3.77999998256564 1781
3.79999998211861 1747
3.81999998167157 1763
3.83999998122454 1673
3.8599999807775 1753
3.87999998033047 1630
3.89999997988343 1643
3.9199999794364 1618
3.93999997898936 1603
3.95999997854233 1586
3.97999997809529 1509
3.99999997764826 1629
4.01999997720122 1510
4.03999997675419 1510
4.05999997630715 1584
4.07999997586012 1556
4.09999997541308 1555
4.11999997496605 1491
4.13999997451901 1453
4.15999997407198 1493
4.17999997362494 1480
4.19999997317791 1470
4.21999997273087 1447
4.23999997228384 1438
4.25999997183681 1526
4.27999997138977 1446
4.29999997094274 1420
4.3199999704957 1388
4.33999997004867 1357
4.35999996960163 1401
4.3799999691546 1369
4.39999996870756 1415
4.41999996826053 1403
4.43999996781349 1397
4.45999996736646 1347
4.47999996691942 1380
4.49999996647239 1341
4.51999996602535 1331
4.53999996557832 1325
4.55999996513128 1284
4.57999996468425 1350
4.59999996423721 1334
4.61999996379018 1262
4.63999996334314 1290
4.65999996289611 1275
4.67999996244907 1336
4.69999996200204 1268
4.719999961555 1287
4.73999996110797 1347
4.75999996066093 1352
4.7799999602139 1306
4.79999995976686 1277
4.81999995931983 1360
4.83999995887279 1427
4.85999995842576 1355
4.87999995797873 1386
4.89999995753169 1315
4.91999995708466 1353
4.93999995663762 1403
4.95999995619059 1357
4.97999995574355 1427
4.99999995529652 1448
5.01999995484948 1325
5.03999995440245 1428
5.05999995395541 1429
5.07999995350838 1512
5.09999995306134 1515
5.11999995261431 1582
5.13999995216727 1527
5.15999995172024 1598
5.1799999512732 1536
5.19999995082617 1656
5.21999995037913 1760
5.2399999499321 1849
5.25999994948506 1890
5.27999994903803 1920
5.29999994859099 2076
5.31999994814396 2130
5.33999994769692 2182
5.35999994724989 2511
5.37999994680285 2711
5.39999994635582 2963
5.41999994590878 3265
5.43999994546175 3358
5.45999994501471 2892
5.47999994456768 2337
5.49999994412065 1997
5.51999994367361 1817
5.53999994322658 1734
5.55999994277954 1631
5.57999994233251 1603
5.59999994188547 1518
5.61999994143844 1430
5.6399999409914 1367
5.65999994054437 1426
5.67999994009733 1379
5.6999999396503 1319
5.71999993920326 1295
5.73999993875623 1258
5.75999993830919 1271
5.77999993786216 1146
5.79999993741512 1136
5.81999993696809 1127
5.83999993652105 1068
5.85999993607402 1042
5.87999993562698 1052
5.89999993517995 999
5.91999993473291 1001
5.93999993428588 960
5.95999993383884 908
5.97999993339181 876
5.99999993294477 917
6.01999993249774 946
6.0399999320507 871
6.05999993160367 892
6.07999993115663 895
6.0999999307096 843
6.11999993026257 843
6.13999992981553 829
6.1599999293685 858
6.17999992892146 821
6.19999992847443 826
6.21999992802739 838
6.23999992758036 803
6.25999992713332 809
6.27999992668629 852
6.29999992623925 827
6.31999992579222 783
6.33999992534518 821
6.35999992489815 836
6.37999992445111 796
6.39999992400408 788
6.41999992355704 790
6.43999992311001 798
6.45999992266297 749
6.47999992221594 788
6.4999999217689 799
6.51999992132187 755
6.53999992087483 811
6.5599999204278 784
6.57999991998076 786
6.59999991953373 737
6.61999991908669 796
6.63999991863966 776
6.65999991819262 771
6.67999991774559 718
6.69999991729855 773
6.71999991685152 717
6.73999991640449 726
6.75999991595745 762
6.77999991551042 711
6.79999991506338 704
6.81999991461635 749
6.83999991416931 660
6.85999991372228 722
6.87999991327524 711
6.89999991282821 670
6.91999991238117 746
6.93999991193414 711
6.9599999114871 747
6.97999991104007 691
6.99999991059303 704
7.019999910146 682
7.03999990969896 629
7.05999990925193 707
7.07999990880489 731
7.09999990835786 679
7.11999990791082 677
7.13999990746379 670
7.15999990701675 658
7.17999990656972 707
7.19999990612268 697
7.21999990567565 678
7.23999990522861 723
7.25999990478158 626
7.27999990433454 651
7.29999990388751 625
7.31999990344047 678
7.33999990299344 655
7.35999990254641 624
7.37999990209937 666
7.39999990165234 654
7.4199999012053 657
7.43999990075827 645
7.45999990031123 665
7.4799998998642 617
7.49999989941716 663
7.51999989897013 646
7.53999989852309 671
7.55999989807606 663
7.57999989762902 673
7.59999989718199 654
7.61999989673495 633
7.63999989628792 627
7.65999989584088 626
7.67999989539385 679
7.69999989494681 667
7.71999989449978 623
7.73999989405274 637
7.75999989360571 694
7.77999989315867 683
7.79999989271164 648
7.8199998922646 640
7.83999989181757 672
7.85999989137053 661
7.8799998909235 617
7.89999989047646 648
7.91999989002943 623
7.9399998895824 644
7.95999988913536 676
7.97999988868833 633
7.99999988824129 648
8.01999988779426 655
8.03999988734722 659
8.05999988690019 670
8.07999988645315 686
8.09999988600612 652
8.11999988555908 622
8.13999988511205 638
8.15999988466501 665
8.17999988421798 667
8.19999988377094 665
8.21999988332391 683
8.23999988287687 701
8.25999988242984 607
8.2799998819828 678
8.29999988153577 607
8.31999988108873 638
8.3399998806417 664
8.35999988019466 656
8.37999987974763 669
8.39999987930059 623
8.41999987885356 645
8.43999987840652 659
8.45999987795949 659
8.47999987751245 676
8.49999987706542 730
8.51999987661839 708
8.53999987617135 734
8.55999987572432 728
8.57999987527728 819
8.59999987483025 760
8.61999987438321 789
8.63999987393618 862
8.65999987348914 849
8.67999987304211 890
8.69999987259507 893
8.71999987214804 982
8.739999871701 1022
8.75999987125397 1082
8.77999987080693 1129
8.7999998703599 1232
8.81999986991286 1289
8.83999986946583 1454
8.85999986901879 1702
8.87999986857176 1867
8.89999986812472 2297
8.91999986767769 2599
8.93999986723065 2981
8.95999986678362 3189
8.97999986633658 3051
8.99999986588955 2678
9.01999986544251 2178
9.03999986499548 1758
9.05999986454844 1315
9.07999986410141 958
9.09999986365438 881
9.11999986320734 848
9.13999986276031 788
9.15999986231327 871
9.17999986186624 826
9.1999998614192 787
9.21999986097217 880
9.23999986052513 915
9.2599998600781 930
9.27999985963106 955
9.29999985918403 1088
9.31999985873699 1125
9.33999985828996 1238
9.35999985784292 1322
9.37999985739589 1118
9.39999985694885 1030
9.41999985650182 842
9.43999985605478 741
9.45999985560775 721
9.47999985516071 683
9.49999985471368 729
9.51999985426664 679
9.53999985381961 695
9.55999985337257 658
9.57999985292554 733
9.5999998524785 703
9.61999985203147 692
9.63999985158443 688
9.6599998511374 707
9.67999985069037 721
9.69999985024333 703
9.7199998497963 769
9.73999984934926 745
9.75999984890223 740
9.77999984845519 794
9.79999984800816 808
9.81999984756112 891
9.83999984711409 883
9.85999984666705 944
9.87999984622002 1090
9.89999984577298 1187
9.91999984532595 1344
9.93999984487891 1470
9.95999984443188 1572
9.97999984398484 1430
9.99999984353781 1043
10.0199998430908 792
10.0399998426437 669
10.0599998421967 624
10.0799998417497 618
10.0999998413026 590
10.1199998408556 593
10.1399998404086 577
10.1599998399615 576
10.1799998395145 591
10.1999998390675 606
10.2199998386204 584
10.2399998381734 550
10.2599998377264 609
10.2799998372793 575
10.2999998368323 567
10.3199998363853 579
10.3399998359382 577
10.3599998354912 600
10.3799998350441 565
10.3999998345971 582
10.4199998341501 593
10.439999833703 579
10.459999833256 561
10.479999832809 565
10.4999998323619 582
10.5199998319149 556
10.5399998314679 601
10.5599998310208 626
10.5799998305738 609
10.5999998301268 604
10.6199998296797 599
10.6399998292327 653
10.6599998287857 636
10.6799998283386 644
10.6999998278916 689
10.7199998274446 730
10.7399998269975 757
10.7599998265505 831
10.7799998261034 823
10.7999998256564 847
10.8199998252094 857
10.8399998247623 785
10.8599998243153 754
10.8799998238683 675
10.8999998234212 682
10.9199998229742 695
10.9399998225272 655
10.9599998220801 655
10.9799998216331 636
10.9999998211861 640
11.019999820739 594
11.039999820292 578
11.059999819845 548
11.0799998193979 547
11.0999998189509 576
11.1199998185039 586
11.1399998180568 536
11.1599998176098 494
11.1799998171628 530
11.1999998167157 525
11.2199998162687 548
11.2399998158216 517
11.2599998153746 509
11.2799998149276 543
11.2999998144805 546
11.3199998140335 503
11.3399998135865 541
11.3599998131394 507
11.3799998126924 537
11.3999998122454 532
11.4199998117983 507
11.4399998113513 513
11.4599998109043 552
11.4799998104572 529
11.4999998100102 540
11.5199998095632 505
11.5399998091161 542
11.5599998086691 518
11.5799998082221 565
11.599999807775 489
11.619999807328 519
11.639999806881 473
11.6599998064339 537
11.6799998059869 537
11.6999998055398 522
11.7199998050928 507
11.7399998046458 497
11.7599998041987 523
11.7799998037517 521
11.7999998033047 492
11.8199998028576 533
11.8399998024106 521
11.8599998019636 531
11.8799998015165 495
11.8999998010695 506
11.9199998006225 550
11.9399998001754 530
11.9599997997284 481
11.9799997992814 539
11.9999997988343 514
12.0199997983873 545
12.0399997979403 564
12.0599997974932 544
12.0799997970462 518
12.0999997965992 527
12.1199997961521 581
12.1399997957051 520
12.159999795258 541
12.179999794811 547
12.199999794364 595
12.2199997939169 567
12.2399997934699 624
12.2599997930229 613
12.2799997925758 587
12.2999997921288 609
12.3199997916818 574
12.3399997912347 567
12.3599997907877 580
12.3799997903407 523
12.3999997898936 609
12.4199997894466 572
12.4399997889996 579
12.4599997885525 562
12.4799997881055 561
12.4999997876585 541
12.5199997872114 550
12.5399997867644 603
12.5599997863173 598
12.5799997858703 622
12.5999997854233 616
12.6199997849762 616
12.6399997845292 661
12.6599997840822 714
12.6799997836351 669
12.6999997831881 630
12.7199997827411 671
12.739999782294 603
12.759999781847 608
12.7799997814 583
12.7999997809529 557
12.8199997805059 544
12.8399997800589 549
12.8599997796118 559
12.8799997791648 520
12.8999997787178 560
12.9199997782707 532
12.9399997778237 556
12.9599997773767 540
12.9799997769296 542
12.9999997764826 525
13.0199997760355 537
13.0399997755885 517
13.0599997751415 510
13.0799997746944 477
13.0999997742474 516
13.1199997738004 537
13.1399997733533 560
13.1599997729063 554
13.1799997724593 607
13.1999997720122 570
13.2199997715652 603
13.2399997711182 597
13.2599997706711 609
13.2799997702241 645
13.2999997697771 647
13.31999976933 670
13.339999768883 699
13.359999768436 802
13.3799997679889 844
13.3999997675419 945
13.4199997670949 879
13.4399997666478 832
13.4599997662008 771
13.4799997657537 696
13.4999997653067 663
13.5199997648597 575
13.5399997644126 560
13.5599997639656 571
13.5799997635186 548
13.5999997630715 568
13.6199997626245 527
13.6399997621775 507
13.6599997617304 533
13.6799997612834 532
13.6999997608364 505
13.7199997603893 495
13.7399997599423 581
13.7599997594953 571
13.7799997590482 498
13.7999997586012 517
13.8199997581542 492
13.8399997577071 514
13.8599997572601 544
13.879999756813 570
13.899999756366 499
13.919999755919 517
13.9399997554719 535
13.9599997550249 517
13.9799997545779 500
13.9999997541308 495
14.0199997536838 528
14.0399997532368 535
14.0599997527897 530
14.0799997523427 519
14.0999997518957 546
14.1199997514486 553
14.1399997510016 504
14.1599997505546 503
14.1799997501075 505
14.1999997496605 534
14.2199997492135 529
14.2399997487664 513
14.2599997483194 554
14.2799997478724 576
14.2999997474253 557
14.3199997469783 531
14.3399997465312 533
14.3599997460842 507
14.3799997456372 529
14.3999997451901 520
14.4199997447431 514
14.4399997442961 510
14.459999743849 536
14.479999743402 498
14.499999742955 529
14.5199997425079 522
14.5399997420609 475
14.5599997416139 497
14.5799997411668 516
14.5999997407198 499
14.6199997402728 512
14.6399997398257 489
14.6599997393787 517
14.6799997389317 488
14.6999997384846 520
14.7199997380376 513
14.7399997375906 518
14.7599997371435 508
14.7799997366965 544
14.7999997362494 545
14.8199997358024 500
14.8399997353554 536
14.8599997349083 516
14.8799997344613 535
14.8999997340143 530
14.9199997335672 532
14.9399997331202 539
14.9599997326732 538
14.9799997322261 547
14.9999997317791 544
15.0199997313321 555
15.039999730885 514
15.059999730438 511
15.079999729991 523
15.0999997295439 515
15.1199997290969 540
15.1399997286499 537
15.1599997282028 523
15.1799997277558 555
15.1999997273088 530
15.2199997268617 558
15.2399997264147 564
15.2599997259676 515
15.2799997255206 542
15.2999997250736 546
15.3199997246265 496
15.3399997241795 514
15.3599997237325 564
15.3799997232854 581
15.3999997228384 542
15.4199997223914 575
15.4399997219443 509
15.4599997214973 537
15.4799997210503 516
15.4999997206032 533
15.5199997201562 571
15.5399997197092 524
15.5599997192621 560
15.5799997188151 528
15.5999997183681 543
15.619999717921 549
15.639999717474 545
15.659999717027 565
15.6799997165799 523
15.6999997161329 516
15.7199997156858 519
15.7399997152388 546
15.7599997147918 549
15.7799997143447 584
15.7999997138977 533
15.8199997134507 525
15.8399997130036 560
15.8599997125566 583
15.8799997121096 550
15.8999997116625 554
15.9199997112155 519
15.9399997107685 575
15.9599997103214 563
15.9799997098744 528
15.9999997094274 546
16.0199997089803 578
16.0399997085333 546
16.0599997080863 544
16.0799997076392 571
16.0999997071922 569
16.1199997067451 602
16.1399997062981 597
16.1599997058511 578
16.179999705404 532
16.199999704957 557
16.21999970451 608
16.2399997040629 579
16.2599997036159 620
16.2799997031689 536
16.2999997027218 590
16.3199997022748 582
16.3399997018278 593
16.3599997013807 614
16.3799997009337 575
16.3999997004867 589
16.4199997000396 582
16.4399996995926 559
16.4599996991456 631
16.4799996986985 604
16.4999996982515 594
16.5199996978045 569
16.5399996973574 579
16.5599996969104 529
16.5799996964633 668
16.5999996960163 595
16.6199996955693 578
16.6399996951222 575
16.6599996946752 617
16.6799996942282 583
16.6999996937811 633
16.7199996933341 658
16.7399996928871 583
16.75999969244 668
16.779999691993 679
16.799999691546 635
16.8199996910989 618
16.8399996906519 633
16.8599996902049 596
16.8799996897578 661
16.8999996893108 658
16.9199996888638 742
16.9399996884167 743
16.9599996879697 791
16.9799996875226 829
16.9999996870756 866
17.0199996866286 863
17.0399996861815 788
17.0599996857345 715
17.0799996852875 636
17.0999996848404 614
17.1199996843934 631
17.1399996839464 620
17.1599996834993 646
17.1799996830523 648
17.1999996826053 626
17.2199996821582 650
17.2399996817112 649
17.2599996812642 609
17.2799996808171 617
17.2999996803701 637
17.3199996799231 668
17.339999679476 657
17.359999679029 652
17.379999678582 682
17.3999996781349 626
17.4199996776879 602
17.4399996772408 632
17.4599996767938 613
17.4799996763468 619
17.4999996758997 652
17.5199996754527 632
17.5399996750057 646
17.5599996745586 675
17.5799996741116 624
17.5999996736646 640
17.6199996732175 681
17.6399996727705 683
17.6599996723235 631
17.6799996718764 606
17.6999996714294 654
17.7199996709824 669
17.7399996705353 689
17.7599996700883 708
17.7799996696413 691
17.7999996691942 719
17.8199996687472 665
17.8399996683002 678
17.8599996678531 699
17.8799996674061 691
17.899999666959 707
17.919999666512 755
17.939999666065 723
17.9599996656179 718
17.9799996651709 662
17.9999996647239 700
18.0199996642768 713
18.0399996638298 728
18.0599996633828 698
18.0799996629357 690
18.0999996624887 695
18.1199996620417 659
18.1399996615946 683
18.1599996611476 684
18.1799996607006 657
18.1999996602535 702
18.2199996598065 757
18.2399996593595 686
18.2599996589124 669
18.2799996584654 697
18.2999996580184 694
18.3199996575713 723
18.3399996571243 751
18.3599996566772 756
18.3799996562302 694
18.3999996557832 751
18.4199996553361 707
18.4399996548891 770
18.4599996544421 710
18.479999653995 750
18.499999653548 737
18.519999653101 711
18.5399996526539 680
18.5599996522069 762
18.5799996517599 748
18.5999996513128 716
18.6199996508658 674
18.6399996504188 722
18.6599996499717 751
18.6799996495247 729
18.6999996490777 745
18.7199996486306 760
18.7399996481836 763
18.7599996477366 774
18.7799996472895 727
18.7999996468425 761
18.8199996463954 772
18.8399996459484 751
18.8599996455014 746
18.8799996450543 774
18.8999996446073 764
18.9199996441603 739
18.9399996437132 720
18.9599996432662 695
18.9799996428192 708
18.9999996423721 698
19.0199996419251 713
19.0399996414781 728
19.059999641031 770
19.079999640584 754
19.099999640137 777
19.1199996396899 757
19.1399996392429 750
19.1599996387959 771
19.1799996383488 773
19.1999996379018 770
19.2199996374547 770
19.2399996370077 796
19.2599996365607 776
19.2799996361136 729
19.2999996356666 764
19.3199996352196 776
19.3399996347725 790
19.3599996343255 787
19.3799996338785 839
19.3999996334314 848
19.4199996329844 869
19.4399996325374 863
19.4599996320903 867
19.4799996316433 855
19.4999996311963 937
19.5199996307492 867
19.5399996303022 869
19.5599996298552 875
19.5799996294081 849
19.5999996289611 859
19.6199996285141 862
19.639999628067 870
19.65999962762 849
19.6799996271729 845
19.6999996267259 796
19.7199996262789 827
19.7399996258318 790
19.7599996253848 838
19.7799996249378 843
19.7999996244907 825
19.8199996240437 939
19.8399996235967 880
19.8599996231496 964
19.8799996227026 967
19.8999996222556 1017
19.9199996218085 1112
19.9399996213615 998
19.9599996209145 945
19.9799996204674 940
19.9999996200204 894
