3 2760
3.01999999955297 2573
3.03999999910593 2494
3.0599999986589 2305
3.07999999821186 2255
3.09999999776483 2118
3.11999999731779 2077
3.13999999687076 2052
3.15999999642372 2013
3.17999999597669 1926
3.19999999552965 1934
3.21999999508262 1891
3.23999999463558 1828
3.25999999418855 1833
3.27999999374151 1819
3.29999999329448 1807
3.31999999284744 1761
3.33999999240041 1731
3.35999999195337 1774
3.37999999150634 1712
3.3999999910593 1689
3.41999999061227 1627
3.43999999016523 1569
3.4599999897182 1620
3.47999998927116 1522
3.49999998882413 1540
3.51999998837709 1583
3.53999998793006 1588
3.55999998748302 1524
3.57999998703599 1543
3.59999998658895 1507
3.61999998614192 1462
3.63999998569489 1474
3.65999998524785 1402
3.67999998480082 1481
3.69999998435378 1391
3.71999998390675 1398
3.73999998345971 1316
3.75999998301268 1306
3.77999998256564 1370
3.79999998211861 1343
3.81999998167157 1307
3.83999998122454 1295
3.8599999807775 1188
3.87999998033047 1250
3.89999997988343 1231
3.9199999794364 1193
3.93999997898936 1243
3.95999997854233 1230
3.97999997809529 1251
3.99999997764826 1154
4.01999997720122 1196
4.03999997675419 1209
4.05999997630715 1123
4.07999997586012 1161
4.09999997541308 1164
4.11999997496605 1077
4.13999997451901 1105
4.15999997407198 1083
4.17999997362494 1039
4.19999997317791 1093
4.21999997273087 1082
4.23999997228384 1045
4.25999997183681 1023
4.27999997138977 1053
4.29999997094274 1053
4.3199999704957 1064
4.33999997004867 1007
4.35999996960163 983
4.3799999691546 999
4.39999996870756 958
4.41999996826053 968
4.43999996781349 990
4.45999996736646 979
4.47999996691942 1021
4.49999996647239 1033
4.51999996602535 923
4.53999996557832 947
4.55999996513128 950
4.57999996468425 932
4.59999996423721 940
4.61999996379018 969
4.63999996334314 972
4.65999996289611 913
4.67999996244907 955
4.69999996200204 960
4.719999961555 911
4.73999996110797 935
4.75999996066093 891
4.7799999602139 885
4.79999995976686 913
4.81999995931983 909
4.83999995887279 894
4.85999995842576 931
4.87999995797873 895
4.89999995753169 897
4.91999995708466 845
4.93999995663762 895
4.95999995619059 911
4.97999995574355 963
4.99999995529652 885
5.01999995484948 906
5.03999995440245 965
5.05999995395541 976
5.07999995350838 974
5.09999995306134 977
5.11999995261431 963
5.13999995216727 991
5.15999995172024 994
5.1799999512732 1047
5.19999995082617 1053
5.21999995037913 1075
5.2399999499321 1036
5.25999994948506 1136
5.27999994903803 1147
5.29999994859099 1172
5.31999994814396 1233
5.33999994769692 1287
5.35999994724989 1356
5.37999994680285 1453
5.39999994635582 1514
5.41999994590878 1656
5.43999994546175 1686
5.45999994501471 1668
5.47999994456768 1790
5.49999994412065 1781
5.51999994367361 1747
5.53999994322658 1681
5.55999994277954 1704
5.57999994233251 1651
5.59999994188547 1614
5.61999994143844 1451
5.6399999409914 1344
5.65999994054437 1343
5.67999994009733 1185
5.6999999396503 1134
5.71999993920326 1026
5.73999993875623 1021
5.75999993830919 953
5.77999993786216 935
5.79999993741512 885
5.81999993696809 854
5.83999993652105 901
5.85999993607402 898
5.87999993562698 791
5.89999993517995 769
5.91999993473291 788
5.93999993428588 840
5.95999993383884 758
5.97999993339181 780
5.99999993294477 792
6.01999993249774 776
6.0399999320507 721
6.05999993160367 710
6.07999993115663 721
6.0999999307096 770
6.11999993026257 723
6.13999992981553 710
6.1599999293685 694
6.17999992892146 677
6.19999992847443 698
6.21999992802739 682
6.23999992758036 692
6.25999992713332 633
6.27999992668629 613
6.29999992623925 694
6.31999992579222 664
6.33999992534518 676
6.35999992489815 643
6.37999992445111 657
6.39999992400408 663
6.41999992355704 649
6.43999992311001 628
6.45999992266297 630
6.47999992221594 689
6.4999999217689 627
6.51999992132187 615
6.53999992087483 634
6.5599999204278 676
6.57999991998076 648
6.59999991953373 640
6.61999991908669 629
6.63999991863966 641
6.65999991819262 607
6.67999991774559 626
6.69999991729855 639
6.71999991685152 638
6.73999991640449 618
6.75999991595745 597
6.77999991551042 604
6.79999991506338 605
6.81999991461635 577
6.83999991416931 566
6.85999991372228 653
6.87999991327524 625
6.89999991282821 637
6.91999991238117 610
6.93999991193414 607
6.9599999114871 600
6.97999991104007 610
6.99999991059303 597
7.019999910146 624
7.03999990969896 602
7.05999990925193 661
7.07999990880489 645
7.09999990835786 581
7.11999990791082 593
7.13999990746379 570
7.15999990701675 621
7.17999990656972 566
7.19999990612268 571
7.21999990567565 600
7.23999990522861 583
7.25999990478158 569
7.27999990433454 593
7.29999990388751 611
7.31999990344047 596
7.33999990299344 575
7.35999990254641 570
7.37999990209937 573
7.39999990165234 559
7.4199999012053 557
7.43999990075827 589
7.45999990031123 557
7.4799998998642 588
7.49999989941716 518
7.51999989897013 566
7.53999989852309 574
7.55999989807606 581
7.57999989762902 574
7.59999989718199 593
7.61999989673495 553
7.63999989628792 588
7.65999989584088 553
7.67999989539385 548
7.69999989494681 552
7.71999989449978 574
7.73999989405274 544
7.75999989360571 547
7.77999989315867 555
7.79999989271164 578
7.8199998922646 557
7.83999989181757 571
7.85999989137053 585
7.8799998909235 548
7.89999989047646 539
7.91999989002943 559
7.9399998895824 581
7.95999988913536 535
7.97999988868833 549
7.99999988824129 533
8.01999988779426 549
8.03999988734722 563
8.05999988690019 604
8.07999988645315 553
8.09999988600612 535
8.11999988555908 571
8.13999988511205 520
8.15999988466501 554
8.17999988421798 586
8.19999988377094 551
8.21999988332391 566
8.23999988287687 540
8.25999988242984 505
8.2799998819828 569
8.29999988153577 506
8.31999988108873 573
8.3399998806417 544
8.35999988019466 546
8.37999987974763 540
8.39999987930059 538
8.41999987885356 537
8.43999987840652 589
8.45999987795949 538
8.47999987751245 538
8.49999987706542 517
8.51999987661839 513
8.53999987617135 563
8.55999987572432 539
8.57999987527728 559
8.59999987483025 552
8.61999987438321 521
8.63999987393618 547
8.65999987348914 525
8.67999987304211 554
8.69999987259507 515
8.71999987214804 535
8.739999871701 538
8.75999987125397 524
8.77999987080693 521
8.7999998703599 529
8.81999986991286 534
8.83999986946583 566
8.85999986901879 550
8.87999986857176 530
8.89999986812472 534
8.91999986767769 529
8.93999986723065 540
8.95999986678362 584
8.97999986633658 577
8.99999986588955 570
9.01999986544251 575
9.03999986499548 563
9.05999986454844 558
9.07999986410141 542
9.09999986365438 583
9.11999986320734 568
9.13999986276031 564
9.15999986231327 572
9.17999986186624 574
9.1999998614192 618
9.21999986097217 621
9.23999986052513 621
9.2599998600781 614
9.27999985963106 700
9.29999985918403 680
9.31999985873699 685
9.33999985828996 736
9.35999985784292 760
9.37999985739589 770
9.39999985694885 722
9.41999985650182 751
9.43999985605478 737
9.45999985560775 695
9.47999985516071 729
9.49999985471368 667
9.51999985426664 637
9.53999985381961 647
9.55999985337257 632
9.57999985292554 609
9.5999998524785 594
9.61999985203147 557
9.63999985158443 556
9.6599998511374 576
9.67999985069037 576
9.69999985024333 538
9.7199998497963 535
9.73999984934926 510
9.75999984890223 487
9.77999984845519 480
9.79999984800816 514
9.81999984756112 509
9.83999984711409 515
9.85999984666705 526
9.87999984622002 538
9.89999984577298 550
9.91999984532595 502
9.93999984487891 526
9.95999984443188 521
9.97999984398484 522
9.99999984353781 556
10.0199998430908 504
10.0399998426437 511
10.0599998421967 533
10.0799998417497 538
10.0999998413026 537
10.1199998408556 512
10.1399998404086 521
10.1599998399615 491
10.1799998395145 470
10.1999998390675 507
10.2199998386204 520
10.2399998381734 486
10.2599998377264 542
10.2799998372793 508
10.2999998368323 495
10.3199998363853 519
10.3399998359382 493
10.3599998354912 504
10.3799998350441 454
10.3999998345971 475
10.4199998341501 497
10.439999833703 497
10.459999833256 496
10.479999832809 523
10.4999998323619 514
10.5199998319149 466
10.5399998314679 518
10.5599998310208 497
10.5799998305738 536
10.5999998301268 526
10.6199998296797 522
10.6399998292327 525
10.6599998287857 544
10.6799998283386 501
10.6999998278916 550
10.7199998274446 552
10.7399998269975 510
10.7599998265505 557
10.7799998261034 588
10.7999998256564 566
10.8199998252094 612
10.8399998247623 623
10.8599998243153 618
10.8799998238683 612
10.8999998234212 625
10.9199998229742 618
10.9399998225272 586
10.9599998220801 538
10.9799998216331 547
10.9999998211861 640
11.019999820739 558
11.039999820292 557
11.059999819845 530
11.0799998193979 542
11.0999998189509 487
11.1199998185039 504
11.1399998180568 546
11.1599998176098 507
11.1799998171628 510
11.1999998167157 531
11.2199998162687 486
11.2399998158216 488
11.2599998153746 465
11.2799998149276 485
11.2999998144805 494
11.3199998140335 464
11.3399998135865 513
11.3599998131394 500
11.3799998126924 456
11.3999998122454 430
11.4199998117983 469
11.4399998113513 439
11.4599998109043 447
11.4799998104572 473
11.4999998100102 463
11.5199998095632 498
11.5399998091161 459
11.5599998086691 478
11.5799998082221 433
11.599999807775 443
11.619999807328 479
11.639999806881 435
11.6599998064339 427
11.6799998059869 432
11.6999998055398 460
11.7199998050928 460
11.7399998046458 514
11.7599998041987 442
11.7799998037517 478
11.7999998033047 467
11.8199998028576 427
11.8399998024106 465
11.8599998019636 484
11.8799998015165 445
11.8999998010695 463
11.9199998006225 459
11.9399998001754 464
11.9599997997284 467
11.9799997992814 473
11.9999997988343 464
12.0199997983873 515
12.0399997979403 462
12.0599997974932 471
12.0799997970462 482
12.0999997965992 483
12.1199997961521 471
12.1399997957051 501
12.159999795258 458
12.179999794811 518
12.199999794364 477
12.2199997939169 480
12.2399997934699 507
12.2599997930229 504
12.2799997925758 510
12.2999997921288 522
12.3199997916818 514
12.3399997912347 477
12.3599997907877 500
12.3799997903407 464
12.3999997898936 500
12.4199997894466 466
12.4399997889996 514
12.4599997885525 479
12.4799997881055 489
12.4999997876585 489
12.5199997872114 457
12.5399997867644 460
12.5599997863173 492
12.5799997858703 455
12.5999997854233 475
12.6199997849762 463
12.6399997845292 492
12.6599997840822 524
12.6799997836351 491
12.6999997831881 465
12.7199997827411 448
12.739999782294 490
12.759999781847 486
12.7799997814 481
12.7999997809529 505
12.8199997805059 523
12.8399997800589 493
12.8599997796118 464
12.8799997791648 474
12.8999997787178 465
12.9199997782707 493
12.9399997778237 482
12.9599997773767 532
12.9799997769296 470
12.9999997764826 481
13.0199997760355 479
13.0399997755885 493
13.0599997751415 496
13.0799997746944 518
13.0999997742474 526
13.1199997738004 468
13.1399997733533 483
13.1599997729063 490
13.1799997724593 504
13.1999997720122 493
13.2199997715652 479
13.2399997711182 502
13.2599997706711 491
13.2799997702241 509
13.2999997697771 505
13.31999976933 483
13.339999768883 453
13.359999768436 488
13.3799997679889 461
13.3999997675419 472
13.4199997670949 479
13.4399997666478 506
13.4599997662008 529
13.4799997657537 504
13.4999997653067 474
13.5199997648597 476
13.5399997644126 471
13.5599997639656 521
13.5799997635186 515
13.5999997630715 495
13.6199997626245 469
13.6399997621775 489
13.6599997617304 488
13.6799997612834 505
13.6999997608364 550
13.7199997603893 492
13.7399997599423 484
13.7599997594953 519
13.7799997590482 495
13.7999997586012 476
13.8199997581542 492
13.8399997577071 516
13.8599997572601 543
13.879999756813 507
13.899999756366 493
13.919999755919 495
13.9399997554719 495
13.9599997550249 539
13.9799997545779 488
13.9999997541308 516
14.0199997536838 488
14.0399997532368 516
14.0599997527897 497
14.0799997523427 485
14.0999997518957 534
14.1199997514486 475
14.1399997510016 520
14.1599997505546 500
14.1799997501075 530
14.1999997496605 522
14.2199997492135 503
14.2399997487664 490
14.2599997483194 505
14.2799997478724 500
14.2999997474253 515
14.3199997469783 539
14.3399997465312 499
14.3599997460842 527
14.3799997456372 512
14.3999997451901 481
14.4199997447431 539
14.4399997442961 542
14.459999743849 534
14.479999743402 496
14.499999742955 524
14.5199997425079 524
14.5399997420609 524
14.5599997416139 521
14.5799997411668 541
14.5999997407198 511
14.6199997402728 558
14.6399997398257 517
14.6599997393787 538
14.6799997389317 535
14.6999997384846 523
14.7199997380376 521
14.7399997375906 522
14.7599997371435 500
14.7799997366965 532
14.7999997362494 500
14.8199997358024 542
14.8399997353554 497
14.8599997349083 566
14.8799997344613 514
14.8999997340143 505
14.9199997335672 504
14.9399997331202 528
14.9599997326732 496
14.9799997322261 513
14.9999997317791 531
15.0199997313321 558
15.039999730885 515
15.059999730438 529
15.079999729991 552
15.0999997295439 510
15.1199997290969 535
15.1399997286499 474
15.1599997282028 526
15.1799997277558 560
15.1999997273088 541
15.2199997268617 553
15.2399997264147 537
15.2599997259676 603
15.2799997255206 578
15.2999997250736 522
15.3199997246265 551
15.3399997241795 543
15.3599997237325 519
15.3799997232854 544
15.3999997228384 522
15.4199997223914 511
15.4399997219443 545
15.4599997214973 566
15.4799997210503 572
15.4999997206032 592
15.5199997201562 547
15.5399997197092 566
15.5599997192621 538
15.5799997188151 506
15.5999997183681 558
15.619999717921 515
15.639999717474 545
15.659999717027 534
15.6799997165799 545
15.6999997161329 582
15.7199997156858 558
15.7399997152388 588
15.7599997147918 551
15.7799997143447 559
15.7999997138977 604
15.8199997134507 548
15.8399997130036 566
15.8599997125566 550
15.8799997121096 576
15.8999997116625 585
15.9199997112155 591
15.9399997107685 580
15.9599997103214 588
15.9799997098744 588
15.9999997094274 601
16.0199997089803 561
16.0399997085333 582
16.0599997080863 607
16.0799997076392 580
16.0999997071922 598
16.1199997067451 596
16.1399997062981 573
16.1599997058511 566
16.179999705404 570
16.199999704957 628
16.21999970451 616
16.2399997040629 587
16.2599997036159 601
16.2799997031689 587
16.2999997027218 562
16.3199997022748 588
16.3399997018278 588
16.3599997013807 591
16.3799997009337 614
16.3999997004867 572
16.4199997000396 568
16.4399996995926 617
16.4599996991456 617
16.4799996986985 597
16.4999996982515 639
16.5199996978045 573
16.5399996973574 610
16.5599996969104 600
16.5799996964633 614
16.5999996960163 654
16.6199996955693 614
16.6399996951222 630
16.6599996946752 682
16.6799996942282 657
16.6999996937811 600
16.7199996933341 620
16.7399996928871 617
16.75999969244 658
16.779999691993 652
16.799999691546 621
16.8199996910989 703
16.8399996906519 691
16.8599996902049 645
16.8799996897578 664
16.8999996893108 696
16.9199996888638 736
16.9399996884167 630
16.9599996879697 706
16.9799996875226 732
16.9999996870756 753
17.0199996866286 782
17.0399996861815 788
17.0599996857345 781
17.0799996852875 755
17.0999996848404 759
17.1199996843934 724
17.1399996839464 701
17.1599996834993 731
17.1799996830523 702
17.1999996826053 680
17.2199996821582 681
17.2399996817112 732
17.2599996812642 697
17.2799996808171 705
17.2999996803701 737
17.3199996799231 692
17.339999679476 733
17.359999679029 668
17.379999678582 691
17.3999996781349 650
17.4199996776879 681
17.4399996772408 674
17.4599996767938 695
17.4799996763468 707
17.4999996758997 696
17.5199996754527 657
17.5399996750057 648
17.5599996745586 723
17.5799996741116 666
17.5999996736646 709
17.6199996732175 691
17.6399996727705 714
17.6599996723235 700
17.6799996718764 746
17.6999996714294 690
17.7199996709824 652
17.7399996705353 684
17.7599996700883 692
17.7799996696413 725
17.7999996691942 696
17.8199996687472 703
17.8399996683002 698
17.8599996678531 663
17.8799996674061 683
17.899999666959 673
17.919999666512 750
17.939999666065 694
17.9599996656179 732
17.9799996651709 724
17.9999996647239 711
18.0199996642768 709
18.0399996638298 752
18.0599996633828 733
18.0799996629357 747
18.0999996624887 677
18.1199996620417 755
18.1399996615946 755
18.1599996611476 744
18.1799996607006 781
18.1999996602535 750
18.2199996598065 756
18.2399996593595 722
18.2599996589124 760
18.2799996584654 775
18.2999996580184 790
18.3199996575713 755
18.3399996571243 726
18.3599996566772 793
18.3799996562302 752
18.3999996557832 769
18.4199996553361 747
18.4399996548891 753
18.4599996544421 761
18.479999653995 798
18.499999653548 804
18.519999653101 758
18.5399996526539 762
18.5599996522069 807
18.5799996517599 761
18.5999996513128 817
18.6199996508658 819
18.6399996504188 798
18.6599996499717 836
18.6799996495247 786
18.6999996490777 809
18.7199996486306 787
18.7399996481836 870
18.7599996477366 831
18.7799996472895 799
18.7999996468425 809
18.8199996463954 859
18.8399996459484 856
18.8599996455014 817
18.8799996450543 860
18.8999996446073 842
18.9199996441603 834
18.9399996437132 778
18.9599996432662 798
18.9799996428192 800
18.9999996423721 864
19.0199996419251 813
19.0399996414781 864
19.059999641031 830
19.079999640584 838
19.099999640137 792
19.1199996396899 866
19.1399996392429 853
19.1599996387959 886
19.1799996383488 900
19.1999996379018 849
19.2199996374547 869
19.2399996370077 844
19.2599996365607 824
19.2799996361136 903
19.2999996356666 855
19.3199996352196 922
19.3399996347725 860
19.3599996343255 932
19.3799996338785 927
19.3999996334314 889
19.4199996329844 906
19.4399996325374 918
19.4599996320903 908
19.4799996316433 1001
19.4999996311963 1008
19.5199996307492 1023
19.5399996303022 944
19.5599996298552 1006
19.5799996294081 952
19.5999996289611 955
19.6199996285141 913
19.639999628067 908
19.65999962762 933
19.6799996271729 979
19.6999996267259 965
19.7199996262789 951
19.7399996258318 916
19.7599996253848 905
19.7799996249378 975
19.7999996244907 950
19.8199996240437 955
19.8399996235967 915
19.8599996231496 880
19.8799996227026 941
19.8999996222556 958
19.9199996218085 937
19.9399996213615 916
19.9599996209145 913
19.9799996204674 909
19.9999996200204 964
