3 3281
3.01999999955297 2907
3.03999999910593 2876
3.0599999986589 2678
3.07999999821186 2497
3.09999999776483 2506
3.11999999731779 2360
3.13999999687076 2341
3.15999999642372 2206
3.17999999597669 2176
3.19999999552965 2175
3.21999999508262 2169
3.23999999463558 2185
3.25999999418855 2141
3.27999999374151 2040
3.29999999329448 2057
3.31999999284744 1960
3.33999999240041 1972
3.35999999195337 1997
3.37999999150634 1953
3.3999999910593 1842
3.41999999061227 1895
3.43999999016523 1917
3.4599999897182 1822
3.47999998927116 1779
3.49999998882413 1838
3.51999998837709 1682
3.53999998793006 1655
3.55999998748302 1698
3.57999998703599 1571
3.59999998658895 1661
3.61999998614192 1553
3.63999998569489 1580
3.65999998524785 1590
3.67999998480082 1538
3.69999998435378 1589
3.71999998390675 1534
3.73999998345971 1598
3.75999998301268 1523
3.77999998256564 1539
3.79999998211861 1444
3.81999998167157 1518
3.83999998122454 1452
3.8599999807775 1477
3.87999998033047 1492
3.89999997988343 1427
3.9199999794364 1453
3.93999997898936 1418
3.95999997854233 1425
3.97999997809529 1437
3.99999997764826 1357
4.01999997720122 1352
4.03999997675419 1295
4.05999997630715 1364
4.07999997586012 1299
4.09999997541308 1213
4.11999997496605 1253
4.13999997451901 1270
4.15999997407198 1222
4.17999997362494 1190
4.19999997317791 1177
4.21999997273087 1110
4.23999997228384 1200
4.25999997183681 1191
4.27999997138977 1181
4.29999997094274 1178
4.3199999704957 1152
4.33999997004867 1130
4.35999996960163 1127
4.3799999691546 1069
4.39999996870756 1115
4.41999996826053 1039
4.43999996781349 1036
4.45999996736646 1048
4.47999996691942 1035
4.49999996647239 1004
4.51999996602535 1010
4.53999996557832 968
4.55999996513128 1015
4.57999996468425 946
4.59999996423721 951
4.61999996379018 1010
4.63999996334314 973
4.65999996289611 959
4.67999996244907 982
4.69999996200204 981
4.719999961555 945
4.73999996110797 978
4.75999996066093 937
4.7799999602139 960
4.79999995976686 930
4.81999995931983 933
4.83999995887279 954
4.85999995842576 928
4.87999995797873 917
4.89999995753169 854
4.91999995708466 916
4.93999995663762 870
4.95999995619059 861
4.97999995574355 887
4.99999995529652 876
5.01999995484948 830
5.03999995440245 900
5.05999995395541 848
5.07999995350838 809
5.09999995306134 848
5.11999995261431 800
5.13999995216727 833
5.15999995172024 814
5.1799999512732 856
5.19999995082617 838
5.21999995037913 813
5.2399999499321 822
5.25999994948506 782
5.27999994903803 759
5.29999994859099 811
5.31999994814396 836
5.33999994769692 874
5.35999994724989 836
5.37999994680285 840
5.39999994635582 796
5.41999994590878 772
5.43999994546175 801
5.45999994501471 770
5.47999994456768 800
5.49999994412065 762
5.51999994367361 793
5.53999994322658 811
5.55999994277954 789
5.57999994233251 743
5.59999994188547 761
5.61999994143844 817
5.6399999409914 725
5.65999994054437 767
5.67999994009733 784
5.6999999396503 765
5.71999993920326 722
5.73999993875623 745
5.75999993830919 726
5.77999993786216 750
5.79999993741512 762
5.81999993696809 718
5.83999993652105 754
5.85999993607402 731
5.87999993562698 748
5.89999993517995 731
5.91999993473291 736
5.93999993428588 793
5.95999993383884 762
5.97999993339181 737
5.99999993294477 729
6.01999993249774 771
6.0399999320507 710
6.05999993160367 766
6.07999993115663 707
6.0999999307096 750
6.11999993026257 709
6.13999992981553 714
6.1599999293685 658
6.17999992892146 754
6.19999992847443 721
6.21999992802739 711
6.23999992758036 713
6.25999992713332 693
6.27999992668629 715
6.29999992623925 672
6.31999992579222 713
6.33999992534518 718
6.35999992489815 731
6.37999992445111 735
6.39999992400408 722
6.41999992355704 721
6.43999992311001 759
6.45999992266297 732
6.47999992221594 742
6.4999999217689 712
6.51999992132187 686
6.53999992087483 732
6.5599999204278 664
6.57999991998076 707
6.59999991953373 692
6.61999991908669 717
6.63999991863966 673
6.65999991819262 698
6.67999991774559 696
6.69999991729855 740
6.71999991685152 705
6.73999991640449 668
6.75999991595745 643
6.77999991551042 696
6.79999991506338 689
6.81999991461635 731
6.83999991416931 682
6.85999991372228 710
6.87999991327524 678
6.89999991282821 687
6.91999991238117 690
6.93999991193414 646
6.9599999114871 716
6.97999991104007 658
6.99999991059303 685
7.019999910146 667
7.03999990969896 633
7.05999990925193 678
7.07999990880489 672
7.09999990835786 651
7.11999990791082 637
7.13999990746379 677
7.15999990701675 640
7.17999990656972 663
7.19999990612268 648
7.21999990567565 685
7.23999990522861 636
7.25999990478158 656
7.27999990433454 674
7.29999990388751 676
7.31999990344047 640
7.33999990299344 647
7.35999990254641 660
7.37999990209937 684
7.39999990165234 631
7.4199999012053 627
7.43999990075827 626
7.45999990031123 675
7.4799998998642 657
7.49999989941716 644
7.51999989897013 667
7.53999989852309 708
7.55999989807606 651
7.57999989762902 644
7.59999989718199 648
7.61999989673495 636
7.63999989628792 613
7.65999989584088 673
7.67999989539385 677
7.69999989494681 642
7.71999989449978 617
7.73999989405274 682
7.75999989360571 683
7.77999989315867 680
7.79999989271164 658
7.8199998922646 651
7.83999989181757 714
7.85999989137053 662
7.8799998909235 745
7.89999989047646 736
7.91999989002943 722
7.9399998895824 648
7.95999988913536 643
7.97999988868833 654
7.99999988824129 671
8.01999988779426 675
8.03999988734722 681
8.05999988690019 669
8.07999988645315 643
8.09999988600612 627
8.11999988555908 639
8.13999988511205 643
8.15999988466501 625
8.17999988421798 599
8.19999988377094 633
8.21999988332391 680
8.23999988287687 628
8.25999988242984 640
8.2799998819828 667
8.29999988153577 675
8.31999988108873 706
8.3399998806417 630
8.35999988019466 681
8.37999987974763 633
8.39999987930059 653
8.41999987885356 649
8.43999987840652 690
8.45999987795949 663
8.47999987751245 650
8.49999987706542 589
8.51999987661839 666
8.53999987617135 635
8.55999987572432 637
8.57999987527728 655
8.59999987483025 640
8.61999987438321 604
8.63999987393618 660
8.65999987348914 621
8.67999987304211 662
8.69999987259507 666
8.71999987214804 604
8.739999871701 623
8.75999987125397 637
8.77999987080693 650
8.7999998703599 634
8.81999986991286 661
8.83999986946583 667
8.85999986901879 615
8.87999986857176 689
8.89999986812472 672
8.91999986767769 689
8.93999986723065 720
8.95999986678362 692
8.97999986633658 683
8.99999986588955 668
9.01999986544251 643
9.03999986499548 660
9.05999986454844 644
9.07999986410141 605
9.09999986365438 660
9.11999986320734 606
9.13999986276031 618
9.15999986231327 621
9.17999986186624 629
9.1999998614192 603
9.21999986097217 633
9.23999986052513 586
9.2599998600781 579
9.27999985963106 590
9.29999985918403 578
9.31999985873699 610
9.33999985828996 594
9.35999985784292 562
9.37999985739589 572
9.39999985694885 639
9.41999985650182 613
9.43999985605478 620
9.45999985560775 600
9.47999985516071 611
9.49999985471368 634
9.51999985426664 574
9.53999985381961 574
9.55999985337257 585
9.57999985292554 564
9.5999998524785 578
9.61999985203147 616
9.63999985158443 584
9.6599998511374 631
9.67999985069037 642
9.69999985024333 646
9.7199998497963 613
9.73999984934926 610
9.75999984890223 600
9.77999984845519 592
9.79999984800816 593
9.81999984756112 555
9.83999984711409 609
9.85999984666705 580
9.87999984622002 635
9.89999984577298 624
9.91999984532595 624
9.93999984487891 633
9.95999984443188 625
9.97999984398484 616
9.99999984353781 568
10.0199998430908 621
10.0399998426437 620
10.0599998421967 637
10.0799998417497 602
10.0999998413026 576
10.1199998408556 604
10.1399998404086 557
10.1599998399615 615
10.1799998395145 610
10.1999998390675 605
10.2199998386204 619
10.2399998381734 617
10.2599998377264 641
10.2799998372793 576
10.2999998368323 629
10.3199998363853 632
10.3399998359382 584
10.3599998354912 611
10.3799998350441 568
10.3999998345971 650
10.4199998341501 632
10.439999833703 638
10.459999833256 622
10.479999832809 584
10.4999998323619 569
10.5199998319149 584
10.5399998314679 612
10.5599998310208 605
10.5799998305738 588
10.5999998301268 621
10.6199998296797 553
10.6399998292327 597
10.6599998287857 582
10.6799998283386 574
10.6999998278916 575
10.7199998274446 575
10.7399998269975 581
10.7599998265505 559
10.7799998261034 539
10.7999998256564 594
10.8199998252094 586
10.8399998247623 578
10.8599998243153 592
10.8799998238683 611
10.8999998234212 602
10.9199998229742 587
10.9399998225272 578
10.9599998220801 622
10.9799998216331 585
10.9999998211861 579
11.019999820739 557
11.039999820292 620
11.059999819845 583
11.0799998193979 569
11.0999998189509 592
11.1199998185039 556
11.1399998180568 584
11.1599998176098 572
11.1799998171628 586
11.1999998167157 585
11.2199998162687 571
11.2399998158216 573
11.2599998153746 617
11.2799998149276 578
11.2999998144805 578
11.3199998140335 598
11.3399998135865 608
11.3599998131394 614
11.3799998126924 563
11.3999998122454 596
11.4199998117983 629
11.4399998113513 563
11.4599998109043 575
11.4799998104572 594
11.4999998100102 604
11.5199998095632 579
11.5399998091161 598
11.5599998086691 587
11.5799998082221 591
11.599999807775 607
11.619999807328 596
11.639999806881 542
11.6599998064339 570
11.6799998059869 578
11.6999998055398 541
11.7199998050928 587
11.7399998046458 625
11.7599998041987 603
11.7799998037517 607
11.7999998033047 612
11.8199998028576 616
11.8399998024106 554
11.8599998019636 618
11.8799998015165 643
11.8999998010695 564
11.9199998006225 627
11.9399998001754 614
11.9599997997284 580
11.9799997992814 583
11.9999997988343 577
12.0199997983873 602
12.0399997979403 600
12.0599997974932 558
12.0799997970462 550
12.0999997965992 630
12.1199997961521 608
12.1399997957051 598
12.159999795258 614
12.179999794811 581
12.199999794364 568
12.2199997939169 583
12.2399997934699 602
12.2599997930229 576
12.2799997925758 664
12.2999997921288 594
12.3199997916818 607
12.3399997912347 545
12.3599997907877 591
12.3799997903407 601
12.3999997898936 621
12.4199997894466 648
12.4399997889996 594
12.4599997885525 591
12.4799997881055 570
12.4999997876585 635
12.5199997872114 614
12.5399997867644 607
12.5599997863173 571
12.5799997858703 625
12.5999997854233 624
12.6199997849762 599
12.6399997845292 600
12.6599997840822 630
12.6799997836351 619
12.6999997831881 553
12.7199997827411 607
12.739999782294 664
12.759999781847 642
12.7799997814 659
12.7999997809529 615
12.8199997805059 628
12.8399997800589 614
12.8599997796118 635
12.8799997791648 608
12.8999997787178 616
12.9199997782707 635
12.9399997778237 638
12.9599997773767 641
12.9799997769296 631
12.9999997764826 634
13.0199997760355 616
13.0399997755885 626
13.0599997751415 602
13.0799997746944 609
13.0999997742474 644
13.1199997738004 658
13.1399997733533 623
13.1599997729063 659
13.1799997724593 651
13.1999997720122 632
13.2199997715652 627
13.2399997711182 606
13.2599997706711 632
13.2799997702241 651
13.2999997697771 600
13.31999976933 634
13.339999768883 615
13.359999768436 680
13.3799997679889 652
13.3999997675419 647
13.4199997670949 677
13.4399997666478 645
13.4599997662008 624
13.4799997657537 705
13.4999997653067 680
13.5199997648597 630
13.5399997644126 671
13.5599997639656 632
13.5799997635186 655
13.5999997630715 647
13.6199997626245 693
13.6399997621775 680
13.6599997617304 662
13.6799997612834 649
13.6999997608364 650
13.7199997603893 683
13.7399997599423 625
13.7599997594953 626
13.7799997590482 639
13.7999997586012 609
13.8199997581542 632
13.8399997577071 659
13.8599997572601 649
13.879999756813 685
13.899999756366 634
13.919999755919 640
13.9399997554719 639
13.9599997550249 673
13.9799997545779 666
13.9999997541308 687
14.0199997536838 636
14.0399997532368 719
14.0599997527897 605
14.0799997523427 648
14.0999997518957 670
14.1199997514486 702
14.1399997510016 623
14.1599997505546 678
14.1799997501075 698
14.1999997496605 663
14.2199997492135 731
14.2399997487664 681
14.2599997483194 634
14.2799997478724 650
14.2999997474253 659
14.3199997469783 679
14.3399997465312 653
14.3599997460842 693
14.3799997456372 717
14.3999997451901 695
14.4199997447431 707
14.4399997442961 694
14.459999743849 668
14.479999743402 697
14.499999742955 641
14.5199997425079 701
14.5399997420609 690
14.5599997416139 694
14.5799997411668 727
14.5999997407198 683
14.6199997402728 683
14.6399997398257 720
14.6599997393787 712
14.6799997389317 666
14.6999997384846 741
14.7199997380376 677
14.7399997375906 705
14.7599997371435 707
14.7799997366965 720
14.7999997362494 764
14.8199997358024 728
14.8399997353554 693
14.8599997349083 731
14.8799997344613 766
14.8999997340143 712
14.9199997335672 676
14.9399997331202 705
14.9599997326732 734
14.9799997322261 743
14.9999997317791 692
15.0199997313321 737
15.039999730885 751
15.059999730438 733
15.079999729991 732
15.0999997295439 705
15.1199997290969 706
15.1399997286499 738
15.1599997282028 718
15.1799997277558 776
15.1999997273088 748
15.2199997268617 696
15.2399997264147 766
15.2599997259676 736
15.2799997255206 745
15.2999997250736 756
15.3199997246265 786
15.3399997241795 758
15.3599997237325 721
15.3799997232854 755
15.3999997228384 766
15.4199997223914 787
15.4399997219443 750
15.4599997214973 757
15.4799997210503 761
15.4999997206032 793
15.5199997201562 764
15.5399997197092 758
15.5599997192621 720
15.5799997188151 787
15.5999997183681 781
15.619999717921 799
15.639999717474 741
15.659999717027 735
15.6799997165799 782
15.6999997161329 796
15.7199997156858 807
15.7399997152388 795
15.7599997147918 760
15.7799997143447 818
15.7999997138977 768
15.8199997134507 812
15.8399997130036 755
15.8599997125566 798
15.8799997121096 824
15.8999997116625 802
15.9199997112155 804
15.9399997107685 838
15.9599997103214 809
15.9799997098744 802
15.9999997094274 786
16.0199997089803 810
16.0399997085333 804
16.0599997080863 797
16.0799997076392 843
16.0999997071922 829
16.1199997067451 785
16.1399997062981 785
16.1599997058511 846
16.179999705404 835
16.199999704957 792
16.21999970451 809
16.2399997040629 837
16.2599997036159 853
16.2799997031689 853
16.2999997027218 837
16.3199997022748 836
16.3399997018278 876
16.3599997013807 885
16.3799997009337 872
16.3999997004867 851
16.4199997000396 857
16.4399996995926 840
16.4599996991456 884
16.4799996986985 871
16.4999996982515 893
16.5199996978045 869
16.5399996973574 865
16.5599996969104 878
16.5799996964633 836
16.5999996960163 931
16.6199996955693 929
16.6399996951222 886
16.6599996946752 878
16.6799996942282 944
16.6999996937811 922
16.7199996933341 954
16.7399996928871 889
16.75999969244 957
16.779999691993 990
16.799999691546 971
16.8199996910989 1023
16.8399996906519 982
16.8599996902049 1040
16.8799996897578 1096
16.8999996893108 1076
16.9199996888638 1146
16.9399996884167 1227
16.9599996879697 1318
16.9799996875226 1382
16.9999996870756 1395
17.0199996866286 1327
17.0399996861815 1243
17.0599996857345 1065
17.0799996852875 1064
17.0999996848404 1040
17.1199996843934 981
17.1399996839464 997
17.1599996834993 971
17.1799996830523 959
17.1999996826053 951
17.2199996821582 978
17.2399996817112 1003
17.2599996812642 963
17.2799996808171 1018
17.2999996803701 982
17.3199996799231 963
17.339999679476 963
17.359999679029 970
17.379999678582 974
17.3999996781349 989
17.4199996776879 985
17.4399996772408 956
17.4599996767938 1019
17.4799996763468 989
17.4999996758997 975
17.5199996754527 1026
17.5399996750057 1017
17.5599996745586 1001
17.5799996741116 992
17.5999996736646 1023
17.6199996732175 1056
17.6399996727705 1033
17.6599996723235 1033
17.6799996718764 992
17.6999996714294 1011
17.7199996709824 1052
17.7399996705353 1049
17.7599996700883 1039
17.7799996696413 1029
17.7999996691942 1047
17.8199996687472 1045
17.8399996683002 1049
17.8599996678531 1003
17.8799996674061 1101
17.899999666959 1036
17.919999666512 1037
17.939999666065 1095
17.9599996656179 1055
17.9799996651709 1053
17.9999996647239 1103
18.0199996642768 1107
18.0399996638298 1063
18.0599996633828 1122
18.0799996629357 1148
18.0999996624887 1146
18.1199996620417 1084
18.1399996615946 1117
18.1599996611476 1131
18.1799996607006 1068
18.1999996602535 1040
18.2199996598065 1115
18.2399996593595 1128
18.2599996589124 1092
18.2799996584654 1091
18.2999996580184 1110
18.3199996575713 1143
18.3399996571243 1164
18.3599996566772 1163
18.3799996562302 1153
18.3999996557832 1115
18.4199996553361 1136
18.4399996548891 1108
18.4599996544421 1093
18.479999653995 1119
18.499999653548 1133
18.519999653101 1210
18.5399996526539 1150
18.5599996522069 1227
18.5799996517599 1154
18.5999996513128 1157
18.6199996508658 1194
18.6399996504188 1210
18.6599996499717 1197
18.6799996495247 1125
18.6999996490777 1241
18.7199996486306 1217
18.7399996481836 1231
18.7599996477366 1155
18.7799996472895 1215
18.7999996468425 1197
18.8199996463954 1233
18.8399996459484 1186
18.8599996455014 1229
18.8799996450543 1227
18.8999996446073 1203
18.9199996441603 1244
18.9399996437132 1296
18.9599996432662 1267
18.9799996428192 1236
18.9999996423721 1241
19.0199996419251 1221
19.0399996414781 1208
19.059999641031 1275
19.079999640584 1254
19.099999640137 1227
19.1199996396899 1283
19.1399996392429 1232
19.1599996387959 1268
19.1799996383488 1228
19.1999996379018 1329
19.2199996374547 1306
19.2399996370077 1248
19.2599996365607 1286
19.2799996361136 1284
19.2999996356666 1310
19.3199996352196 1287
19.3399996347725 1254
19.3599996343255 1339
19.3799996338785 1318
19.3999996334314 1387
19.4199996329844 1335
19.4399996325374 1349
19.4599996320903 1267
19.4799996316433 1356
19.4999996311963 1341
19.5199996307492 1298
19.5399996303022 1370
19.5599996298552 1379
19.5799996294081 1344
19.5999996289611 1359
19.6199996285141 1347
19.639999628067 1319
19.65999962762 1327
19.6799996271729 1322
19.6999996267259 1370
19.7199996262789 1348
19.7399996258318 1410
19.7599996253848 1343
19.7799996249378 1444
19.7999996244907 1366
19.8199996240437 1399
19.8399996235967 1410
19.8599996231496 1416
19.8799996227026 1431
19.8999996222556 1429
19.9199996218085 1389
19.9399996213615 1425
19.9599996209145 1454
19.9799996204674 1404
19.9999996200204 1411
