3 3243
3.01999999955297 3175
3.03999999910593 2926
3.0599999986589 2840
3.07999999821186 2698
3.09999999776483 2590
3.11999999731779 2474
3.13999999687076 2394
3.15999999642372 2419
3.17999999597669 2372
3.19999999552965 2335
3.21999999508262 2269
3.23999999463558 2232
3.25999999418855 2149
3.27999999374151 2151
3.29999999329448 2140
3.31999999284744 2119
3.33999999240041 2114
3.35999999195337 1996
3.37999999150634 2075
3.3999999910593 1962
3.41999999061227 1948
3.43999999016523 1936
3.4599999897182 1993
3.47999998927116 1909
3.49999998882413 1913
3.51999998837709 1770
3.53999998793006 1808
3.55999998748302 1759
3.57999998703599 1755
3.59999998658895 1800
3.61999998614192 1789
3.63999998569489 1747
3.65999998524785 1654
3.67999998480082 1623
3.69999998435378 1735
3.71999998390675 1647
3.73999998345971 1632
3.75999998301268 1621
3.77999998256564 1527
3.79999998211861 1589
3.81999998167157 1485
3.83999998122454 1501
3.8599999807775 1473
3.87999998033047 1455
3.89999997988343 1438
3.9199999794364 1430
3.93999997898936 1348
3.95999997854233 1404
3.97999997809529 1417
3.99999997764826 1387
4.01999997720122 1392
4.03999997675419 1345
4.05999997630715 1340
4.07999997586012 1260
4.09999997541308 1304
4.11999997496605 1312
4.13999997451901 1252
4.15999997407198 1276
4.17999997362494 1281
4.19999997317791 1228
4.21999997273087 1252
4.23999997228384 1204
4.25999997183681 1221
4.27999997138977 1176
4.29999997094274 1176
4.3199999704957 1204
4.33999997004867 1149
4.35999996960163 1175
4.3799999691546 1197
4.39999996870756 1158
4.41999996826053 1157
4.43999996781349 1146
4.45999996736646 1158
4.47999996691942 1142
4.49999996647239 1138
4.51999996602535 1047
4.53999996557832 1049
4.55999996513128 1047
4.57999996468425 1040
4.59999996423721 1067
4.61999996379018 1044
4.63999996334314 1051
4.65999996289611 1004
4.67999996244907 1062
4.69999996200204 995
4.719999961555 1004
4.73999996110797 954
4.75999996066093 975
4.7799999602139 965
4.79999995976686 1055
4.81999995931983 941
4.83999995887279 903
4.85999995842576 929
4.87999995797873 920
4.89999995753169 954
4.91999995708466 988
4.93999995663762 959
4.95999995619059 959
4.97999995574355 893
4.99999995529652 839
5.01999995484948 882
5.03999995440245 911
5.05999995395541 887
5.07999995350838 893
5.09999995306134 927
5.11999995261431 859
5.13999995216727 848
5.15999995172024 879
5.1799999512732 875
5.19999995082617 881
5.21999995037913 792
5.2399999499321 858
5.25999994948506 858
5.27999994903803 823
5.29999994859099 821
5.31999994814396 808
5.33999994769692 835
5.35999994724989 862
5.37999994680285 762
5.39999994635582 812
5.41999994590878 817
5.43999994546175 821
5.45999994501471 767
5.47999994456768 821
5.49999994412065 785
5.51999994367361 753
5.53999994322658 775
5.55999994277954 762
5.57999994233251 761
5.59999994188547 777
5.61999994143844 764
5.6399999409914 725
5.65999994054437 781
5.67999994009733 717
5.6999999396503 761
5.71999993920326 781
5.73999993875623 779
5.75999993830919 767
5.77999993786216 777
5.79999993741512 705
5.81999993696809 758
5.83999993652105 758
5.85999993607402 765
5.87999993562698 700
5.89999993517995 772
5.91999993473291 748
5.93999993428588 749
5.95999993383884 697
5.97999993339181 762
5.99999993294477 702
6.01999993249774 662
6.0399999320507 675
6.05999993160367 707
6.07999993115663 665
6.0999999307096 673
6.11999993026257 722
6.13999992981553 685
6.1599999293685 732
6.17999992892146 638
6.19999992847443 670
6.21999992802739 684
6.23999992758036 632
6.25999992713332 681
6.27999992668629 690
6.29999992623925 699
6.31999992579222 708
6.33999992534518 675
6.35999992489815 650
6.37999992445111 674
6.39999992400408 688
6.41999992355704 683
6.43999992311001 657
6.45999992266297 643
6.47999992221594 685
6.4999999217689 729
6.51999992132187 649
6.53999992087483 679
6.5599999204278 615
6.57999991998076 655
6.59999991953373 645
6.61999991908669 641
6.63999991863966 691
6.65999991819262 675
6.67999991774559 661
6.69999991729855 668
6.71999991685152 694
6.73999991640449 672
6.75999991595745 632
6.77999991551042 625
6.79999991506338 632
6.81999991461635 616
6.83999991416931 627
6.85999991372228 684
6.87999991327524 674
6.89999991282821 618
6.91999991238117 604
6.93999991193414 629
6.9599999114871 631
6.97999991104007 653
6.99999991059303 634
7.019999910146 556
7.03999990969896 638
7.05999990925193 618
7.07999990880489 599
7.09999990835786 622
7.11999990791082 608
7.13999990746379 643
7.15999990701675 630
7.17999990656972 639
7.19999990612268 606
7.21999990567565 606
7.23999990522861 581
7.25999990478158 641
7.27999990433454 623
7.29999990388751 651
7.31999990344047 612
7.33999990299344 644
7.35999990254641 611
7.37999990209937 609
7.39999990165234 589
7.4199999012053 608
7.43999990075827 633
7.45999990031123 608
7.4799998998642 623
7.49999989941716 598
7.51999989897013 596
7.53999989852309 560
7.55999989807606 557
7.57999989762902 593
7.59999989718199 628
7.61999989673495 597
7.63999989628792 612
7.65999989584088 573
7.67999989539385 536
7.69999989494681 597
7.71999989449978 609
7.73999989405274 599
7.75999989360571 606
7.77999989315867 583
7.79999989271164 549
7.8199998922646 588
7.83999989181757 612
7.85999989137053 622
7.8799998909235 547
7.89999989047646 573
7.91999989002943 571
7.9399998895824 591
7.95999988913536 606
7.97999988868833 583
7.99999988824129 559
8.01999988779426 554
8.03999988734722 543
8.05999988690019 519
8.07999988645315 554
8.09999988600612 627
8.11999988555908 574
8.13999988511205 588
8.15999988466501 590
8.17999988421798 587
8.19999988377094 538
8.21999988332391 574
8.23999988287687 535
8.25999988242984 552
8.2799998819828 611
8.29999988153577 574
8.31999988108873 574
8.3399998806417 564
8.35999988019466 560
8.37999987974763 600
8.39999987930059 591
8.41999987885356 576
8.43999987840652 605
8.45999987795949 594
8.47999987751245 643
8.49999987706542 604
8.51999987661839 611
8.53999987617135 634
8.55999987572432 652
8.57999987527728 676
8.59999987483025 703
8.61999987438321 728
8.63999987393618 728
8.65999987348914 695
8.67999987304211 769
8.69999987259507 787
8.71999987214804 858
8.739999871701 922
8.75999987125397 847
8.77999987080693 947
8.7999998703599 1016
8.81999986991286 1164
8.83999986946583 1226
8.85999986901879 1330
8.87999986857176 1451
8.89999986812472 1662
8.91999986767769 1979
8.93999986723065 2451
8.95999986678362 2982
8.97999986633658 3788
8.99999986588955 4134
9.01999986544251 3459
9.03999986499548 2125
9.05999986454844 1298
9.07999986410141 916
9.09999986365438 777
9.11999986320734 714
9.13999986276031 661
9.15999986231327 628
9.17999986186624 617
9.1999998614192 613
9.21999986097217 624
9.23999986052513 593
9.2599998600781 560
9.27999985963106 586
9.29999985918403 590
9.31999985873699 578
9.33999985828996 590
9.35999985784292 578
9.37999985739589 552
9.39999985694885 605
9.41999985650182 566
9.43999985605478 554
9.45999985560775 549
9.47999985516071 565
9.49999985471368 531
9.51999985426664 571
9.53999985381961 606
9.55999985337257 584
9.57999985292554 585
9.5999998524785 620
9.61999985203147 615
9.63999985158443 641
9.6599998511374 615
9.67999985069037 666
9.69999985024333 669
9.7199998497963 722
9.73999984934926 724
9.75999984890223 726
9.77999984845519 740
9.79999984800816 762
9.81999984756112 834
9.83999984711409 841
9.85999984666705 948
9.87999984622002 1061
9.89999984577298 1231
9.91999984532595 1404
9.93999984487891 1521
9.95999984443188 1417
9.97999984398484 1061
9.99999984353781 733
10.0199998430908 552
10.0399998426437 536
10.0599998421967 497
10.0799998417497 529
10.0999998413026 585
10.1199998408556 552
10.1399998404086 516
10.1599998399615 523
10.1799998395145 513
10.1999998390675 512
10.2199998386204 512
10.2399998381734 487
10.2599998377264 485
10.2799998372793 537
10.2999998368323 509
10.3199998363853 512
10.3399998359382 488
10.3599998354912 538
10.3799998350441 454
10.3999998345971 480
10.4199998341501 501
10.439999833703 459
10.459999833256 489
10.479999832809 472
10.4999998323619 494
10.5199998319149 482
10.5399998314679 468
10.5599998310208 492
10.5799998305738 453
10.5999998301268 482
10.6199998296797 476
10.6399998292327 478
10.6599998287857 490
10.6799998283386 458
10.6999998278916 539
10.7199998274446 514
10.7399998269975 475
10.7599998265505 512
10.7799998261034 516
10.7999998256564 500
10.8199998252094 478
10.8399998247623 493
10.8599998243153 486
10.8799998238683 519
10.8999998234212 449
10.9199998229742 475
10.9399998225272 485
10.9599998220801 499
10.9799998216331 489
10.9999998211861 442
11.019999820739 455
11.039999820292 482
11.059999819845 482
11.0799998193979 478
11.0999998189509 467
11.1199998185039 458
11.1399998180568 477
11.1599998176098 502
11.1799998171628 450
11.1999998167157 517
11.2199998162687 492
11.2399998158216 500
11.2599998153746 438
11.2799998149276 447
11.2999998144805 469
11.3199998140335 448
11.3399998135865 440
11.3599998131394 487
11.3799998126924 473
11.3999998122454 472
11.4199998117983 440
11.4399998113513 478
11.4599998109043 463
11.4799998104572 463
11.4999998100102 490
11.5199998095632 452
11.5399998091161 465
11.5599998086691 490
11.5799998082221 491
11.599999807775 457
11.619999807328 463
11.639999806881 434
11.6599998064339 481
11.6799998059869 460
11.6999998055398 427
11.7199998050928 441
11.7399998046458 455
11.7599998041987 452
11.7799998037517 467
11.7999998033047 482
11.8199998028576 478
11.8399998024106 475
11.8599998019636 425
11.8799998015165 429
11.8999998010695 470
11.9199998006225 497
11.9399998001754 496
11.9599997997284 446
11.9799997992814 508
11.9999997988343 451
12.0199997983873 440
12.0399997979403 453
12.0599997974932 515
12.0799997970462 465
12.0999997965992 472
12.1199997961521 452
12.1399997957051 482
12.159999795258 494
12.179999794811 524
12.199999794364 457
12.2199997939169 453
12.2399997934699 474
12.2599997930229 442
12.2799997925758 502
12.2999997921288 453
12.3199997916818 462
12.3399997912347 499
12.3599997907877 491
12.3799997903407 470
12.3999997898936 478
12.4199997894466 503
12.4399997889996 520
12.4599997885525 559
12.4799997881055 509
12.4999997876585 504
12.5199997872114 545
12.5399997867644 522
12.5599997863173 554
12.5799997858703 602
12.5999997854233 591
12.6199997849762 584
12.6399997845292 589
12.6599997840822 599
12.6799997836351 705
12.6999997831881 687
12.7199997827411 659
12.739999782294 627
12.759999781847 593
12.7799997814 530
12.7999997809529 509
12.8199997805059 514
12.8399997800589 479
12.8599997796118 514
12.8799997791648 476
12.8999997787178 502
12.9199997782707 521
12.9399997778237 482
12.9599997773767 490
12.9799997769296 457
12.9999997764826 454
13.0199997760355 471
13.0399997755885 502
13.0599997751415 488
13.0799997746944 492
13.0999997742474 493
13.1199997738004 536
13.1399997733533 506
13.1599997729063 520
13.1799997724593 520
13.1999997720122 527
13.2199997715652 562
13.2399997711182 585
13.2599997706711 580
13.2799997702241 604
13.2999997697771 593
13.31999976933 670
13.339999768883 684
13.359999768436 824
13.3799997679889 822
13.3999997675419 845
13.4199997670949 810
13.4399997666478 699
13.4599997662008 646
13.4799997657537 605
13.4999997653067 575
13.5199997648597 505
13.5399997644126 508
13.5599997639656 487
13.5799997635186 486
13.5999997630715 484
13.6199997626245 465
13.6399997621775 487
13.6599997617304 484
13.6799997612834 475
13.6999997608364 485
13.7199997603893 513
13.7399997599423 462
13.7599997594953 499
13.7799997590482 465
13.7999997586012 497
13.8199997581542 491
13.8399997577071 482
13.8599997572601 483
13.879999756813 487
13.899999756366 479
13.919999755919 442
13.9399997554719 455
13.9599997550249 500
13.9799997545779 496
13.9999997541308 490
14.0199997536838 469
14.0399997532368 472
14.0599997527897 511
14.0799997523427 507
14.0999997518957 465
14.1199997514486 497
14.1399997510016 512
14.1599997505546 511
14.1799997501075 490
14.1999997496605 494
14.2199997492135 522
14.2399997487664 488
14.2599997483194 515
14.2799997478724 492
14.2999997474253 453
14.3199997469783 496
14.3399997465312 499
14.3599997460842 446
14.3799997456372 480
14.3999997451901 502
14.4199997447431 532
14.4399997442961 496
14.459999743849 487
14.479999743402 473
14.499999742955 471
14.5199997425079 502
14.5399997420609 492
14.5599997416139 491
14.5799997411668 505
14.5999997407198 511
14.6199997402728 545
14.6399997398257 468
14.6599997393787 493
14.6799997389317 503
14.6999997384846 502
14.7199997380376 479
14.7399997375906 540
14.7599997371435 504
14.7799997366965 484
14.7999997362494 528
14.8199997358024 518
14.8399997353554 452
14.8599997349083 533
14.8799997344613 501
14.8999997340143 520
14.9199997335672 493
14.9399997331202 449
14.9599997326732 469
14.9799997322261 537
14.9999997317791 504
15.0199997313321 490
15.039999730885 517
15.059999730438 510
15.079999729991 540
15.0999997295439 547
15.1199997290969 499
15.1399997286499 481
15.1599997282028 500
15.1799997277558 513
15.1999997273088 487
15.2199997268617 529
15.2399997264147 516
15.2599997259676 521
15.2799997255206 535
15.2999997250736 547
15.3199997246265 546
15.3399997241795 524
15.3599997237325 546
15.3799997232854 536
15.3999997228384 509
15.4199997223914 524
15.4399997219443 500
15.4599997214973 540
15.4799997210503 521
15.4999997206032 485
15.5199997201562 512
15.5399997197092 551
15.5599997192621 555
15.5799997188151 539
15.5999997183681 555
15.619999717921 542
15.639999717474 536
15.659999717027 537
15.6799997165799 573
15.6999997161329 607
15.7199997156858 552
15.7399997152388 571
15.7599997147918 579
15.7799997143447 517
15.7999997138977 529
15.8199997134507 480
15.8399997130036 543
15.8599997125566 582
15.8799997121096 547
15.8999997116625 572
15.9199997112155 547
15.9399997107685 540
15.9599997103214 528
15.9799997098744 508
15.9999997094274 531
16.0199997089803 560
16.0399997085333 597
16.0599997080863 567
16.0799997076392 526
16.0999997071922 592
16.1199997067451 510
16.1399997062981 552
16.1599997058511 529
16.179999705404 585
16.199999704957 557
16.21999970451 556
16.2399997040629 585
16.2599997036159 579
16.2799997031689 574
16.2999997027218 601
16.3199997022748 574
16.3399997018278 546
16.3599997013807 571
16.3799997009337 600
16.3999997004867 616
16.4199997000396 560
16.4399996995926 545
16.4599996991456 567
16.4799996986985 583
16.4999996982515 592
16.5199996978045 591
16.5399996973574 586
16.5599996969104 595
16.5799996964633 603
16.5999996960163 604
16.6199996955693 620
16.6399996951222 613
16.6599996946752 669
16.6799996942282 593
16.6999996937811 658
16.7199996933341 635
16.7399996928871 649
16.75999969244 691
16.779999691993 690
16.799999691546 732
16.8199996910989 733
16.8399996906519 785
16.8599996902049 853
16.8799996897578 861
16.8999996893108 913
16.9199996888638 1056
16.9399996884167 1148
16.9599996879697 1196
16.9799996875226 1278
16.9999996870756 1229
17.0199996866286 1170
17.0399996861815 1021
17.0599996857345 909
17.0799996852875 769
17.0999996848404 699
17.1199996843934 684
17.1399996839464 637
17.1599996834993 633
17.1799996830523 622
17.1999996826053 625
17.2199996821582 633
17.2399996817112 655
17.2599996812642 616
17.2799996808171 584
17.2999996803701 651
17.3199996799231 642
17.339999679476 628
17.359999679029 666
17.379999678582 643
17.3999996781349 637
17.4199996776879 659
17.4399996772408 655
17.4599996767938 620
17.4799996763468 646
17.4999996758997 619
17.5199996754527 637
17.5399996750057 628
17.5599996745586 649
17.5799996741116 668
17.5999996736646 649
17.6199996732175 620
17.6399996727705 647
17.6599996723235 668
17.6799996718764 629
17.6999996714294 645
17.7199996709824 646
17.7399996705353 637
17.7599996700883 679
17.7799996696413 689
17.7999996691942 696
17.8199996687472 660
17.8399996683002 693
17.8599996678531 682
17.8799996674061 702
17.899999666959 669
17.919999666512 712
17.939999666065 679
17.9599996656179 720
17.9799996651709 780
17.9999996647239 769
18.0199996642768 753
18.0399996638298 717
18.0599996633828 691
18.0799996629357 680
18.0999996624887 675
18.1199996620417 668
18.1399996615946 684
18.1599996611476 679
18.1799996607006 691
18.1999996602535 742
18.2199996598065 671
18.2399996593595 658
18.2599996589124 715
18.2799996584654 705
18.2999996580184 693
18.3199996575713 733
18.3399996571243 732
18.3599996566772 677
18.3799996562302 741
18.3999996557832 774
18.4199996553361 714
18.4399996548891 756
18.4599996544421 771
18.479999653995 781
18.499999653548 709
18.519999653101 781
18.5399996526539 755
18.5599996522069 728
18.5799996517599 777
18.5999996513128 707
18.6199996508658 727
18.6399996504188 690
18.6599996499717 736
18.6799996495247 705
18.6999996490777 688
18.7199996486306 710
18.7399996481836 756
18.7599996477366 718
18.7799996472895 706
18.7999996468425 744
18.8199996463954 740
18.8399996459484 695
18.8599996455014 785
18.8799996450543 773
18.8999996446073 712
18.9199996441603 707
18.9399996437132 757
18.9599996432662 740
18.9799996428192 744
18.9999996423721 728
19.0199996419251 737
19.0399996414781 726
19.059999641031 714
19.079999640584 739
19.099999640137 722
19.1199996396899 783
19.1399996392429 773
19.1599996387959 738
19.1799996383488 768
19.1999996379018 780
19.2199996374547 795
19.2399996370077 710
19.2599996365607 762
19.2799996361136 783
19.2999996356666 823
19.3199996352196 727
19.3399996347725 790
19.3599996343255 795
19.3799996338785 815
19.3999996334314 802
19.4199996329844 784
19.4399996325374 782
19.4599996320903 815
19.4799996316433 764
19.4999996311963 778
19.5199996307492 792
19.5399996303022 758
19.5599996298552 796
19.5799996294081 789
19.5999996289611 767
19.6199996285141 812
19.639999628067 776
19.65999962762 810
19.6799996271729 795
19.6999996267259 822
19.7199996262789 802
19.7399996258318 820
19.7599996253848 884
19.7799996249378 887
19.7999996244907 866
19.8199996240437 890
19.8399996235967 900
19.8599996231496 900
19.8799996227026 970
19.8999996222556 982
19.9199996218085 1023
19.9399996213615 1016
19.9599996209145 959
19.9799996204674 955
19.9999996200204 897
