3 2837
3.01999999955297 2679
3.03999999910593 2455
3.0599999986589 2344
3.07999999821186 2255
3.09999999776483 2221
3.11999999731779 2126
3.13999999687076 1950
3.15999999642372 2013
3.17999999597669 1943
3.19999999552965 1982
3.21999999508262 1950
3.23999999463558 1864
3.25999999418855 1854
3.27999999374151 1833
3.29999999329448 1797
3.31999999284744 1816
3.33999999240041 1767
3.35999999195337 1711
3.37999999150634 1757
3.3999999910593 1737
3.41999999061227 1803
3.43999999016523 1746
3.4599999897182 1680
3.47999998927116 1634
3.49999998882413 1594
3.51999998837709 1633
3.53999998793006 1631
3.55999998748302 1572
3.57999998703599 1558
3.59999998658895 1533
3.61999998614192 1459
3.63999998569489 1552
3.65999998524785 1579
3.67999998480082 1539
3.69999998435378 1408
3.71999998390675 1481
3.73999998345971 1484
3.75999998301268 1416
3.77999998256564 1428
3.79999998211861 1377
3.81999998167157 1381
3.83999998122454 1327
3.8599999807775 1325
3.87999998033047 1348
3.89999997988343 1318
3.9199999794364 1337
3.93999997898936 1314
3.95999997854233 1321
3.97999997809529 1265
3.99999997764826 1372
4.01999997720122 1264
4.03999997675419 1209
4.05999997630715 1217
4.07999997586012 1180
4.09999997541308 1219
4.11999997496605 1199
4.13999997451901 1202
4.15999997407198 1156
4.17999997362494 1187
4.19999997317791 1147
4.21999997273087 1186
4.23999997228384 1188
4.25999997183681 1088
4.27999997138977 1084
4.29999997094274 1104
4.3199999704957 1094
4.33999997004867 1143
4.35999996960163 1112
4.3799999691546 1055
4.39999996870756 1037
4.41999996826053 1050
4.43999996781349 1076
4.45999996736646 1009
4.47999996691942 992
4.49999996647239 1043
4.51999996602535 1058
4.53999996557832 982
4.55999996513128 1006
4.57999996468425 1023
4.59999996423721 992
4.61999996379018 1022
4.63999996334314 976
4.65999996289611 977
4.67999996244907 938
4.69999996200204 947
4.719999961555 915
4.73999996110797 890
4.75999996066093 921
4.7799999602139 932
4.79999995976686 955
4.81999995931983 923
4.83999995887279 929
4.85999995842576 852
4.87999995797873 916
4.89999995753169 923
4.91999995708466 849
4.93999995663762 880
4.95999995619059 896
4.97999995574355 961
4.99999995529652 919
5.01999995484948 815
5.03999995440245 880
5.05999995395541 834
5.07999995350838 851
5.09999995306134 890
5.11999995261431 887
5.13999995216727 827
5.15999995172024 885
5.1799999512732 844
5.19999995082617 796
5.21999995037913 835
5.2399999499321 862
5.25999994948506 835
5.27999994903803 802
5.29999994859099 814
5.31999994814396 798
5.33999994769692 841
5.35999994724989 801
5.37999994680285 775
5.39999994635582 815
5.41999994590878 771
5.43999994546175 836
5.45999994501471 798
5.47999994456768 791
5.49999994412065 726
5.51999994367361 730
5.53999994322658 736
5.55999994277954 752
5.57999994233251 762
5.59999994188547 821
5.61999994143844 786
5.6399999409914 772
5.65999994054437 798
5.67999994009733 740
5.6999999396503 796
5.71999993920326 726
5.73999993875623 721
5.75999993830919 742
5.77999993786216 714
5.79999993741512 763
5.81999993696809 777
5.83999993652105 712
5.85999993607402 722
5.87999993562698 762
5.89999993517995 729
5.91999993473291 756
5.93999993428588 739
5.95999993383884 707
5.97999993339181 732
5.99999993294477 729
6.01999993249774 695
6.0399999320507 720
6.05999993160367 703
6.07999993115663 773
6.0999999307096 756
6.11999993026257 707
6.13999992981553 732
6.1599999293685 754
6.17999992892146 677
6.19999992847443 693
6.21999992802739 689
6.23999992758036 711
6.25999992713332 665
6.27999992668629 699
6.29999992623925 694
6.31999992579222 707
6.33999992534518 711
6.35999992489815 690
6.37999992445111 705
6.39999992400408 688
6.41999992355704 687
6.43999992311001 735
6.45999992266297 674
6.47999992221594 731
6.4999999217689 720
6.51999992132187 673
6.53999992087483 698
6.5599999204278 689
6.57999991998076 654
6.59999991953373 729
6.61999991908669 736
6.63999991863966 684
6.65999991819262 681
6.67999991774559 728
6.69999991729855 660
6.71999991685152 674
6.73999991640449 676
6.75999991595745 691
6.77999991551042 732
6.79999991506338 673
6.81999991461635 627
6.83999991416931 703
6.85999991372228 665
6.87999991327524 678
6.89999991282821 680
6.91999991238117 720
6.93999991193414 684
6.9599999114871 666
6.97999991104007 684
6.99999991059303 689
7.019999910146 673
7.03999990969896 678
7.05999990925193 679
7.07999990880489 658
7.09999990835786 689
7.11999990791082 649
7.13999990746379 672
7.15999990701675 647
7.17999990656972 667
7.19999990612268 669
7.21999990567565 683
7.23999990522861 685
7.25999990478158 719
7.27999990433454 700
7.29999990388751 695
7.31999990344047 633
7.33999990299344 698
7.35999990254641 696
7.37999990209937 640
7.39999990165234 700
7.4199999012053 658
7.43999990075827 703
7.45999990031123 677
7.4799998998642 672
7.49999989941716 691
7.51999989897013 678
7.53999989852309 712
7.55999989807606 708
7.57999989762902 681
7.59999989718199 667
7.61999989673495 679
7.63999989628792 689
7.65999989584088 639
7.67999989539385 642
7.69999989494681 712
7.71999989449978 656
7.73999989405274 631
7.75999989360571 685
7.77999989315867 688
7.79999989271164 697
7.8199998922646 657
7.83999989181757 712
7.85999989137053 666
7.8799998909235 691
7.89999989047646 676
7.91999989002943 676
7.9399998895824 701
7.95999988913536 678
7.97999988868833 686
7.99999988824129 653
8.01999988779426 656
8.03999988734722 630
8.05999988690019 674
8.07999988645315 694
8.09999988600612 645
8.11999988555908 683
8.13999988511205 671
8.15999988466501 661
8.17999988421798 669
8.19999988377094 673
8.21999988332391 681
8.23999988287687 680
8.25999988242984 640
8.2799998819828 653
8.29999988153577 661
8.31999988108873 694
8.3399998806417 704
8.35999988019466 616
8.37999987974763 682
8.39999987930059 680
8.41999987885356 704
8.43999987840652 674
8.45999987795949 653
8.47999987751245 644
8.49999987706542 700
8.51999987661839 735
8.53999987617135 712
8.55999987572432 704
8.57999987527728 691
8.59999987483025 704
8.61999987438321 703
8.63999987393618 757
8.65999987348914 776
8.67999987304211 794
8.69999987259507 722
8.71999987214804 754
8.739999871701 786
8.75999987125397 795
8.77999987080693 743
8.7999998703599 800
8.81999986991286 768
8.83999986946583 804
8.85999986901879 792
8.87999986857176 855
8.89999986812472 908
8.91999986767769 964
8.93999986723065 939
8.95999986678362 962
8.97999986633658 916
8.99999986588955 932
9.01999986544251 901
9.03999986499548 923
9.05999986454844 882
9.07999986410141 836
9.09999986365438 838
9.11999986320734 872
9.13999986276031 825
9.15999986231327 798
9.17999986186624 816
9.1999998614192 869
9.21999986097217 835
9.23999986052513 837
9.2599998600781 747
9.27999985963106 796
9.29999985918403 760
9.31999985873699 768
9.33999985828996 799
9.35999985784292 787
9.37999985739589 800
9.39999985694885 777
9.41999985650182 738
9.43999985605478 782
9.45999985560775 752
9.47999985516071 721
9.49999985471368 734
9.51999985426664 694
9.53999985381961 700
9.55999985337257 771
9.57999985292554 787
9.5999998524785 772
9.61999985203147 718
9.63999985158443 745
9.6599998511374 764
9.67999985069037 751
9.69999985024333 754
9.7199998497963 733
9.73999984934926 764
9.75999984890223 795
9.77999984845519 832
9.79999984800816 824
9.81999984756112 815
9.83999984711409 842
9.85999984666705 796
9.87999984622002 841
9.89999984577298 888
9.91999984532595 921
9.93999984487891 853
9.95999984443188 878
9.97999984398484 832
9.99999984353781 859
10.0199998430908 866
10.0399998426437 824
10.0599998421967 862
10.0799998417497 796
10.0999998413026 773
10.1199998408556 726
10.1399998404086 735
10.1599998399615 768
10.1799998395145 711
10.1999998390675 719
10.2199998386204 757
10.2399998381734 710
10.2599998377264 663
10.2799998372793 689
10.2999998368323 634
10.3199998363853 686
10.3399998359382 697
10.3599998354912 675
10.3799998350441 659
10.3999998345971 625
10.4199998341501 652
10.439999833703 634
10.459999833256 630
10.479999832809 629
10.4999998323619 596
10.5199998319149 601
10.5399998314679 656
10.5599998310208 626
10.5799998305738 633
10.5999998301268 597
10.6199998296797 607
10.6399998292327 614
10.6599998287857 663
10.6799998283386 672
10.6999998278916 603
10.7199998274446 600
10.7399998269975 621
10.7599998265505 601
10.7799998261034 554
10.7999998256564 585
10.8199998252094 615
10.8399998247623 562
10.8599998243153 578
10.8799998238683 618
10.8999998234212 565
10.9199998229742 635
10.9399998225272 587
10.9599998220801 582
10.9799998216331 585
10.9999998211861 594
11.019999820739 607
11.039999820292 578
11.059999819845 591
11.0799998193979 546
11.0999998189509 571
11.1199998185039 583
11.1399998180568 595
11.1599998176098 549
11.1799998171628 568
11.1999998167157 525
11.2199998162687 546
11.2399998158216 541
11.2599998153746 592
11.2799998149276 557
11.2999998144805 580
11.3199998140335 560
11.3399998135865 563
11.3599998131394 549
11.3799998126924 534
11.3999998122454 571
11.4199998117983 548
11.4399998113513 547
11.4599998109043 546
11.4799998104572 560
11.4999998100102 540
11.5199998095632 579
11.5399998091161 542
11.5599998086691 569
11.5799998082221 568
11.599999807775 521
11.619999807328 563
11.639999806881 577
11.6599998064339 569
11.6799998059869 532
11.6999998055398 550
11.7199998050928 560
11.7399998046458 558
11.7599998041987 533
11.7799998037517 562
11.7999998033047 519
11.8199998028576 537
11.8399998024106 548
11.8599998019636 559
11.8799998015165 570
11.8999998010695 525
11.9199998006225 495
11.9399998001754 535
11.9599997997284 533
11.9799997992814 528
11.9999997988343 560
12.0199997983873 539
12.0399997979403 569
12.0599997974932 541
12.0799997970462 556
12.0999997965992 575
12.1199997961521 528
12.1399997957051 551
12.159999795258 546
12.179999794811 549
12.199999794364 574
12.2199997939169 529
12.2399997934699 539
12.2599997930229 566
12.2799997925758 542
12.2999997921288 588
12.3199997916818 557
12.3399997912347 556
12.3599997907877 549
12.3799997903407 539
12.3999997898936 592
12.4199997894466 569
12.4399997889996 607
12.4599997885525 592
12.4799997881055 626
12.4999997876585 584
12.5199997872114 662
12.5399997867644 640
12.5599997863173 659
12.5799997858703 727
12.5999997854233 689
12.6199997849762 723
12.6399997845292 671
12.6599997840822 726
12.6799997836351 712
12.6999997831881 651
12.7199997827411 667
12.739999782294 587
12.759999781847 596
12.7799997814 615
12.7999997809529 529
12.8199997805059 601
12.8399997800589 603
12.8599997796118 587
12.8799997791648 583
12.8999997787178 586
12.9199997782707 602
12.9399997778237 586
12.9599997773767 628
12.9799997769296 609
12.9999997764826 599
13.0199997760355 587
13.0399997755885 575
13.0599997751415 565
13.0799997746944 561
13.0999997742474 564
13.1199997738004 561
13.1399997733533 564
13.1599997729063 570
13.1799997724593 595
13.1999997720122 581
13.2199997715652 647
13.2399997711182 576
13.2599997706711 575
13.2799997702241 627
13.2999997697771 610
13.31999976933 582
13.339999768883 594
13.359999768436 616
13.3799997679889 604
13.3999997675419 600
13.4199997670949 593
13.4399997666478 586
13.4599997662008 595
13.4799997657537 614
13.4999997653067 600
13.5199997648597 600
13.5399997644126 602
13.5599997639656 572
13.5799997635186 591
13.5999997630715 624
13.6199997626245 570
13.6399997621775 573
13.6599997617304 584
13.6799997612834 562
13.6999997608364 584
13.7199997603893 586
13.7399997599423 588
13.7599997594953 563
13.7799997590482 549
13.7999997586012 531
13.8199997581542 569
13.8399997577071 571
13.8599997572601 581
13.879999756813 580
13.899999756366 592
13.919999755919 579
13.9399997554719 543
13.9599997550249 566
13.9799997545779 585
13.9999997541308 586
14.0199997536838 569
14.0399997532368 620
14.0599997527897 631
14.0799997523427 570
14.0999997518957 563
14.1199997514486 573
14.1399997510016 615
14.1599997505546 604
14.1799997501075 545
14.1999997496605 590
14.2199997492135 564
14.2399997487664 602
14.2599997483194 573
14.2799997478724 605
14.2999997474253 547
14.3199997469783 596
14.3399997465312 621
14.3599997460842 627
14.3799997456372 602
14.3999997451901 635
14.4199997447431 595
14.4399997442961 572
14.459999743849 569
14.479999743402 593
14.499999742955 631
14.5199997425079 638
14.5399997420609 640
14.5599997416139 614
14.5799997411668 626
14.5999997407198 596
14.6199997402728 603
14.6399997398257 631
14.6599997393787 611
14.6799997389317 603
14.6999997384846 588
14.7199997380376 582
14.7399997375906 599
14.7599997371435 595
14.7799997366965 611
14.7999997362494 627
14.8199997358024 622
14.8399997353554 611
14.8599997349083 637
14.8799997344613 604
14.8999997340143 621
14.9199997335672 642
14.9399997331202 592
14.9599997326732 634
14.9799997322261 671
14.9999997317791 639
15.0199997313321 641
15.039999730885 594
15.059999730438 586
15.079999729991 594
15.0999997295439 588
15.1199997290969 570
15.1399997286499 626
15.1599997282028 620
15.1799997277558 658
15.1999997273088 630
15.2199997268617 657
15.2399997264147 660
15.2599997259676 605
15.2799997255206 623
15.2999997250736 587
15.3199997246265 659
15.3399997241795 638
15.3599997237325 645
15.3799997232854 629
15.3999997228384 637
15.4199997223914 668
15.4399997219443 665
15.4599997214973 627
15.4799997210503 648
15.4999997206032 688
15.5199997201562 658
15.5399997197092 628
15.5599997192621 661
15.5799997188151 665
15.5999997183681 658
15.619999717921 652
15.639999717474 619
15.659999717027 627
15.6799997165799 623
15.6999997161329 741
15.7199997156858 619
15.7399997152388 695
15.7599997147918 667
15.7799997143447 680
15.7999997138977 652
15.8199997134507 647
15.8399997130036 632
15.8599997125566 661
15.8799997121096 699
15.8999997116625 668
15.9199997112155 702
15.9399997107685 630
15.9599997103214 688
15.9799997098744 706
15.9999997094274 633
16.0199997089803 658
16.0399997085333 659
16.0599997080863 665
16.0799997076392 711
16.0999997071922 718
16.1199997067451 642
16.1399997062981 713
16.1599997058511 713
16.179999705404 750
16.199999704957 705
16.21999970451 692
16.2399997040629 695
16.2599997036159 683
16.2799997031689 696
16.2999997027218 692
16.3199997022748 663
16.3399997018278 730
16.3599997013807 750
16.3799997009337 700
16.3999997004867 698
16.4199997000396 762
16.4399996995926 726
16.4599996991456 724
16.4799996986985 768
16.4999996982515 707
16.5199996978045 682
16.5399996973574 749
16.5599996969104 772
16.5799996964633 772
16.5999996960163 699
16.6199996955693 779
16.6399996951222 728
16.6599996946752 740
16.6799996942282 753
16.6999996937811 752
16.7199996933341 758
16.7399996928871 807
16.75999969244 807
16.779999691993 813
16.799999691546 852
16.8199996910989 807
16.8399996906519 885
16.8599996902049 958
16.8799996897578 964
16.8999996893108 1057
16.9199996888638 1174
16.9399996884167 1247
16.9599996879697 1318
16.9799996875226 1338
16.9999996870756 1324
17.0199996866286 1267
17.0399996861815 1062
17.0599996857345 999
17.0799996852875 905
17.0999996848404 898
17.1199996843934 835
17.1399996839464 821
17.1599996834993 819
17.1799996830523 807
17.1999996826053 780
17.2199996821582 774
17.2399996817112 788
17.2599996812642 830
17.2799996808171 786
17.2999996803701 808
17.3199996799231 738
17.339999679476 728
17.359999679029 766
17.379999678582 845
17.3999996781349 810
17.4199996776879 764
17.4399996772408 852
17.4599996767938 792
17.4799996763468 789
17.4999996758997 784
17.5199996754527 825
17.5399996750057 830
17.5599996745586 770
17.5799996741116 812
17.5999996736646 811
17.6199996732175 804
17.6399996727705 799
17.6599996723235 803
17.6799996718764 831
17.6999996714294 848
17.7199996709824 884
17.7399996705353 823
17.7599996700883 848
17.7799996696413 890
17.7999996691942 837
17.8199996687472 924
17.8399996683002 840
17.8599996678531 893
17.8799996674061 874
17.899999666959 820
17.919999666512 851
17.939999666065 911
17.9599996656179 823
17.9799996651709 871
17.9999996647239 850
18.0199996642768 876
18.0399996638298 903
18.0599996633828 863
18.0799996629357 894
18.0999996624887 893
18.1199996620417 876
18.1399996615946 893
18.1599996611476 892
18.1799996607006 880
18.1999996602535 931
18.2199996598065 866
18.2399996593595 874
18.2599996589124 869
18.2799996584654 895
18.2999996580184 899
18.3199996575713 867
18.3399996571243 865
18.3599996566772 954
18.3799996562302 908
18.3999996557832 916
18.4199996553361 920
18.4399996548891 883
18.4599996544421 961
18.479999653995 957
18.499999653548 942
18.519999653101 901
18.5399996526539 940
18.5599996522069 945
18.5799996517599 940
18.5999996513128 970
18.6199996508658 929
18.6399996504188 948
18.6599996499717 877
18.6799996495247 943
18.6999996490777 952
18.7199996486306 1001
18.7399996481836 915
18.7599996477366 916
18.7799996472895 975
18.7999996468425 945
18.8199996463954 1011
18.8399996459484 946
18.8599996455014 972
18.8799996450543 964
18.8999996446073 946
18.9199996441603 936
18.9399996437132 993
18.9599996432662 955
18.9799996428192 957
18.9999996423721 998
19.0199996419251 1004
19.0399996414781 993
19.059999641031 982
19.079999640584 946
19.099999640137 999
19.1199996396899 984
19.1399996392429 1000
19.1599996387959 1004
19.1799996383488 998
19.1999996379018 984
19.2199996374547 1027
19.2399996370077 982
19.2599996365607 1017
19.2799996361136 988
19.2999996356666 986
19.3199996352196 982
19.3399996347725 1048
19.3599996343255 1009
19.3799996338785 995
19.3999996334314 1055
19.4199996329844 1002
19.4399996325374 967
19.4599996320903 1012
19.4799996316433 992
19.4999996311963 1041
19.5199996307492 1043
19.5399996303022 1051
19.5599996298552 1033
19.5799996294081 978
19.5999996289611 1069
19.6199996285141 1057
19.639999628067 1047
19.65999962762 1058
19.6799996271729 1048
19.6999996267259 1041
19.7199996262789 1018
19.7399996258318 1112
19.7599996253848 1069
19.7799996249378 1045
19.7999996244907 1124
19.8199996240437 1051
19.8399996235967 1121
19.8599996231496 1120
19.8799996227026 1030
19.8999996222556 1054
19.9199996218085 1098
19.9399996213615 1119
19.9599996209145 1190
19.9799996204674 1126
19.9999996200204 1127
