3 2687
3.01999999955297 2439
3.03999999910593 2271
3.0599999986589 2156
3.07999999821186 2071
3.09999999776483 2057
3.11999999731779 1875
3.13999999687076 1909
3.15999999642372 1789
3.17999999597669 1849
3.19999999552965 1749
3.21999999508262 1823
3.23999999463558 1682
3.25999999418855 1668
3.27999999374151 1690
3.29999999329448 1621
3.31999999284744 1632
3.33999999240041 1608
3.35999999195337 1659
3.37999999150634 1536
3.3999999910593 1530
3.41999999061227 1604
3.43999999016523 1553
3.4599999897182 1547
3.47999998927116 1526
3.49999998882413 1508
3.51999998837709 1475
3.53999998793006 1494
3.55999998748302 1461
3.57999998703599 1353
3.59999998658895 1384
3.61999998614192 1370
3.63999998569489 1362
3.65999998524785 1300
3.67999998480082 1343
3.69999998435378 1357
3.71999998390675 1394
3.73999998345971 1299
3.75999998301268 1344
3.77999998256564 1330
3.79999998211861 1271
3.81999998167157 1248
3.83999998122454 1280
3.8599999807775 1276
3.87999998033047 1249
3.89999997988343 1213
3.9199999794364 1197
3.93999997898936 1175
3.95999997854233 1241
3.97999997809529 1198
3.99999997764826 1236
4.01999997720122 1241
4.03999997675419 1231
4.05999997630715 1160
4.07999997586012 1178
4.09999997541308 1093
4.11999997496605 1201
4.13999997451901 1167
4.15999997407198 1096
4.17999997362494 1125
4.19999997317791 1088
4.21999997273087 1109
4.23999997228384 1089
4.25999997183681 1075
4.27999997138977 1100
4.29999997094274 1133
4.3199999704957 1213
4.33999997004867 1152
4.35999996960163 1153
4.3799999691546 1098
4.39999996870756 1121
4.41999996826053 1107
4.43999996781349 1169
4.45999996736646 1113
4.47999996691942 1124
4.49999996647239 1158
4.51999996602535 1108
4.53999996557832 1165
4.55999996513128 1106
4.57999996468425 1145
4.59999996423721 1187
4.61999996379018 1128
4.63999996334314 1154
4.65999996289611 1136
4.67999996244907 1203
4.69999996200204 1236
4.719999961555 1261
4.73999996110797 1231
4.75999996066093 1264
4.7799999602139 1312
4.79999995976686 1285
4.81999995931983 1315
4.83999995887279 1411
4.85999995842576 1345
4.87999995797873 1459
4.89999995753169 1448
4.91999995708466 1422
4.93999995663762 1598
4.95999995619059 1598
4.97999995574355 1646
4.99999995529652 1679
5.01999995484948 1689
5.03999995440245 1769
5.05999995395541 1957
5.07999995350838 2019
5.09999995306134 2054
5.11999995261431 2274
5.13999995216727 2396
5.15999995172024 2409
5.1799999512732 2535
5.19999995082617 2841
5.21999995037913 3130
5.2399999499321 3271
5.25999994948506 3626
5.27999994903803 3702
5.29999994859099 4072
5.31999994814396 4484
5.33999994769692 5198
5.35999994724989 5994
5.37999994680285 6910
5.39999994635582 8171
5.41999994590878 8875
5.43999994546175 7314
5.45999994501471 5325
5.47999994456768 3835
5.49999994412065 3051
5.51999994367361 2834
5.53999994322658 2616
5.55999994277954 2271
5.57999994233251 2187
5.59999994188547 2101
5.61999994143844 1973
5.6399999409914 1792
5.65999994054437 1761
5.67999994009733 1642
5.6999999396503 1591
5.71999993920326 1541
5.73999993875623 1455
5.75999993830919 1409
5.77999993786216 1383
5.79999993741512 1343
5.81999993696809 1252
5.83999993652105 1270
5.85999993607402 1145
5.87999993562698 1219
5.89999993517995 1133
5.91999993473291 1043
5.93999993428588 1058
5.95999993383884 1016
5.97999993339181 1003
5.99999993294477 949
6.01999993249774 1010
6.0399999320507 943
6.05999993160367 920
6.07999993115663 968
6.0999999307096 918
6.11999993026257 917
6.13999992981553 840
6.1599999293685 828
6.17999992892146 851
6.19999992847443 825
6.21999992802739 866
6.23999992758036 838
6.25999992713332 869
6.27999992668629 851
6.29999992623925 812
6.31999992579222 789
6.33999992534518 825
6.35999992489815 827
6.37999992445111 815
6.39999992400408 803
6.41999992355704 807
6.43999992311001 863
6.45999992266297 794
6.47999992221594 793
6.4999999217689 742
6.51999992132187 770
6.53999992087483 771
6.5599999204278 771
6.57999991998076 762
6.59999991953373 788
6.61999991908669 783
6.63999991863966 791
6.65999991819262 771
6.67999991774559 739
6.69999991729855 778
6.71999991685152 760
6.73999991640449 776
6.75999991595745 816
6.77999991551042 731
6.79999991506338 735
6.81999991461635 784
6.83999991416931 660
6.85999991372228 759
6.87999991327524 751
6.89999991282821 706
6.91999991238117 672
6.93999991193414 720
6.9599999114871 741
6.97999991104007 761
6.99999991059303 703
7.019999910146 754
7.03999990969896 728
7.05999990925193 707
7.07999990880489 727
7.09999990835786 669
7.11999990791082 722
7.13999990746379 707
7.15999990701675 645
7.17999990656972 679
7.19999990612268 713
7.21999990567565 703
7.23999990522861 686
7.25999990478158 682
7.27999990433454 607
7.29999990388751 709
7.31999990344047 707
7.33999990299344 676
7.35999990254641 687
7.37999990209937 648
7.39999990165234 654
7.4199999012053 687
7.43999990075827 633
7.45999990031123 645
7.4799998998642 685
7.49999989941716 639
7.51999989897013 672
7.53999989852309 648
7.55999989807606 656
7.57999989762902 685
7.59999989718199 682
7.61999989673495 667
7.63999989628792 627
7.65999989584088 703
7.67999989539385 666
7.69999989494681 703
7.71999989449978 666
7.73999989405274 678
7.75999989360571 690
7.77999989315867 653
7.79999989271164 691
7.8199998922646 663
7.83999989181757 643
7.85999989137053 693
7.8799998909235 718
7.89999989047646 660
7.91999989002943 656
7.9399998895824 645
7.95999988913536 669
7.97999988868833 685
7.99999988824129 656
8.01999988779426 674
8.03999988734722 677
8.05999988690019 663
8.07999988645315 659
8.09999988600612 696
8.11999988555908 668
8.13999988511205 665
8.15999988466501 678
8.17999988421798 632
8.19999988377094 677
8.21999988332391 683
8.23999988287687 665
8.25999988242984 653
8.2799998819828 651
8.29999988153577 657
8.31999988108873 683
8.3399998806417 652
8.35999988019466 643
8.37999987974763 625
8.39999987930059 647
8.41999987885356 630
8.43999987840652 643
8.45999987795949 658
8.47999987751245 659
8.49999987706542 631
8.51999987661839 649
8.53999987617135 646
8.55999987572432 652
8.57999987527728 662
8.59999987483025 662
8.61999987438321 650
8.63999987393618 689
8.65999987348914 675
8.67999987304211 602
8.69999987259507 666
8.71999987214804 645
8.739999871701 640
8.75999987125397 670
8.77999987080693 668
8.7999998703599 692
8.81999986991286 616
8.83999986946583 710
8.85999986901879 666
8.87999986857176 664
8.89999986812472 709
8.91999986767769 744
8.93999986723065 721
8.95999986678362 756
8.97999986633658 740
8.99999986588955 776
9.01999986544251 774
9.03999986499548 881
9.05999986454844 817
9.07999986410141 864
9.09999986365438 905
9.11999986320734 949
9.13999986276031 1013
9.15999986231327 1026
9.17999986186624 1051
9.1999998614192 1166
9.21999986097217 1269
9.23999986052513 1395
9.2599998600781 1514
9.27999985963106 1772
9.29999985918403 2056
9.31999985873699 2474
9.33999985828996 2655
9.35999985784292 2340
9.37999985739589 1639
9.39999985694885 1239
9.41999985650182 1053
9.43999985605478 983
9.45999985560775 868
9.47999985516071 842
9.49999985471368 819
9.51999985426664 797
9.53999985381961 768
9.55999985337257 706
9.57999985292554 753
9.5999998524785 725
9.61999985203147 660
9.63999985158443 685
9.6599998511374 699
9.67999985069037 689
9.69999985024333 719
9.7199998497963 662
9.73999984934926 725
9.75999984890223 708
9.77999984845519 679
9.79999984800816 680
9.81999984756112 628
9.83999984711409 669
9.85999984666705 653
9.87999984622002 652
9.89999984577298 619
9.91999984532595 649
9.93999984487891 699
9.95999984443188 669
9.97999984398484 698
9.99999984353781 655
10.0199998430908 629
10.0399998426437 700
10.0599998421967 691
10.0799998417497 689
10.0999998413026 704
10.1199998408556 651
10.1399998404086 645
10.1599998399615 655
10.1799998395145 666
10.1999998390675 664
10.2199998386204 666
10.2399998381734 635
10.2599998377264 660
10.2799998372793 686
10.2999998368323 651
10.3199998363853 652
10.3399998359382 638
10.3599998354912 634
10.3799998350441 671
10.3999998345971 700
10.4199998341501 705
10.439999833703 746
10.459999833256 702
10.479999832809 747
10.4999998323619 718
10.5199998319149 747
10.5399998314679 776
10.5599998310208 784
10.5799998305738 816
10.5999998301268 831
10.6199998296797 859
10.6399998292327 889
10.6599998287857 982
10.6799998283386 1057
10.6999998278916 1160
10.7199998274446 1197
10.7399998269975 1378
10.7599998265505 1578
10.7799998261034 1644
10.7999998256564 1578
10.8199998252094 1266
10.8399998247623 1155
10.8599998243153 989
10.8799998238683 969
10.8999998234212 922
10.9199998229742 875
10.9399998225272 843
10.9599998220801 850
10.9799998216331 830
10.9999998211861 791
11.019999820739 757
11.039999820292 725
11.059999819845 705
11.0799998193979 719
11.0999998189509 687
11.1199998185039 647
11.1399998180568 686
11.1599998176098 635
11.1799998171628 682
11.1999998167157 636
11.2199998162687 588
11.2399998158216 648
11.2599998153746 599
11.2799998149276 670
11.2999998144805 607
11.3199998140335 630
11.3399998135865 643
11.3599998131394 672
11.3799998126924 607
11.3999998122454 598
11.4199998117983 602
11.4399998113513 597
11.4599998109043 584
11.4799998104572 569
11.4999998100102 620
11.5199998095632 624
11.5399998091161 596
11.5599998086691 615
11.5799998082221 631
11.599999807775 644
11.619999807328 648
11.639999806881 615
11.6599998064339 564
11.6799998059869 643
11.6999998055398 626
11.7199998050928 607
11.7399998046458 638
11.7599998041987 602
11.7799998037517 580
11.7999998033047 607
11.8199998028576 609
11.8399998024106 579
11.8599998019636 614
11.8799998015165 609
11.8999998010695 611
11.9199998006225 608
11.9399998001754 601
11.9599997997284 621
11.9799997992814 566
11.9999997988343 629
12.0199997983873 634
12.0399997979403 641
12.0599997974932 619
12.0799997970462 640
12.0999997965992 646
12.1199997961521 647
12.1399997957051 677
12.159999795258 755
12.179999794811 746
12.199999794364 752
12.2199997939169 789
12.2399997934699 778
12.2599997930229 789
12.2799997925758 769
12.2999997921288 789
12.3199997916818 745
12.3399997912347 708
12.3599997907877 706
12.3799997903407 705
12.3999997898936 655
12.4199997894466 647
12.4399997889996 629
12.4599997885525 643
12.4799997881055 625
12.4999997876585 666
12.5199997872114 651
12.5399997867644 659
12.5599997863173 673
12.5799997858703 628
12.5999997854233 605
12.6199997849762 654
12.6399997845292 636
12.6599997840822 648
12.6799997836351 626
12.6999997831881 607
12.7199997827411 637
12.739999782294 654
12.759999781847 615
12.7799997814 610
12.7999997809529 624
12.8199997805059 641
12.8399997800589 649
12.8599997796118 593
12.8799997791648 636
12.8999997787178 625
12.9199997782707 685
12.9399997778237 628
12.9599997773767 655
12.9799997769296 694
12.9999997764826 644
13.0199997760355 667
13.0399997755885 688
13.0599997751415 679
13.0799997746944 638
13.0999997742474 698
13.1199997738004 656
13.1399997733533 605
13.1599997729063 639
13.1799997724593 651
13.1999997720122 671
13.2199997715652 610
13.2399997711182 659
13.2599997706711 682
13.2799997702241 760
13.2999997697771 722
13.31999976933 601
13.339999768883 625
13.359999768436 675
13.3799997679889 665
13.3999997675419 679
13.4199997670949 671
13.4399997666478 670
13.4599997662008 662
13.4799997657537 642
13.4999997653067 653
13.5199997648597 732
13.5399997644126 640
13.5599997639656 657
13.5799997635186 679
13.5999997630715 721
13.6199997626245 640
13.6399997621775 659
13.6599997617304 666
13.6799997612834 639
13.6999997608364 658
13.7199997603893 656
13.7399997599423 678
13.7599997594953 646
13.7799997590482 693
13.7999997586012 638
13.8199997581542 646
13.8399997577071 674
13.8599997572601 678
13.879999756813 646
13.899999756366 642
13.919999755919 648
13.9399997554719 657
13.9599997550249 646
13.9799997545779 648
13.9999997541308 657
14.0199997536838 651
14.0399997532368 642
14.0599997527897 701
14.0799997523427 653
14.0999997518957 631
14.1199997514486 682
14.1399997510016 652
14.1599997505546 676
14.1799997501075 728
14.1999997496605 710
14.2199997492135 727
14.2399997487664 818
14.2599997483194 738
14.2799997478724 720
14.2999997474253 726
14.3199997469783 730
14.3399997465312 738
14.3599997460842 710
14.3799997456372 724
14.3999997451901 738
14.4199997447431 687
14.4399997442961 748
14.459999743849 721
14.479999743402 694
14.499999742955 673
14.5199997425079 661
14.5399997420609 685
14.5599997416139 672
14.5799997411668 685
14.5999997407198 693
14.6199997402728 704
14.6399997398257 667
14.6599997393787 736
14.6799997389317 643
14.6999997384846 703
14.7199997380376 670
14.7399997375906 667
14.7599997371435 660
14.7799997366965 654
14.7999997362494 658
14.8199997358024 688
14.8399997353554 697
14.8599997349083 688
14.8799997344613 682
14.8999997340143 674
14.9199997335672 686
14.9399997331202 662
14.9599997326732 708
14.9799997322261 676
14.9999997317791 694
15.0199997313321 660
15.039999730885 722
15.059999730438 694
15.079999729991 713
15.0999997295439 675
15.1199997290969 707
15.1399997286499 744
15.1599997282028 691
15.1799997277558 669
15.1999997273088 676
15.2199997268617 654
15.2399997264147 724
15.2599997259676 714
15.2799997255206 734
15.2999997250736 693
15.3199997246265 694
15.3399997241795 715
15.3599997237325 688
15.3799997232854 708
15.3999997228384 668
15.4199997223914 714
15.4399997219443 677
15.4599997214973 669
15.4799997210503 711
15.4999997206032 685
15.5199997201562 723
15.5399997197092 753
15.5599997192621 718
15.5799997188151 744
15.5999997183681 717
15.619999717921 667
15.639999717474 736
15.659999717027 700
15.6799997165799 697
15.6999997161329 691
15.7199997156858 717
15.7399997152388 700
15.7599997147918 697
15.7799997143447 713
15.7999997138977 731
15.8199997134507 733
15.8399997130036 700
15.8599997125566 700
15.8799997121096 749
15.8999997116625 742
15.9199997112155 740
15.9399997107685 719
15.9599997103214 741
15.9799997098744 721
15.9999997094274 755
16.0199997089803 764
16.0399997085333 765
16.0599997080863 760
16.0799997076392 749
16.0999997071922 724
16.1199997067451 751
16.1399997062981 813
16.1599997058511 810
16.179999705404 762
16.199999704957 748
16.21999970451 794
16.2399997040629 743
16.2599997036159 770
16.2799997031689 800
16.2999997027218 790
16.3199997022748 796
16.3399997018278 786
16.3599997013807 785
16.3799997009337 818
16.3999997004867 787
16.4199997000396 760
16.4399996995926 765
16.4599996991456 781
16.4799996986985 786
16.4999996982515 779
16.5199996978045 713
16.5399996973574 812
16.5599996969104 783
16.5799996964633 773
16.5999996960163 822
16.6199996955693 787
16.6399996951222 808
16.6599996946752 805
16.6799996942282 794
16.6999996937811 773
16.7199996933341 831
16.7399996928871 796
16.75999969244 821
16.779999691993 775
16.799999691546 819
16.8199996910989 797
16.8399996906519 824
16.8599996902049 827
16.8799996897578 855
16.8999996893108 848
16.9199996888638 867
16.9399996884167 845
16.9599996879697 907
16.9799996875226 872
16.9999996870756 829
17.0199996866286 866
17.0399996861815 842
17.0599996857345 854
17.0799996852875 829
17.0999996848404 875
17.1199996843934 856
17.1399996839464 829
17.1599996834993 856
17.1799996830523 902
17.1999996826053 838
17.2199996821582 939
17.2399996817112 904
17.2599996812642 891
17.2799996808171 847
17.2999996803701 916
17.3199996799231 912
17.339999679476 951
17.359999679029 866
17.379999678582 910
17.3999996781349 881
17.4199996776879 907
17.4399996772408 836
17.4599996767938 922
17.4799996763468 950
17.4999996758997 943
17.5199996754527 926
17.5399996750057 917
17.5599996745586 891
17.5799996741116 891
17.5999996736646 942
17.6199996732175 889
17.6399996727705 884
17.6599996723235 910
17.6799996718764 914
17.6999996714294 874
17.7199996709824 879
17.7399996705353 914
17.7599996700883 937
17.7799996696413 944
17.7999996691942 880
17.8199996687472 931
17.8399996683002 926
17.8599996678531 954
17.8799996674061 902
17.899999666959 960
17.919999666512 863
17.939999666065 919
17.9599996656179 891
17.9799996651709 900
17.9999996647239 979
18.0199996642768 944
18.0399996638298 883
18.0599996633828 885
18.0799996629357 950
18.0999996624887 899
18.1199996620417 955
18.1399996615946 934
18.1599996611476 952
18.1799996607006 912
18.1999996602535 929
18.2199996598065 916
18.2399996593595 902
18.2599996589124 888
18.2799996584654 922
18.2999996580184 923
18.3199996575713 983
18.3399996571243 936
18.3599996566772 967
18.3799996562302 927
18.3999996557832 997
18.4199996553361 997
18.4399996548891 936
18.4599996544421 982
18.479999653995 986
18.499999653548 970
18.519999653101 1008
18.5399996526539 949
18.5599996522069 993
18.5799996517599 1033
18.5999996513128 1057
18.6199996508658 1098
18.6399996504188 1044
18.6599996499717 1074
18.6799996495247 1080
18.6999996490777 1134
18.7199996486306 1090
18.7399996481836 1064
18.7599996477366 988
18.7799996472895 1009
18.7999996468425 1030
18.8199996463954 981
18.8399996459484 1000
18.8599996455014 1037
18.8799996450543 1004
18.8999996446073 992
18.9199996441603 1063
18.9399996437132 1090
18.9599996432662 1045
18.9799996428192 1114
18.9999996423721 1114
19.0199996419251 1124
19.0399996414781 1009
19.059999641031 1097
19.079999640584 1079
19.099999640137 1125
19.1199996396899 1083
19.1399996392429 1090
19.1599996387959 1122
19.1799996383488 1095
19.1999996379018 1047
19.2199996374547 1128
19.2399996370077 1084
19.2599996365607 1102
19.2799996361136 1123
19.2999996356666 1139
19.3199996352196 1152
19.3399996347725 1154
19.3599996343255 1240
19.3799996338785 1254
19.3999996334314 1344
19.4199996329844 1339
19.4399996325374 1478
19.4599996320903 1380
19.4799996316433 1413
19.4999996311963 1392
19.5199996307492 1344
19.5399996303022 1233
19.5599996298552 1269
19.5799996294081 1244
19.5999996289611 1286
19.6199996285141 1219
19.639999628067 1177
19.65999962762 1174
19.6799996271729 1132
19.6999996267259 1198
19.7199996262789 1151
19.7399996258318 1129
19.7599996253848 1183
19.7799996249378 1184
19.7999996244907 1209
19.8199996240437 1163
19.8399996235967 1126
19.8599996231496 1190
19.8799996227026 1187
19.8999996222556 1151
19.9199996218085 1142
19.9399996213615 1211
19.9599996209145 1140
19.9799996204674 1166
19.9999996200204 1154
