3 3102
3.01999999955297 2907
3.03999999910593 2692
3.0599999986589 2691
3.07999999821186 2598
3.09999999776483 2399
3.11999999731779 2414
3.13999999687076 2257
3.15999999642372 2282
3.17999999597669 2308
3.19999999552965 2298
3.21999999508262 2164
3.23999999463558 2175
3.25999999418855 2077
3.27999999374151 2090
3.29999999329448 2082
3.31999999284744 2044
3.33999999240041 2104
3.35999999195337 2020
3.37999999150634 1983
3.3999999910593 1972
3.41999999061227 1952
3.43999999016523 1940
3.4599999897182 1910
3.47999998927116 1805
3.49999998882413 1796
3.51999998837709 1809
3.53999998793006 1795
3.55999998748302 1691
3.57999998703599 1721
3.59999998658895 1720
3.61999998614192 1659
3.63999998569489 1752
3.65999998524785 1756
3.67999998480082 1672
3.69999998435378 1650
3.71999998390675 1645
3.73999998345971 1553
3.75999998301268 1518
3.77999998256564 1610
3.79999998211861 1593
3.81999998167157 1540
3.83999998122454 1584
3.8599999807775 1527
3.87999998033047 1452
3.89999997988343 1549
3.9199999794364 1404
3.93999997898936 1441
3.95999997854233 1417
3.97999997809529 1429
3.99999997764826 1461
4.01999997720122 1257
4.03999997675419 1432
4.05999997630715 1368
4.07999997586012 1292
4.09999997541308 1385
4.11999997496605 1324
4.13999997451901 1310
4.15999997407198 1272
4.17999997362494 1267
4.19999997317791 1241
4.21999997273087 1262
4.23999997228384 1201
4.25999997183681 1172
4.27999997138977 1228
4.29999997094274 1204
4.3199999704957 1248
4.33999997004867 1177
4.35999996960163 1199
4.3799999691546 1112
4.39999996870756 1168
4.41999996826053 1205
4.43999996781349 1155
4.45999996736646 1142
4.47999996691942 1116
4.49999996647239 1122
4.51999996602535 1104
4.53999996557832 1074
4.55999996513128 1112
4.57999996468425 1107
4.59999996423721 1058
4.61999996379018 1111
4.63999996334314 1107
4.65999996289611 1048
4.67999996244907 1075
4.69999996200204 1053
4.719999961555 1026
4.73999996110797 1037
4.75999996066093 1051
4.7799999602139 1013
4.79999995976686 986
4.81999995931983 1006
4.83999995887279 1048
4.85999995842576 1006
4.87999995797873 947
4.89999995753169 922
4.91999995708466 951
4.93999995663762 941
4.95999995619059 965
4.97999995574355 918
4.99999995529652 905
5.01999995484948 959
5.03999995440245 900
5.05999995395541 904
5.07999995350838 898
5.09999995306134 887
5.11999995261431 916
5.13999995216727 918
5.15999995172024 849
5.1799999512732 894
5.19999995082617 872
5.21999995037913 860
5.2399999499321 867
5.25999994948506 813
5.27999994903803 875
5.29999994859099 852
5.31999994814396 888
5.33999994769692 866
5.35999994724989 816
5.37999994680285 871
5.39999994635582 893
5.41999994590878 839
5.43999994546175 840
5.45999994501471 797
5.47999994456768 797
5.49999994412065 785
5.51999994367361 790
5.53999994322658 832
5.55999994277954 820
5.57999994233251 818
5.59999994188547 809
5.61999994143844 781
5.6399999409914 813
5.65999994054437 798
5.67999994009733 785
5.6999999396503 826
5.71999993920326 832
5.73999993875623 809
5.75999993830919 778
5.77999993786216 842
5.79999993741512 731
5.81999993696809 773
5.83999993652105 791
5.85999993607402 807
5.87999993562698 806
5.89999993517995 741
5.91999993473291 718
5.93999993428588 753
5.95999993383884 756
5.97999993339181 770
5.99999993294477 741
6.01999993249774 795
6.0399999320507 796
6.05999993160367 797
6.07999993115663 819
6.0999999307096 758
6.11999993026257 793
6.13999992981553 768
6.1599999293685 783
6.17999992892146 730
6.19999992847443 717
6.21999992802739 741
6.23999992758036 750
6.25999992713332 763
6.27999992668629 758
6.29999992623925 832
6.31999992579222 757
6.33999992534518 778
6.35999992489815 754
6.37999992445111 780
6.39999992400408 755
6.41999992355704 705
6.43999992311001 755
6.45999992266297 776
6.47999992221594 756
6.4999999217689 708
6.51999992132187 755
6.53999992087483 756
6.5599999204278 788
6.57999991998076 751
6.59999991953373 813
6.61999991908669 736
6.63999991863966 765
6.65999991819262 733
6.67999991774559 759
6.69999991729855 717
6.71999991685152 772
6.73999991640449 766
6.75999991595745 800
6.77999991551042 779
6.79999991506338 758
6.81999991461635 762
6.83999991416931 706
6.85999991372228 765
6.87999991327524 786
6.89999991282821 775
6.91999991238117 765
6.93999991193414 812
6.9599999114871 801
6.97999991104007 807
6.99999991059303 800
7.019999910146 812
7.03999990969896 815
7.05999990925193 792
7.07999990880489 784
7.09999990835786 811
7.11999990791082 793
7.13999990746379 785
7.15999990701675 811
7.17999990656972 838
7.19999990612268 814
7.21999990567565 854
7.23999990522861 826
7.25999990478158 809
7.27999990433454 834
7.29999990388751 817
7.31999990344047 846
7.33999990299344 843
7.35999990254641 893
7.37999990209937 861
7.39999990165234 857
7.4199999012053 901
7.43999990075827 894
7.45999990031123 877
7.4799998998642 908
7.49999989941716 858
7.51999989897013 923
7.53999989852309 944
7.55999989807606 996
7.57999989762902 949
7.59999989718199 955
7.61999989673495 969
7.63999989628792 993
7.65999989584088 990
7.67999989539385 998
7.69999989494681 1017
7.71999989449978 930
7.73999989405274 983
7.75999989360571 978
7.77999989315867 999
7.79999989271164 1003
7.8199998922646 1088
7.83999989181757 1029
7.85999989137053 1069
7.8799998909235 1083
7.89999989047646 1046
7.91999989002943 1054
7.9399998895824 1036
7.95999988913536 1089
7.97999988868833 1052
7.99999988824129 1053
8.01999988779426 1051
8.03999988734722 1091
8.05999988690019 1067
8.07999988645315 1076
8.09999988600612 1052
8.11999988555908 1106
8.13999988511205 1056
8.15999988466501 1050
8.17999988421798 1045
8.19999988377094 1033
8.21999988332391 1006
8.23999988287687 1092
8.25999988242984 1080
8.2799998819828 1093
8.29999988153577 1091
8.31999988108873 1098
8.3399998806417 1067
8.35999988019466 1117
8.37999987974763 1120
8.39999987930059 1059
8.41999987885356 1094
8.43999987840652 1125
8.45999987795949 1136
8.47999987751245 1203
8.49999987706542 1189
8.51999987661839 1124
8.53999987617135 1153
8.55999987572432 1180
8.57999987527728 1246
8.59999987483025 1225
8.61999987438321 1324
8.63999987393618 1317
8.65999987348914 1282
8.67999987304211 1388
8.69999987259507 1419
8.71999987214804 1446
8.739999871701 1511
8.75999987125397 1522
8.77999987080693 1506
8.7999998703599 1628
8.81999986991286 1784
8.83999986946583 1845
8.85999986901879 1834
8.87999986857176 1984
8.89999986812472 2141
8.91999986767769 2165
8.93999986723065 2170
8.95999986678362 2240
8.97999986633658 2184
8.99999986588955 2215
9.01999986544251 2083
9.03999986499548 2127
9.05999986454844 1986
9.07999986410141 1924
9.09999986365438 1851
9.11999986320734 1795
9.13999986276031 1783
9.15999986231327 1749
9.17999986186624 1625
9.1999998614192 1542
9.21999986097217 1521
9.23999986052513 1417
9.2599998600781 1456
9.27999985963106 1385
9.29999985918403 1351
9.31999985873699 1309
9.33999985828996 1338
9.35999985784292 1228
9.37999985739589 1233
9.39999985694885 1137
9.41999985650182 1181
9.43999985605478 1135
9.45999985560775 1107
9.47999985516071 1052
9.49999985471368 1075
9.51999985426664 1040
9.53999985381961 1046
9.55999985337257 972
9.57999985292554 1041
9.5999998524785 977
9.61999985203147 1012
9.63999985158443 999
9.6599998511374 991
9.67999985069037 1027
9.69999985024333 1045
9.7199998497963 1094
9.73999984934926 1077
9.75999984890223 996
9.77999984845519 1123
9.79999984800816 1073
9.81999984756112 1199
9.83999984711409 1213
9.85999984666705 1268
9.87999984622002 1306
9.89999984577298 1362
9.91999984532595 1318
9.93999984487891 1372
9.95999984443188 1426
9.97999984398484 1365
9.99999984353781 1338
10.0199998430908 1305
10.0399998426437 1266
10.0599998421967 1227
10.0799998417497 1201
10.0999998413026 1086
10.1199998408556 1070
10.1399998404086 1007
10.1599998399615 1005
10.1799998395145 969
10.1999998390675 903
10.2199998386204 953
10.2399998381734 874
10.2599998377264 970
10.2799998372793 868
10.2999998368323 806
10.3199998363853 865
10.3399998359382 849
10.3599998354912 865
10.3799998350441 852
10.3999998345971 827
10.4199998341501 822
10.439999833703 843
10.459999833256 776
10.479999832809 840
10.4999998323619 762
10.5199998319149 741
10.5399998314679 776
10.5599998310208 739
10.5799998305738 797
10.5999998301268 696
10.6199998296797 724
10.6399998292327 722
10.6599998287857 667
10.6799998283386 719
10.6999998278916 659
10.7199998274446 733
10.7399998269975 700
10.7599998265505 669
10.7799998261034 663
10.7999998256564 685
10.8199998252094 706
10.8399998247623 659
10.8599998243153 702
10.8799998238683 667
10.8999998234212 712
10.9199998229742 651
10.9399998225272 656
10.9599998220801 611
10.9799998216331 667
10.9999998211861 611
11.019999820739 634
11.039999820292 682
11.059999819845 646
11.0799998193979 594
11.0999998189509 627
11.1199998185039 606
11.1399998180568 602
11.1599998176098 598
11.1799998171628 603
11.1999998167157 639
11.2199998162687 626
11.2399998158216 580
11.2599998153746 564
11.2799998149276 558
11.2999998144805 566
11.3199998140335 556
11.3399998135865 587
11.3599998131394 535
11.3799998126924 566
11.3999998122454 572
11.4199998117983 526
11.4399998113513 538
11.4599998109043 517
11.4799998104572 560
11.4999998100102 502
11.5199998095632 559
11.5399998091161 574
11.5599998086691 537
11.5799998082221 538
11.599999807775 538
11.619999807328 528
11.639999806881 573
11.6599998064339 558
11.6799998059869 528
11.6999998055398 553
11.7199998050928 565
11.7399998046458 563
11.7599998041987 559
11.7799998037517 500
11.7999998033047 527
11.8199998028576 502
11.8399998024106 538
11.8599998019636 546
11.8799998015165 491
11.8999998010695 523
11.9199998006225 568
11.9399998001754 542
11.9599997997284 552
11.9799997992814 519
11.9999997988343 547
12.0199997983873 516
12.0399997979403 530
12.0599997974932 535
12.0799997970462 523
12.0999997965992 516
12.1199997961521 529
12.1399997957051 498
12.159999795258 571
12.179999794811 507
12.199999794364 554
12.2199997939169 493
12.2399997934699 541
12.2599997930229 531
12.2799997925758 531
12.2999997921288 563
12.3199997916818 521
12.3399997912347 555
12.3599997907877 551
12.3799997903407 541
12.3999997898936 593
12.4199997894466 604
12.4399997889996 573
12.4599997885525 587
12.4799997881055 641
12.4999997876585 641
12.5199997872114 659
12.5399997867644 739
12.5599997863173 689
12.5799997858703 823
12.5999997854233 874
12.6199997849762 885
12.6399997845292 854
12.6599997840822 812
12.6799997836351 779
12.6999997831881 801
12.7199997827411 741
12.739999782294 706
12.759999781847 707
12.7799997814 662
12.7999997809529 628
12.8199997805059 570
12.8399997800589 592
12.8599997796118 582
12.8799997791648 559
12.8999997787178 569
12.9199997782707 562
12.9399997778237 598
12.9599997773767 568
12.9799997769296 544
12.9999997764826 542
13.0199997760355 582
13.0399997755885 556
13.0599997751415 546
13.0799997746944 570
13.0999997742474 522
13.1199997738004 528
13.1399997733533 546
13.1599997729063 573
13.1799997724593 571
13.1999997720122 531
13.2199997715652 542
13.2399997711182 542
13.2599997706711 562
13.2799997702241 559
13.2999997697771 552
13.31999976933 564
13.339999768883 589
13.359999768436 557
13.3799997679889 536
13.3999997675419 574
13.4199997670949 548
13.4399997666478 565
13.4599997662008 550
13.4799997657537 545
13.4999997653067 512
13.5199997648597 561
13.5399997644126 579
13.5599997639656 527
13.5799997635186 515
13.5999997630715 541
13.6199997626245 531
13.6399997621775 574
13.6599997617304 481
13.6799997612834 522
13.6999997608364 502
13.7199997603893 522
13.7399997599423 517
13.7599997594953 504
13.7799997590482 538
13.7999997586012 502
13.8199997581542 509
13.8399997577071 513
13.8599997572601 531
13.879999756813 527
13.899999756366 496
13.919999755919 546
13.9399997554719 556
13.9599997550249 493
13.9799997545779 493
13.9999997541308 543
14.0199997536838 561
14.0399997532368 529
14.0599997527897 533
14.0799997523427 556
14.0999997518957 548
14.1199997514486 523
14.1399997510016 508
14.1599997505546 515
14.1799997501075 535
14.1999997496605 547
14.2199997492135 555
14.2399997487664 528
14.2599997483194 525
14.2799997478724 556
14.2999997474253 517
14.3199997469783 511
14.3399997465312 521
14.3599997460842 568
14.3799997456372 597
14.3999997451901 519
14.4199997447431 533
14.4399997442961 559
14.459999743849 545
14.479999743402 526
14.499999742955 546
14.5199997425079 564
14.5399997420609 549
14.5599997416139 562
14.5799997411668 533
14.5999997407198 600
14.6199997402728 535
14.6399997398257 541
14.6599997393787 536
14.6799997389317 566
14.6999997384846 545
14.7199997380376 588
14.7399997375906 564
14.7599997371435 541
14.7799997366965 569
14.7999997362494 551
14.8199997358024 547
14.8399997353554 535
14.8599997349083 516
14.8799997344613 550
14.8999997340143 527
14.9199997335672 564
14.9399997331202 545
14.9599997326732 551
14.9799997322261 543
14.9999997317791 556
15.0199997313321 556
15.039999730885 549
15.059999730438 589
15.079999729991 601
15.0999997295439 529
15.1199997290969 560
15.1399997286499 605
15.1599997282028 580
15.1799997277558 575
15.1999997273088 556
15.2199997268617 543
15.2399997264147 591
15.2599997259676 595
15.2799997255206 548
15.2999997250736 563
15.3199997246265 586
15.3399997241795 554
15.3599997237325 595
15.3799997232854 570
15.3999997228384 544
15.4199997223914 563
15.4399997219443 607
15.4599997214973 596
15.4799997210503 564
15.4999997206032 595
15.5199997201562 590
15.5399997197092 561
15.5599997192621 594
15.5799997188151 604
15.5999997183681 555
15.619999717921 568
15.639999717474 546
15.659999717027 532
15.6799997165799 589
15.6999997161329 534
15.7199997156858 607
15.7399997152388 578
15.7599997147918 585
15.7799997143447 596
15.7999997138977 601
15.8199997134507 567
15.8399997130036 557
15.8599997125566 599
15.8799997121096 602
15.8999997116625 579
15.9199997112155 568
15.9399997107685 561
15.9599997103214 575
15.9799997098744 548
15.9999997094274 552
16.0199997089803 627
16.0399997085333 648
16.0599997080863 567
16.0799997076392 588
16.0999997071922 566
16.1199997067451 542
16.1399997062981 515
16.1599997058511 565
16.179999705404 595
16.199999704957 569
16.21999970451 630
16.2399997040629 581
16.2599997036159 619
16.2799997031689 593
16.2999997027218 591
16.3199997022748 589
16.3399997018278 587
16.3599997013807 629
16.3799997009337 616
16.3999997004867 579
16.4199997000396 620
16.4399996995926 631
16.4599996991456 631
16.4799996986985 623
16.4999996982515 626
16.5199996978045 636
16.5399996973574 651
16.5599996969104 653
16.5799996964633 613
16.5999996960163 607
16.6199996955693 624
16.6399996951222 597
16.6599996946752 652
16.6799996942282 595
16.6999996937811 698
16.7199996933341 678
16.7399996928871 618
16.75999969244 668
16.779999691993 719
16.799999691546 676
16.8199996910989 714
16.8399996906519 702
16.8599996902049 742
16.8799996897578 782
16.8999996893108 811
16.9199996888638 911
16.9399996884167 928
16.9599996879697 1034
16.9799996875226 1149
16.9999996870756 1173
17.0199996866286 1118
17.0399996861815 1001
17.0599996857345 879
17.0799996852875 801
17.0999996848404 654
17.1199996843934 681
17.1399996839464 690
17.1599996834993 664
17.1799996830523 657
17.1999996826053 617
17.2199996821582 629
17.2399996817112 668
17.2599996812642 655
17.2799996808171 660
17.2999996803701 667
17.3199996799231 673
17.339999679476 666
17.359999679029 673
17.379999678582 652
17.3999996781349 677
17.4199996776879 701
17.4399996772408 672
17.4599996767938 671
17.4799996763468 678
17.4999996758997 668
17.5199996754527 640
17.5399996750057 691
17.5599996745586 664
17.5799996741116 643
17.5999996736646 682
17.6199996732175 689
17.6399996727705 695
17.6599996723235 682
17.6799996718764 726
17.6999996714294 656
17.7199996709824 734
17.7399996705353 732
17.7599996700883 765
17.7799996696413 688
17.7999996691942 720
17.8199996687472 749
17.8399996683002 716
17.8599996678531 758
17.8799996674061 713
17.899999666959 718
17.919999666512 763
17.939999666065 748
17.9599996656179 716
17.9799996651709 715
17.9999996647239 731
18.0199996642768 711
18.0399996638298 721
18.0599996633828 768
18.0799996629357 762
18.0999996624887 727
18.1199996620417 731
18.1399996615946 740
18.1599996611476 771
18.1799996607006 763
18.1999996602535 797
18.2199996598065 768
18.2399996593595 737
18.2599996589124 738
18.2799996584654 786
18.2999996580184 774
18.3199996575713 754
18.3399996571243 784
18.3599996566772 779
18.3799996562302 779
18.3999996557832 807
18.4199996553361 793
18.4399996548891 778
18.4599996544421 766
18.479999653995 788
18.499999653548 806
18.519999653101 784
18.5399996526539 855
18.5599996522069 833
18.5799996517599 794
18.5999996513128 771
18.6199996508658 807
18.6399996504188 827
18.6599996499717 816
18.6799996495247 814
18.6999996490777 761
18.7199996486306 870
18.7399996481836 775
18.7599996477366 802
18.7799996472895 792
18.7999996468425 784
18.8199996463954 797
18.8399996459484 812
18.8599996455014 761
18.8799996450543 759
18.8999996446073 820
18.9199996441603 857
18.9399996437132 858
18.9599996432662 800
18.9799996428192 808
18.9999996423721 814
19.0199996419251 809
19.0399996414781 830
19.059999641031 808
19.079999640584 848
19.099999640137 870
19.1199996396899 842
19.1399996392429 822
19.1599996387959 874
19.1799996383488 829
19.1999996379018 826
19.2199996374547 817
19.2399996370077 824
19.2599996365607 837
19.2799996361136 809
19.2999996356666 831
19.3199996352196 829
19.3399996347725 823
19.3599996343255 879
19.3799996338785 827
19.3999996334314 834
19.4199996329844 820
19.4399996325374 832
19.4599996320903 869
19.4799996316433 890
19.4999996311963 896
19.5199996307492 829
19.5399996303022 855
19.5599996298552 918
19.5799996294081 884
19.5999996289611 869
19.6199996285141 892
19.639999628067 869
19.65999962762 937
19.6799996271729 929
19.6999996267259 902
19.7199996262789 950
19.7399996258318 890
19.7599996253848 937
19.7799996249378 937
19.7999996244907 915
19.8199996240437 894
19.8399996235967 976
19.8599996231496 974
19.8799996227026 1032
19.8999996222556 965
19.9199996218085 978
19.9399996213615 1045
19.9599996209145 981
19.9799996204674 1019
19.9999996200204 1007
