3 2651
3.01999999955297 2435
3.03999999910593 2324
3.0599999986589 2285
3.07999999821186 2195
3.09999999776483 2038
3.11999999731779 1973
3.13999999687076 1966
3.15999999642372 1953
3.17999999597669 1937
3.19999999552965 1922
3.21999999508262 1860
3.23999999463558 1809
3.25999999418855 1801
3.27999999374151 1862
3.29999999329448 1776
3.31999999284744 1747
3.33999999240041 1748
3.35999999195337 1734
3.37999999150634 1717
3.3999999910593 1662
3.41999999061227 1694
3.43999999016523 1685
3.4599999897182 1644
3.47999998927116 1578
3.49999998882413 1585
3.51999998837709 1516
3.53999998793006 1508
3.55999998748302 1499
3.57999998703599 1478
3.59999998658895 1477
3.61999998614192 1501
3.63999998569489 1480
3.65999998524785 1392
3.67999998480082 1470
3.69999998435378 1426
3.71999998390675 1371
3.73999998345971 1426
3.75999998301268 1391
3.77999998256564 1322
3.79999998211861 1349
3.81999998167157 1339
3.83999998122454 1251
3.8599999807775 1392
3.87999998033047 1362
3.89999997988343 1331
3.9199999794364 1273
3.93999997898936 1275
3.95999997854233 1365
3.97999997809529 1295
3.99999997764826 1318
4.01999997720122 1301
4.03999997675419 1217
4.05999997630715 1223
4.07999997586012 1242
4.09999997541308 1280
4.11999997496605 1215
4.13999997451901 1196
4.15999997407198 1189
4.17999997362494 1192
4.19999997317791 1215
4.21999997273087 1212
4.23999997228384 1221
4.25999997183681 1140
4.27999997138977 1158
4.29999997094274 1138
4.3199999704957 1167
4.33999997004867 1157
4.35999996960163 1130
4.3799999691546 1141
4.39999996870756 1140
4.41999996826053 1149
4.43999996781349 1139
4.45999996736646 1158
4.47999996691942 1185
4.49999996647239 1055
4.51999996602535 1142
4.53999996557832 1139
4.55999996513128 1112
4.57999996468425 1096
4.59999996423721 1074
4.61999996379018 1098
4.63999996334314 1060
4.65999996289611 1114
4.67999996244907 1154
4.69999996200204 1103
4.719999961555 1045
4.73999996110797 1126
4.75999996066093 1118
4.7799999602139 1149
4.79999995976686 1156
4.81999995931983 1200
4.83999995887279 1157
4.85999995842576 1134
4.87999995797873 1180
4.89999995753169 1224
4.91999995708466 1208
4.93999995663762 1188
4.95999995619059 1167
4.97999995574355 1198
4.99999995529652 1189
5.01999995484948 1223
5.03999995440245 1341
5.05999995395541 1307
5.07999995350838 1296
5.09999995306134 1353
5.11999995261431 1401
5.13999995216727 1506
5.15999995172024 1536
5.1799999512732 1613
5.19999995082617 1684
5.21999995037913 1702
5.2399999499321 1842
5.25999994948506 1895
5.27999994903803 2019
5.29999994859099 2188
5.31999994814396 2381
5.33999994769692 2511
5.35999994724989 2835
5.37999994680285 3250
5.39999994635582 3722
5.41999994590878 4143
5.43999994546175 3284
5.45999994501471 2523
5.47999994456768 1974
5.49999994412065 1843
5.51999994367361 1710
5.53999994322658 1577
5.55999994277954 1446
5.57999994233251 1420
5.59999994188547 1350
5.61999994143844 1296
5.6399999409914 1251
5.65999994054437 1310
5.67999994009733 1240
5.6999999396503 1187
5.71999993920326 1174
5.73999993875623 1188
5.75999993830919 1131
5.77999993786216 1080
5.79999993741512 1047
5.81999993696809 973
5.83999993652105 1022
5.85999993607402 985
5.87999993562698 903
5.89999993517995 955
5.91999993473291 946
5.93999993428588 956
5.95999993383884 904
5.97999993339181 899
5.99999993294477 850
6.01999993249774 905
6.0399999320507 858
6.05999993160367 885
6.07999993115663 902
6.0999999307096 886
6.11999993026257 874
6.13999992981553 845
6.1599999293685 867
6.17999992892146 863
6.19999992847443 920
6.21999992802739 850
6.23999992758036 827
6.25999992713332 807
6.27999992668629 847
6.29999992623925 826
6.31999992579222 796
6.33999992534518 862
6.35999992489815 804
6.37999992445111 847
6.39999992400408 833
6.41999992355704 818
6.43999992311001 825
6.45999992266297 786
6.47999992221594 788
6.4999999217689 800
6.51999992132187 783
6.53999992087483 777
6.5599999204278 795
6.57999991998076 784
6.59999991953373 784
6.61999991908669 788
6.63999991863966 774
6.65999991819262 754
6.67999991774559 762
6.69999991729855 785
6.71999991685152 788
6.73999991640449 716
6.75999991595745 728
6.77999991551042 748
6.79999991506338 780
6.81999991461635 727
6.83999991416931 709
6.85999991372228 698
6.87999991327524 757
6.89999991282821 739
6.91999991238117 725
6.93999991193414 721
6.9599999114871 753
6.97999991104007 703
6.99999991059303 762
7.019999910146 745
7.03999990969896 752
7.05999990925193 688
7.07999990880489 699
7.09999990835786 763
7.11999990791082 700
7.13999990746379 734
7.15999990701675 730
7.17999990656972 673
7.19999990612268 673
7.21999990567565 734
7.23999990522861 742
7.25999990478158 723
7.27999990433454 698
7.29999990388751 716
7.31999990344047 694
7.33999990299344 687
7.35999990254641 673
7.37999990209937 693
7.39999990165234 708
7.4199999012053 689
7.43999990075827 713
7.45999990031123 707
7.4799998998642 696
7.49999989941716 727
7.51999989897013 685
7.53999989852309 707
7.55999989807606 724
7.57999989762902 670
7.59999989718199 713
7.61999989673495 705
7.63999989628792 667
7.65999989584088 702
7.67999989539385 664
7.69999989494681 672
7.71999989449978 657
7.73999989405274 723
7.75999989360571 673
7.77999989315867 706
7.79999989271164 699
7.8199998922646 680
7.83999989181757 698
7.85999989137053 662
7.8799998909235 676
7.89999989047646 650
7.91999989002943 723
7.9399998895824 681
7.95999988913536 699
7.97999988868833 666
7.99999988824129 693
8.01999988779426 696
8.03999988734722 676
8.05999988690019 661
8.07999988645315 716
8.09999988600612 654
8.11999988555908 669
8.13999988511205 673
8.15999988466501 690
8.17999988421798 693
8.19999988377094 625
8.21999988332391 688
8.23999988287687 650
8.25999988242984 631
8.2799998819828 636
8.29999988153577 693
8.31999988108873 672
8.3399998806417 659
8.35999988019466 657
8.37999987974763 655
8.39999987930059 656
8.41999987885356 617
8.43999987840652 647
8.45999987795949 672
8.47999987751245 633
8.49999987706542 648
8.51999987661839 635
8.53999987617135 581
8.55999987572432 628
8.57999987527728 630
8.59999987483025 653
8.61999987438321 659
8.63999987393618 625
8.65999987348914 645
8.67999987304211 669
8.69999987259507 618
8.71999987214804 678
8.739999871701 636
8.75999987125397 635
8.77999987080693 659
8.7999998703599 651
8.81999986991286 656
8.83999986946583 690
8.85999986901879 636
8.87999986857176 662
8.89999986812472 609
8.91999986767769 655
8.93999986723065 679
8.95999986678362 743
8.97999986633658 699
8.99999986588955 670
9.01999986544251 685
9.03999986499548 704
9.05999986454844 758
9.07999986410141 706
9.09999986365438 769
9.11999986320734 803
9.13999986276031 832
9.15999986231327 803
9.17999986186624 829
9.1999998614192 838
9.21999986097217 885
9.23999986052513 921
9.2599998600781 1002
9.27999985963106 1058
9.29999985918403 1241
9.31999985873699 1370
9.33999985828996 1467
9.35999985784292 1300
9.37999985739589 1039
9.39999985694885 873
9.41999985650182 826
9.43999985605478 744
9.45999985560775 742
9.47999985516071 689
9.49999985471368 707
9.51999985426664 720
9.53999985381961 688
9.55999985337257 672
9.57999985292554 641
9.5999998524785 644
9.61999985203147 689
9.63999985158443 634
9.6599998511374 644
9.67999985069037 686
9.69999985024333 618
9.7199998497963 648
9.73999984934926 667
9.75999984890223 650
9.77999984845519 619
9.79999984800816 617
9.81999984756112 657
9.83999984711409 666
9.85999984666705 636
9.87999984622002 632
9.89999984577298 601
9.91999984532595 586
9.93999984487891 639
9.95999984443188 644
9.97999984398484 602
9.99999984353781 632
10.0199998430908 592
10.0399998426437 618
10.0599998421967 612
10.0799998417497 622
10.0999998413026 615
10.1199998408556 579
10.1399998404086 643
10.1599998399615 578
10.1799998395145 602
10.1999998390675 670
10.2199998386204 574
10.2399998381734 636
10.2599998377264 630
10.2799998372793 667
10.2999998368323 604
10.3199998363853 581
10.3399998359382 617
10.3599998354912 647
10.3799998350441 655
10.3999998345971 630
10.4199998341501 627
10.439999833703 576
10.459999833256 630
10.479999832809 646
10.4999998323619 629
10.5199998319149 635
10.5399998314679 637
10.5599998310208 651
10.5799998305738 633
10.5999998301268 658
10.6199998296797 665
10.6399998292327 717
10.6599998287857 727
10.6799998283386 776
10.6999998278916 749
10.7199998274446 797
10.7399998269975 855
10.7599998265505 926
10.7799998261034 939
10.7999998256564 898
10.8199998252094 900
10.8399998247623 837
10.8599998243153 720
10.8799998238683 720
10.8999998234212 745
10.9199998229742 683
10.9399998225272 675
10.9599998220801 679
10.9799998216331 625
10.9999998211861 680
11.019999820739 650
11.039999820292 631
11.059999819845 633
11.0799998193979 623
11.0999998189509 563
11.1199998185039 618
11.1399998180568 640
11.1599998176098 606
11.1799998171628 577
11.1999998167157 608
11.2199998162687 578
11.2399998158216 571
11.2599998153746 562
11.2799998149276 587
11.2999998144805 560
11.3199998140335 584
11.3399998135865 599
11.3599998131394 624
11.3799998126924 604
11.3999998122454 633
11.4199998117983 645
11.4399998113513 626
11.4599998109043 636
11.4799998104572 601
11.4999998100102 551
11.5199998095632 620
11.5399998091161 577
11.5599998086691 615
11.5799998082221 582
11.599999807775 633
11.619999807328 561
11.639999806881 593
11.6599998064339 548
11.6799998059869 564
11.6999998055398 583
11.7199998050928 624
11.7399998046458 559
11.7599998041987 557
11.7799998037517 575
11.7999998033047 574
11.8199998028576 612
11.8399998024106 639
11.8599998019636 558
11.8799998015165 551
11.8999998010695 635
11.9199998006225 580
11.9399998001754 587
11.9599997997284 622
11.9799997992814 580
11.9999997988343 630
12.0199997983873 564
12.0399997979403 589
12.0599997974932 613
12.0799997970462 632
12.0999997965992 600
12.1199997961521 570
12.1399997957051 628
12.159999795258 647
12.179999794811 636
12.199999794364 643
12.2199997939169 712
12.2399997934699 721
12.2599997930229 693
12.2799997925758 708
12.2999997921288 716
12.3199997916818 657
12.3399997912347 681
12.3599997907877 630
12.3799997903407 615
12.3999997898936 660
12.4199997894466 599
12.4399997889996 581
12.4599997885525 576
12.4799997881055 613
12.4999997876585 582
12.5199997872114 568
12.5399997867644 562
12.5599997863173 558
12.5799997858703 573
12.5999997854233 586
12.6199997849762 590
12.6399997845292 604
12.6599997840822 591
12.6799997836351 611
12.6999997831881 579
12.7199997827411 596
12.739999782294 684
12.759999781847 570
12.7799997814 617
12.7999997809529 562
12.8199997805059 588
12.8399997800589 595
12.8599997796118 617
12.8799997791648 648
12.8999997787178 562
12.9199997782707 580
12.9399997778237 629
12.9599997773767 575
12.9799997769296 608
12.9999997764826 630
13.0199997760355 607
13.0399997755885 642
13.0599997751415 619
13.0799997746944 595
13.0999997742474 621
13.1199997738004 603
13.1399997733533 606
13.1599997729063 634
13.1799997724593 626
13.1999997720122 606
13.2199997715652 606
13.2399997711182 585
13.2599997706711 642
13.2799997702241 656
13.2999997697771 672
13.31999976933 611
13.339999768883 623
13.359999768436 602
13.3799997679889 608
13.3999997675419 593
13.4199997670949 620
13.4399997666478 612
13.4599997662008 597
13.4799997657537 608
13.4999997653067 610
13.5199997648597 618
13.5399997644126 581
13.5599997639656 585
13.5799997635186 605
13.5999997630715 631
13.6199997626245 582
13.6399997621775 607
13.6599997617304 642
13.6799997612834 635
13.6999997608364 641
13.7199997603893 631
13.7399997599423 586
13.7599997594953 590
13.7799997590482 604
13.7999997586012 601
13.8199997581542 647
13.8399997577071 622
13.8599997572601 621
13.879999756813 587
13.899999756366 616
13.919999755919 637
13.9399997554719 631
13.9599997550249 600
13.9799997545779 623
13.9999997541308 629
14.0199997536838 620
14.0399997532368 607
14.0599997527897 611
14.0799997523427 596
14.0999997518957 604
14.1199997514486 657
14.1399997510016 606
14.1599997505546 616
14.1799997501075 647
14.1999997496605 710
14.2199997492135 696
14.2399997487664 682
14.2599997483194 651
14.2799997478724 608
14.2999997474253 658
14.3199997469783 625
14.3399997465312 654
14.3599997460842 644
14.3799997456372 659
14.3999997451901 596
14.4199997447431 604
14.4399997442961 671
14.459999743849 626
14.479999743402 605
14.499999742955 596
14.5199997425079 618
14.5399997420609 623
14.5599997416139 633
14.5799997411668 570
14.5999997407198 665
14.6199997402728 651
14.6399997398257 615
14.6599997393787 583
14.6799997389317 596
14.6999997384846 664
14.7199997380376 638
14.7399997375906 609
14.7599997371435 643
14.7799997366965 624
14.7999997362494 635
14.8199997358024 670
14.8399997353554 646
14.8599997349083 676
14.8799997344613 642
14.8999997340143 644
14.9199997335672 657
14.9399997331202 642
14.9599997326732 636
14.9799997322261 677
14.9999997317791 613
15.0199997313321 585
15.039999730885 613
15.059999730438 613
15.079999729991 675
15.0999997295439 659
15.1199997290969 651
15.1399997286499 689
15.1599997282028 662
15.1799997277558 628
15.1999997273088 642
15.2199997268617 625
15.2399997264147 628
15.2599997259676 658
15.2799997255206 697
15.2999997250736 667
15.3199997246265 636
15.3399997241795 698
15.3599997237325 674
15.3799997232854 645
15.3999997228384 701
15.4199997223914 662
15.4399997219443 629
15.4599997214973 638
15.4799997210503 619
15.4999997206032 680
15.5199997201562 641
15.5399997197092 697
15.5599997192621 636
15.5799997188151 659
15.5999997183681 658
15.619999717921 668
15.639999717474 666
15.659999717027 681
15.6799997165799 672
15.6999997161329 673
15.7199997156858 710
15.7399997152388 694
15.7599997147918 648
15.7799997143447 686
15.7999997138977 701
15.8199997134507 689
15.8399997130036 695
15.8599997125566 707
15.8799997121096 703
15.8999997116625 674
15.9199997112155 677
15.9399997107685 696
15.9599997103214 695
15.9799997098744 703
15.9999997094274 722
16.0199997089803 719
16.0399997085333 700
16.0599997080863 732
16.0799997076392 696
16.0999997071922 689
16.1199997067451 708
16.1399997062981 680
16.1599997058511 759
16.179999705404 752
16.199999704957 722
16.21999970451 696
16.2399997040629 749
16.2599997036159 724
16.2799997031689 733
16.2999997027218 704
16.3199997022748 720
16.3399997018278 698
16.3599997013807 758
16.3799997009337 730
16.3999997004867 752
16.4199997000396 726
16.4399996995926 785
16.4599996991456 734
16.4799996986985 776
16.4999996982515 827
16.5199996978045 732
16.5399996973574 760
16.5599996969104 783
16.5799996964633 742
16.5999996960163 835
16.6199996955693 781
16.6399996951222 781
16.6599996946752 814
16.6799996942282 784
16.6999996937811 833
16.7199996933341 817
16.7399996928871 781
16.75999969244 841
16.779999691993 846
16.799999691546 888
16.8199996910989 895
16.8399996906519 949
16.8599996902049 952
16.8799996897578 1003
16.8999996893108 1027
16.9199996888638 1148
16.9399996884167 1195
16.9599996879697 1359
16.9799996875226 1508
16.9999996870756 1547
17.0199996866286 1408
17.0399996861815 1239
17.0599996857345 1109
17.0799996852875 972
17.0999996848404 921
17.1199996843934 901
17.1399996839464 856
17.1599996834993 856
17.1799996830523 848
17.1999996826053 884
17.2199996821582 823
17.2399996817112 844
17.2599996812642 861
17.2799996808171 799
17.2999996803701 824
17.3199996799231 848
17.339999679476 850
17.359999679029 836
17.379999678582 887
17.3999996781349 851
17.4199996776879 852
17.4399996772408 881
17.4599996767938 877
17.4799996763468 853
17.4999996758997 855
17.5199996754527 869
17.5399996750057 819
17.5599996745586 826
17.5799996741116 826
17.5999996736646 835
17.6199996732175 832
17.6399996727705 875
17.6599996723235 810
17.6799996718764 876
17.6999996714294 891
17.7199996709824 835
17.7399996705353 859
17.7599996700883 842
17.7799996696413 846
17.7999996691942 802
17.8199996687472 903
17.8399996683002 854
17.8599996678531 840
17.8799996674061 825
17.899999666959 885
17.919999666512 891
17.939999666065 894
17.9599996656179 869
17.9799996651709 868
17.9999996647239 864
18.0199996642768 855
18.0399996638298 861
18.0599996633828 855
18.0799996629357 873
18.0999996624887 839
18.1199996620417 863
18.1399996615946 864
18.1599996611476 909
18.1799996607006 876
18.1999996602535 877
18.2199996598065 916
18.2399996593595 871
18.2599996589124 877
18.2799996584654 940
18.2999996580184 962
18.3199996575713 921
18.3399996571243 952
18.3599996566772 901
18.3799996562302 921
18.3999996557832 929
18.4199996553361 910
18.4399996548891 952
18.4599996544421 956
18.479999653995 920
18.499999653548 913
18.519999653101 923
18.5399996526539 930
18.5599996522069 944
18.5799996517599 1001
18.5999996513128 924
18.6199996508658 993
18.6399996504188 964
18.6599996499717 964
18.6799996495247 976
18.6999996490777 1023
18.7199996486306 934
18.7399996481836 981
18.7599996477366 948
18.7799996472895 1017
18.7999996468425 978
18.8199996463954 990
18.8399996459484 986
18.8599996455014 987
18.8799996450543 1006
18.8999996446073 1010
18.9199996441603 1009
18.9399996437132 973
18.9599996432662 981
18.9799996428192 1021
18.9999996423721 982
19.0199996419251 1030
19.0399996414781 974
19.059999641031 965
19.079999640584 1021
19.099999640137 985
19.1199996396899 991
19.1399996392429 986
19.1599996387959 1021
19.1799996383488 992
19.1999996379018 987
19.2199996374547 1027
19.2399996370077 1014
19.2599996365607 1031
19.2799996361136 995
19.2999996356666 1051
19.3199996352196 1100
19.3399996347725 1057
19.3599996343255 1094
19.3799996338785 1179
19.3999996334314 1151
19.4199996329844 1139
19.4399996325374 1150
19.4599996320903 1225
19.4799996316433 1115
19.4999996311963 1158
19.5199996307492 1147
19.5399996303022 1148
19.5599996298552 1144
19.5799996294081 1037
19.5999996289611 1055
19.6199996285141 1113
19.639999628067 1168
19.65999962762 1048
19.6799996271729 1083
19.6999996267259 1043
19.7199996262789 1115
19.7399996258318 1082
19.7599996253848 1070
19.7799996249378 1112
19.7999996244907 1087
19.8199996240437 1104
19.8399996235967 1082
19.8599996231496 1146
19.8799996227026 1081
19.8999996222556 1124
19.9199996218085 1077
19.9399996213615 1123
19.9599996209145 1041
19.9799996204674 1059
19.9999996200204 1096
