3 2816
3.01999999955297 2642
3.03999999910593 2485
3.0599999986589 2289
3.07999999821186 2282
3.09999999776483 2135
3.11999999731779 2152
3.13999999687076 2080
3.15999999642372 2113
3.17999999597669 2053
3.19999999552965 1945
3.21999999508262 1903
3.23999999463558 1900
3.25999999418855 1955
3.27999999374151 1856
3.29999999329448 1912
3.31999999284744 1966
3.33999999240041 1885
3.35999999195337 1865
3.37999999150634 1921
3.3999999910593 1808
3.41999999061227 1845
3.43999999016523 1886
3.4599999897182 1782
3.47999998927116 1805
3.49999998882413 1812
3.51999998837709 1733
3.53999998793006 1705
3.55999998748302 1715
3.57999998703599 1740
3.59999998658895 1719
3.61999998614192 1766
3.63999998569489 1674
3.65999998524785 1666
3.67999998480082 1727
3.69999998435378 1629
3.71999998390675 1631
3.73999998345971 1703
3.75999998301268 1639
3.77999998256564 1643
3.79999998211861 1669
3.81999998167157 1674
3.83999998122454 1654
3.8599999807775 1625
3.87999998033047 1679
3.89999997988343 1705
3.9199999794364 1666
3.93999997898936 1676
3.95999997854233 1702
3.97999997809529 1665
3.99999997764826 1745
4.01999997720122 1706
4.03999997675419 1763
4.05999997630715 1706
4.07999997586012 1692
4.09999997541308 1800
4.11999997496605 1814
4.13999997451901 1724
4.15999997407198 1656
4.17999997362494 1712
4.19999997317791 1574
4.21999997273087 1572
4.23999997228384 1580
4.25999997183681 1468
4.27999997138977 1512
4.29999997094274 1535
4.3199999704957 1490
4.33999997004867 1524
4.35999996960163 1445
4.3799999691546 1438
4.39999996870756 1449
4.41999996826053 1435
4.43999996781349 1359
4.45999996736646 1344
4.47999996691942 1406
4.49999996647239 1421
4.51999996602535 1437
4.53999996557832 1403
4.55999996513128 1381
4.57999996468425 1410
4.59999996423721 1410
4.61999996379018 1393
4.63999996334314 1376
4.65999996289611 1336
4.67999996244907 1431
4.69999996200204 1383
4.719999961555 1407
4.73999996110797 1366
4.75999996066093 1371
4.7799999602139 1405
4.79999995976686 1416
4.81999995931983 1422
4.83999995887279 1317
4.85999995842576 1378
4.87999995797873 1382
4.89999995753169 1459
4.91999995708466 1406
4.93999995663762 1437
4.95999995619059 1430
4.97999995574355 1439
4.99999995529652 1428
5.01999995484948 1383
5.03999995440245 1487
5.05999995395541 1470
5.07999995350838 1485
5.09999995306134 1443
5.11999995261431 1435
5.13999995216727 1507
5.15999995172024 1574
5.1799999512732 1620
5.19999995082617 1562
5.21999995037913 1628
5.2399999499321 1716
5.25999994948506 1700
5.27999994903803 1789
5.29999994859099 1792
5.31999994814396 1920
5.33999994769692 2064
5.35999994724989 2175
5.37999994680285 2339
5.39999994635582 2384
5.41999994590878 2186
5.43999994546175 1983
5.45999994501471 1820
5.47999994456768 1699
5.49999994412065 1626
5.51999994367361 1654
5.53999994322658 1699
5.55999994277954 1644
5.57999994233251 1657
5.59999994188547 1733
5.61999994143844 1676
5.6399999409914 1732
5.65999994054437 1885
5.67999994009733 1931
5.6999999396503 2055
5.71999993920326 2135
5.73999993875623 2319
5.75999993830919 2282
5.77999993786216 2163
5.79999993741512 1810
5.81999993696809 1595
5.83999993652105 1319
5.85999993607402 1274
5.87999993562698 1183
5.89999993517995 1130
5.91999993473291 1145
5.93999993428588 1154
5.95999993383884 1123
5.97999993339181 1022
5.99999993294477 1073
6.01999993249774 1049
6.0399999320507 1013
6.05999993160367 1034
6.07999993115663 1020
6.0999999307096 1090
6.11999993026257 1024
6.13999992981553 1006
6.1599999293685 978
6.17999992892146 1039
6.19999992847443 1037
6.21999992802739 1001
6.23999992758036 897
6.25999992713332 947
6.27999992668629 907
6.29999992623925 935
6.31999992579222 953
6.33999992534518 945
6.35999992489815 961
6.37999992445111 959
6.39999992400408 909
6.41999992355704 951
6.43999992311001 978
6.45999992266297 951
6.47999992221594 941
6.4999999217689 925
6.51999992132187 939
6.53999992087483 948
6.5599999204278 959
6.57999991998076 911
6.59999991953373 1022
6.61999991908669 990
6.63999991863966 1008
6.65999991819262 1014
6.67999991774559 989
6.69999991729855 995
6.71999991685152 1055
6.73999991640449 1036
6.75999991595745 1020
6.77999991551042 954
6.79999991506338 911
6.81999991461635 960
6.83999991416931 891
6.85999991372228 880
6.87999991327524 867
6.89999991282821 932
6.91999991238117 916
6.93999991193414 893
6.9599999114871 890
6.97999991104007 820
6.99999991059303 844
7.019999910146 844
7.03999990969896 885
7.05999990925193 838
7.07999990880489 835
7.09999990835786 764
7.11999990791082 885
7.13999990746379 896
7.15999990701675 837
7.17999990656972 880
7.19999990612268 800
7.21999990567565 836
7.23999990522861 825
7.25999990478158 825
7.27999990433454 837
7.29999990388751 836
7.31999990344047 791
7.33999990299344 814
7.35999990254641 802
7.37999990209937 807
7.39999990165234 749
7.4199999012053 819
7.43999990075827 812
7.45999990031123 782
7.4799998998642 777
7.49999989941716 751
7.51999989897013 794
7.53999989852309 764
7.55999989807606 785
7.57999989762902 751
7.59999989718199 802
7.61999989673495 838
7.63999989628792 793
7.65999989584088 780
7.67999989539385 806
7.69999989494681 767
7.71999989449978 804
7.73999989405274 819
7.75999989360571 776
7.77999989315867 728
7.79999989271164 746
7.8199998922646 754
7.83999989181757 762
7.85999989137053 819
7.8799998909235 751
7.89999989047646 747
7.91999989002943 743
7.9399998895824 754
7.95999988913536 762
7.97999988868833 796
7.99999988824129 745
8.01999988779426 758
8.03999988734722 788
8.05999988690019 738
8.07999988645315 787
8.09999988600612 730
8.11999988555908 750
8.13999988511205 760
8.15999988466501 784
8.17999988421798 761
8.19999988377094 731
8.21999988332391 707
8.23999988287687 772
8.25999988242984 722
8.2799998819828 737
8.29999988153577 735
8.31999988108873 750
8.3399998806417 676
8.35999988019466 724
8.37999987974763 734
8.39999987930059 725
8.41999987885356 727
8.43999987840652 724
8.45999987795949 686
8.47999987751245 707
8.49999987706542 743
8.51999987661839 675
8.53999987617135 682
8.55999987572432 679
8.57999987527728 712
8.59999987483025 715
8.61999987438321 708
8.63999987393618 680
8.65999987348914 714
8.67999987304211 737
8.69999987259507 678
8.71999987214804 709
8.739999871701 667
8.75999987125397 701
8.77999987080693 756
8.7999998703599 698
8.81999986991286 700
8.83999986946583 707
8.85999986901879 714
8.87999986857176 714
8.89999986812472 710
8.91999986767769 666
8.93999986723065 703
8.95999986678362 763
8.97999986633658 718
8.99999986588955 650
9.01999986544251 727
9.03999986499548 684
9.05999986454844 728
9.07999986410141 704
9.09999986365438 749
9.11999986320734 753
9.13999986276031 751
9.15999986231327 790
9.17999986186624 820
9.1999998614192 820
9.21999986097217 861
9.23999986052513 915
9.2599998600781 925
9.27999985963106 1014
9.29999985918403 1124
9.31999985873699 1175
9.33999985828996 1159
9.35999985784292 866
9.37999985739589 786
9.39999985694885 742
9.41999985650182 692
9.43999985605478 684
9.45999985560775 644
9.47999985516071 684
9.49999985471368 667
9.51999985426664 633
9.53999985381961 656
9.55999985337257 675
9.57999985292554 620
9.5999998524785 592
9.61999985203147 676
9.63999985158443 625
9.6599998511374 622
9.67999985069037 659
9.69999985024333 638
9.7199998497963 664
9.73999984934926 691
9.75999984890223 673
9.77999984845519 677
9.79999984800816 625
9.81999984756112 629
9.83999984711409 640
9.85999984666705 659
9.87999984622002 656
9.89999984577298 633
9.91999984532595 627
9.93999984487891 625
9.95999984443188 589
9.97999984398484 653
9.99999984353781 652
10.0199998430908 656
10.0399998426437 650
10.0599998421967 649
10.0799998417497 626
10.0999998413026 716
10.1199998408556 671
10.1399998404086 689
10.1599998399615 696
10.1799998395145 732
10.1999998390675 676
10.2199998386204 694
10.2399998381734 664
10.2599998377264 604
10.2799998372793 673
10.2999998368323 674
10.3199998363853 635
10.3399998359382 603
10.3599998354912 604
10.3799998350441 611
10.3999998345971 622
10.4199998341501 636
10.439999833703 634
10.459999833256 603
10.479999832809 587
10.4999998323619 631
10.5199998319149 595
10.5399998314679 587
10.5599998310208 600
10.5799998305738 613
10.5999998301268 665
10.6199998296797 633
10.6399998292327 648
10.6599998287857 645
10.6799998283386 703
10.6999998278916 706
10.7199998274446 711
10.7399998269975 761
10.7599998265505 794
10.7799998261034 768
10.7999998256564 753
10.8199998252094 674
10.8399998247623 722
10.8599998243153 701
10.8799998238683 709
10.8999998234212 732
10.9199998229742 779
10.9399998225272 849
10.9599998220801 809
10.9799998216331 770
10.9999998211861 616
11.019999820739 605
11.039999820292 611
11.059999819845 592
11.0799998193979 614
11.0999998189509 620
11.1199998185039 598
11.1399998180568 597
11.1599998176098 555
11.1799998171628 565
11.1999998167157 561
11.2199998162687 609
11.2399998158216 580
11.2599998153746 574
11.2799998149276 529
11.2999998144805 563
11.3199998140335 581
11.3399998135865 582
11.3599998131394 587
11.3799998126924 598
11.3999998122454 564
11.4199998117983 601
11.4399998113513 619
11.4599998109043 626
11.4799998104572 716
11.4999998100102 670
11.5199998095632 632
11.5399998091161 653
11.5599998086691 615
11.5799998082221 638
11.599999807775 602
11.619999807328 555
11.639999806881 556
11.6599998064339 568
11.6799998059869 534
11.6999998055398 552
11.7199998050928 563
11.7399998046458 571
11.7599998041987 568
11.7799998037517 548
11.7999998033047 555
11.8199998028576 557
11.8399998024106 561
11.8599998019636 533
11.8799998015165 557
11.8999998010695 596
11.9199998006225 594
11.9399998001754 520
11.9599997997284 557
11.9799997992814 558
11.9999997988343 575
12.0199997983873 563
12.0399997979403 558
12.0599997974932 561
12.0799997970462 519
12.0999997965992 601
12.1199997961521 589
12.1399997957051 571
12.159999795258 608
12.179999794811 616
12.199999794364 612
12.2199997939169 601
12.2399997934699 633
12.2599997930229 608
12.2799997925758 568
12.2999997921288 579
12.3199997916818 585
12.3399997912347 593
12.3599997907877 568
12.3799997903407 583
12.3999997898936 540
12.4199997894466 576
12.4399997889996 546
12.4599997885525 557
12.4799997881055 571
12.4999997876585 556
12.5199997872114 579
12.5399997867644 542
12.5599997863173 542
12.5799997858703 570
12.5999997854233 567
12.6199997849762 549
12.6399997845292 538
12.6599997840822 540
12.6799997836351 545
12.6999997831881 549
12.7199997827411 569
12.739999782294 577
12.759999781847 556
12.7799997814 528
12.7999997809529 547
12.8199997805059 571
12.8399997800589 526
12.8599997796118 556
12.8799997791648 575
12.8999997787178 583
12.9199997782707 588
12.9399997778237 581
12.9599997773767 546
12.9799997769296 537
12.9999997764826 552
13.0199997760355 546
13.0399997755885 545
13.0599997751415 558
13.0799997746944 527
13.0999997742474 556
13.1199997738004 542
13.1399997733533 539
13.1599997729063 529
13.1799997724593 564
13.1999997720122 529
13.2199997715652 537
13.2399997711182 560
13.2599997706711 589
13.2799997702241 563
13.2999997697771 595
13.31999976933 581
13.339999768883 543
13.359999768436 539
13.3799997679889 546
13.3999997675419 554
13.4199997670949 576
13.4399997666478 543
13.4599997662008 555
13.4799997657537 593
13.4999997653067 561
13.5199997648597 548
13.5399997644126 583
13.5599997639656 546
13.5799997635186 543
13.5999997630715 560
13.6199997626245 520
13.6399997621775 554
13.6599997617304 565
13.6799997612834 581
13.6999997608364 566
13.7199997603893 562
13.7399997599423 544
13.7599997594953 548
13.7799997590482 600
13.7999997586012 573
13.8199997581542 543
13.8399997577071 534
13.8599997572601 545
13.879999756813 540
13.899999756366 521
13.919999755919 573
13.9399997554719 548
13.9599997550249 519
13.9799997545779 575
13.9999997541308 582
14.0199997536838 555
14.0399997532368 592
14.0599997527897 532
14.0799997523427 570
14.0999997518957 604
14.1199997514486 554
14.1399997510016 575
14.1599997505546 569
14.1799997501075 573
14.1999997496605 544
14.2199997492135 618
14.2399997487664 594
14.2599997483194 604
14.2799997478724 594
14.2999997474253 597
14.3199997469783 592
14.3399997465312 582
14.3599997460842 567
14.3799997456372 608
14.3999997451901 608
14.4199997447431 552
14.4399997442961 588
14.459999743849 544
14.479999743402 570
14.499999742955 561
14.5199997425079 558
14.5399997420609 570
14.5599997416139 547
14.5799997411668 615
14.5999997407198 601
14.6199997402728 585
14.6399997398257 600
14.6599997393787 609
14.6799997389317 587
14.6999997384846 616
14.7199997380376 600
14.7399997375906 601
14.7599997371435 608
14.7799997366965 561
14.7999997362494 602
14.8199997358024 633
14.8399997353554 580
14.8599997349083 633
14.8799997344613 656
14.8999997340143 592
14.9199997335672 604
14.9399997331202 592
14.9599997326732 545
14.9799997322261 549
14.9999997317791 618
15.0199997313321 595
15.039999730885 567
15.059999730438 592
15.079999729991 573
15.0999997295439 605
15.1199997290969 570
15.1399997286499 613
15.1599997282028 584
15.1799997277558 581
15.1999997273088 581
15.2199997268617 580
15.2399997264147 622
15.2599997259676 631
15.2799997255206 622
15.2999997250736 620
15.3199997246265 595
15.3399997241795 609
15.3599997237325 607
15.3799997232854 554
15.3999997228384 593
15.4199997223914 571
15.4399997219443 609
15.4599997214973 621
15.4799997210503 608
15.4999997206032 586
15.5199997201562 591
15.5399997197092 601
15.5599997192621 606
15.5799997188151 584
15.5999997183681 607
15.619999717921 599
15.639999717474 625
15.659999717027 585
15.6799997165799 597
15.6999997161329 622
15.7199997156858 568
15.7399997152388 611
15.7599997147918 610
15.7799997143447 585
15.7999997138977 585
15.8199997134507 587
15.8399997130036 606
15.8599997125566 592
15.8799997121096 633
15.8999997116625 634
15.9199997112155 596
15.9399997107685 607
15.9599997103214 642
15.9799997098744 609
15.9999997094274 603
16.0199997089803 610
16.0399997085333 621
16.0599997080863 586
16.0799997076392 667
16.0999997071922 663
16.1199997067451 635
16.1399997062981 611
16.1599997058511 627
16.179999705404 609
16.199999704957 626
16.21999970451 611
16.2399997040629 627
16.2599997036159 615
16.2799997031689 621
16.2999997027218 653
16.3199997022748 634
16.3399997018278 563
16.3599997013807 625
16.3799997009337 622
16.3999997004867 593
16.4199997000396 640
16.4399996995926 632
16.4599996991456 651
16.4799996986985 680
16.4999996982515 623
16.5199996978045 632
16.5399996973574 626
16.5599996969104 599
16.5799996964633 652
16.5999996960163 640
16.6199996955693 632
16.6399996951222 617
16.6599996946752 631
16.6799996942282 697
16.6999996937811 617
16.7199996933341 656
16.7399996928871 686
16.75999969244 628
16.779999691993 623
16.799999691546 613
16.8199996910989 683
16.8399996906519 687
16.8599996902049 627
16.8799996897578 633
16.8999996893108 629
16.9199996888638 663
16.9399996884167 632
16.9599996879697 645
16.9799996875226 649
16.9999996870756 653
17.0199996866286 649
17.0399996861815 625
17.0599996857345 625
17.0799996852875 666
17.0999996848404 668
17.1199996843934 676
17.1399996839464 661
17.1599996834993 714
17.1799996830523 720
17.1999996826053 626
17.2199996821582 675
17.2399996817112 674
17.2599996812642 696
17.2799996808171 697
17.2999996803701 697
17.3199996799231 650
17.339999679476 664
17.359999679029 694
17.379999678582 649
17.3999996781349 696
17.4199996776879 706
17.4399996772408 677
17.4599996767938 698
17.4799996763468 685
17.4999996758997 693
17.5199996754527 778
17.5399996750057 682
17.5599996745586 715
17.5799996741116 684
17.5999996736646 655
17.6199996732175 690
17.6399996727705 659
17.6599996723235 667
17.6799996718764 698
17.6999996714294 700
17.7199996709824 686
17.7399996705353 710
17.7599996700883 741
17.7799996696413 697
17.7999996691942 715
17.8199996687472 695
17.8399996683002 726
17.8599996678531 709
17.8799996674061 713
17.899999666959 709
17.919999666512 747
17.939999666065 698
17.9599996656179 671
17.9799996651709 677
17.9999996647239 747
18.0199996642768 725
18.0399996638298 705
18.0599996633828 674
18.0799996629357 716
18.0999996624887 742
18.1199996620417 722
18.1399996615946 718
18.1599996611476 715
18.1799996607006 753
18.1999996602535 735
18.2199996598065 729
18.2399996593595 740
18.2599996589124 753
18.2799996584654 693
18.2999996580184 769
18.3199996575713 725
18.3399996571243 732
18.3599996566772 699
18.3799996562302 735
18.3999996557832 718
18.4199996553361 743
18.4399996548891 753
18.4599996544421 801
18.479999653995 735
18.499999653548 738
18.519999653101 744
18.5399996526539 785
18.5599996522069 793
18.5799996517599 768
18.5999996513128 750
18.6199996508658 768
18.6399996504188 815
18.6599996499717 751
18.6799996495247 786
18.6999996490777 821
18.7199996486306 832
18.7399996481836 786
18.7599996477366 774
18.7799996472895 758
18.7999996468425 796
18.8199996463954 778
18.8399996459484 794
18.8599996455014 758
18.8799996450543 755
18.8999996446073 765
18.9199996441603 825
18.9399996437132 800
18.9599996432662 818
18.9799996428192 803
18.9999996423721 782
19.0199996419251 839
19.0399996414781 841
19.059999641031 814
19.079999640584 870
19.099999640137 870
19.1199996396899 865
19.1399996392429 822
19.1599996387959 831
19.1799996383488 853
19.1999996379018 839
19.2199996374547 855
19.2399996370077 831
19.2599996365607 756
19.2799996361136 815
19.2999996356666 821
19.3199996352196 858
19.3399996347725 853
19.3599996343255 860
19.3799996338785 871
19.3999996334314 906
19.4199996329844 922
19.4399996325374 886
19.4599996320903 926
19.4799996316433 901
19.4999996311963 947
19.5199996307492 970
19.5399996303022 935
19.5599996298552 940
19.5799996294081 851
19.5999996289611 895
19.6199996285141 840
19.639999628067 905
19.65999962762 908
19.6799996271729 799
19.6999996267259 803
19.7199996262789 867
19.7399996258318 819
19.7599996253848 863
19.7799996249378 850
19.7999996244907 894
19.8199996240437 872
19.8399996235967 897
19.8599996231496 906
19.8799996227026 878
19.8999996222556 924
19.9199996218085 883
19.9399996213615 868
19.9599996209145 879
19.9799996204674 883
19.9999996200204 880
