3 2552
3.01999999955297 2344
3.03999999910593 2279
3.0599999986589 2091
3.07999999821186 2027
3.09999999776483 1887
3.11999999731779 1839
3.13999999687076 1860
3.15999999642372 1804
3.17999999597669 1771
3.19999999552965 1704
3.21999999508262 1689
3.23999999463558 1680
3.25999999418855 1674
3.27999999374151 1650
3.29999999329448 1622
3.31999999284744 1603
3.33999999240041 1600
3.35999999195337 1569
3.37999999150634 1537
3.3999999910593 1507
3.41999999061227 1499
3.43999999016523 1496
3.4599999897182 1415
3.47999998927116 1426
3.49999998882413 1423
3.51999998837709 1401
3.53999998793006 1431
3.55999998748302 1382
3.57999998703599 1339
3.59999998658895 1324
3.61999998614192 1280
3.63999998569489 1294
3.65999998524785 1251
3.67999998480082 1271
3.69999998435378 1270
3.71999998390675 1230
3.73999998345971 1263
3.75999998301268 1250
3.77999998256564 1260
3.79999998211861 1184
3.81999998167157 1118
3.83999998122454 1143
3.8599999807775 1198
3.87999998033047 1157
3.89999997988343 1136
3.9199999794364 1110
3.93999997898936 1093
3.95999997854233 1166
3.97999997809529 1069
3.99999997764826 1043
4.01999997720122 1061
4.03999997675419 1006
4.05999997630715 1017
4.07999997586012 982
4.09999997541308 969
4.11999997496605 1032
4.13999997451901 987
4.15999997407198 978
4.17999997362494 995
4.19999997317791 988
4.21999997273087 940
4.23999997228384 918
4.25999997183681 891
4.27999997138977 971
4.29999997094274 928
4.3199999704957 874
4.33999997004867 894
4.35999996960163 907
4.3799999691546 939
4.39999996870756 959
4.41999996826053 907
4.43999996781349 885
4.45999996736646 833
4.47999996691942 878
4.49999996647239 817
4.51999996602535 821
4.53999996557832 879
4.55999996513128 827
4.57999996468425 812
4.59999996423721 794
4.61999996379018 830
4.63999996334314 823
4.65999996289611 792
4.67999996244907 810
4.69999996200204 776
4.719999961555 792
4.73999996110797 767
4.75999996066093 785
4.7799999602139 750
4.79999995976686 764
4.81999995931983 825
4.83999995887279 768
4.85999995842576 772
4.87999995797873 787
4.89999995753169 766
4.91999995708466 741
4.93999995663762 764
4.95999995619059 738
4.97999995574355 722
4.99999995529652 692
5.01999995484948 726
5.03999995440245 705
5.05999995395541 683
5.07999995350838 697
5.09999995306134 672
5.11999995261431 676
5.13999995216727 746
5.15999995172024 721
5.1799999512732 689
5.19999995082617 645
5.21999995037913 706
5.2399999499321 686
5.25999994948506 667
5.27999994903803 711
5.29999994859099 692
5.31999994814396 695
5.33999994769692 704
5.35999994724989 648
5.37999994680285 666
5.39999994635582 688
5.41999994590878 690
5.43999994546175 699
5.45999994501471 691
5.47999994456768 633
5.49999994412065 680
5.51999994367361 667
5.53999994322658 698
5.55999994277954 674
5.57999994233251 640
5.59999994188547 677
5.61999994143844 655
5.6399999409914 674
5.65999994054437 683
5.67999994009733 626
5.6999999396503 695
5.71999993920326 701
5.73999993875623 608
5.75999993830919 616
5.77999993786216 628
5.79999993741512 602
5.81999993696809 678
5.83999993652105 647
5.85999993607402 641
5.87999993562698 674
5.89999993517995 623
5.91999993473291 629
5.93999993428588 651
5.95999993383884 598
5.97999993339181 614
5.99999993294477 652
6.01999993249774 603
6.0399999320507 627
6.05999993160367 650
6.07999993115663 714
6.0999999307096 639
6.11999993026257 648
6.13999992981553 647
6.1599999293685 641
6.17999992892146 591
6.19999992847443 635
6.21999992802739 649
6.23999992758036 605
6.25999992713332 626
6.27999992668629 609
6.29999992623925 635
6.31999992579222 628
6.33999992534518 648
6.35999992489815 602
6.37999992445111 579
6.39999992400408 625
6.41999992355704 625
6.43999992311001 630
6.45999992266297 618
6.47999992221594 594
6.4999999217689 640
6.51999992132187 621
6.53999992087483 639
6.5599999204278 635
6.57999991998076 623
6.59999991953373 587
6.61999991908669 605
6.63999991863966 635
6.65999991819262 611
6.67999991774559 648
6.69999991729855 575
6.71999991685152 611
6.73999991640449 575
6.75999991595745 634
6.77999991551042 643
6.79999991506338 647
6.81999991461635 641
6.83999991416931 607
6.85999991372228 595
6.87999991327524 596
6.89999991282821 566
6.91999991238117 622
6.93999991193414 600
6.9599999114871 597
6.97999991104007 551
6.99999991059303 576
7.019999910146 594
7.03999990969896 625
7.05999990925193 598
7.07999990880489 579
7.09999990835786 550
7.11999990791082 598
7.13999990746379 589
7.15999990701675 577
7.17999990656972 584
7.19999990612268 584
7.21999990567565 565
7.23999990522861 595
7.25999990478158 611
7.27999990433454 590
7.29999990388751 581
7.31999990344047 566
7.33999990299344 544
7.35999990254641 602
7.37999990209937 616
7.39999990165234 560
7.4199999012053 585
7.43999990075827 624
7.45999990031123 584
7.4799998998642 530
7.49999989941716 585
7.51999989897013 583
7.53999989852309 601
7.55999989807606 508
7.57999989762902 619
7.59999989718199 600
7.61999989673495 619
7.63999989628792 580
7.65999989584088 601
7.67999989539385 648
7.69999989494681 579
7.71999989449978 599
7.73999989405274 622
7.75999989360571 573
7.77999989315867 614
7.79999989271164 592
7.8199998922646 601
7.83999989181757 575
7.85999989137053 585
7.8799998909235 630
7.89999989047646 599
7.91999989002943 606
7.9399998895824 561
7.95999988913536 604
7.97999988868833 565
7.99999988824129 614
8.01999988779426 561
8.03999988734722 608
8.05999988690019 600
8.07999988645315 610
8.09999988600612 632
8.11999988555908 580
8.13999988511205 625
8.15999988466501 611
8.17999988421798 627
8.19999988377094 586
8.21999988332391 608
8.23999988287687 585
8.25999988242984 587
8.2799998819828 615
8.29999988153577 624
8.31999988108873 608
8.3399998806417 677
8.35999988019466 628
8.37999987974763 668
8.39999987930059 694
8.41999987885356 678
8.43999987840652 708
8.45999987795949 688
8.47999987751245 676
8.49999987706542 691
8.51999987661839 721
8.53999987617135 725
8.55999987572432 793
8.57999987527728 821
8.59999987483025 803
8.61999987438321 859
8.63999987393618 876
8.65999987348914 893
8.67999987304211 994
8.69999987259507 986
8.71999987214804 1104
8.739999871701 1128
8.75999987125397 1247
8.77999987080693 1373
8.7999998703599 1430
8.81999986991286 1520
8.83999986946583 1705
8.85999986901879 1966
8.87999986857176 2230
8.89999986812472 2549
8.91999986767769 2886
8.93999986723065 3439
8.95999986678362 3760
8.97999986633658 3857
8.99999986588955 3668
9.01999986544251 2833
9.03999986499548 2088
9.05999986454844 1483
9.07999986410141 1210
9.09999986365438 1092
9.11999986320734 946
9.13999986276031 909
9.15999986231327 896
9.17999986186624 805
9.1999998614192 848
9.21999986097217 770
9.23999986052513 867
9.2599998600781 768
9.27999985963106 779
9.29999985918403 845
9.31999985873699 839
9.33999985828996 788
9.35999985784292 767
9.37999985739589 776
9.39999985694885 727
9.41999985650182 719
9.43999985605478 765
9.45999985560775 724
9.47999985516071 724
9.49999985471368 711
9.51999985426664 715
9.53999985381961 731
9.55999985337257 775
9.57999985292554 727
9.5999998524785 762
9.61999985203147 732
9.63999985158443 828
9.6599998511374 830
9.67999985069037 820
9.69999985024333 866
9.7199998497963 907
9.73999984934926 945
9.75999984890223 983
9.77999984845519 1109
9.79999984800816 1205
9.81999984756112 1236
9.83999984711409 1343
9.85999984666705 1479
9.87999984622002 1718
9.89999984577298 2008
9.91999984532595 2330
9.93999984487891 2627
9.95999984443188 2318
9.97999984398484 1658
9.99999984353781 1227
10.0199998430908 988
10.0399998426437 846
10.0599998421967 776
10.0799998417497 684
10.0999998413026 706
10.1199998408556 637
10.1399998404086 620
10.1599998399615 673
10.1799998395145 590
10.1999998390675 594
10.2199998386204 636
10.2399998381734 603
10.2599998377264 573
10.2799998372793 614
10.2999998368323 594
10.3199998363853 604
10.3399998359382 576
10.3599998354912 573
10.3799998350441 618
10.3999998345971 528
10.4199998341501 582
10.439999833703 577
10.459999833256 554
10.479999832809 557
10.4999998323619 517
10.5199998319149 598
10.5399998314679 535
10.5599998310208 603
10.5799998305738 645
10.5999998301268 546
10.6199998296797 590
10.6399998292327 597
10.6599998287857 617
10.6799998283386 567
10.6999998278916 590
10.7199998274446 526
10.7399998269975 573
10.7599998265505 572
10.7799998261034 585
10.7999998256564 604
10.8199998252094 574
10.8399998247623 617
10.8599998243153 574
10.8799998238683 605
10.8999998234212 567
10.9199998229742 598
10.9399998225272 553
10.9599998220801 587
10.9799998216331 570
10.9999998211861 549
11.019999820739 612
11.039999820292 580
11.059999819845 539
11.0799998193979 523
11.0999998189509 549
11.1199998185039 539
11.1399998180568 557
11.1599998176098 497
11.1799998171628 526
11.1999998167157 541
11.2199998162687 535
11.2399998158216 537
11.2599998153746 544
11.2799998149276 540
11.2999998144805 527
11.3199998140335 509
11.3399998135865 531
11.3599998131394 508
11.3799998126924 546
11.3999998122454 514
11.4199998117983 506
11.4399998113513 543
11.4599998109043 499
11.4799998104572 499
11.4999998100102 522
11.5199998095632 537
11.5399998091161 526
11.5599998086691 503
11.5799998082221 544
11.599999807775 527
11.619999807328 531
11.639999806881 556
11.6599998064339 518
11.6799998059869 563
11.6999998055398 566
11.7199998050928 539
11.7399998046458 568
11.7599998041987 547
11.7799998037517 505
11.7999998033047 528
11.8199998028576 549
11.8399998024106 528
11.8599998019636 487
11.8799998015165 512
11.8999998010695 583
11.9199998006225 540
11.9399998001754 503
11.9599997997284 532
11.9799997992814 543
11.9999997988343 536
12.0199997983873 548
12.0399997979403 517
12.0599997974932 527
12.0799997970462 533
12.0999997965992 562
12.1199997961521 515
12.1399997957051 545
12.159999795258 534
12.179999794811 557
12.199999794364 572
12.2199997939169 527
12.2399997934699 533
12.2599997930229 543
12.2799997925758 588
12.2999997921288 524
12.3199997916818 539
12.3399997912347 585
12.3599997907877 564
12.3799997903407 565
12.3999997898936 545
12.4199997894466 577
12.4399997889996 619
12.4599997885525 620
12.4799997881055 609
12.4999997876585 627
12.5199997872114 652
12.5399997867644 654
12.5599997863173 698
12.5799997858703 745
12.5999997854233 777
12.6199997849762 812
12.6399997845292 800
12.6599997840822 829
12.6799997836351 876
12.6999997831881 875
12.7199997827411 788
12.739999782294 788
12.759999781847 725
12.7799997814 669
12.7999997809529 625
12.8199997805059 602
12.8399997800589 627
12.8599997796118 639
12.8799997791648 610
12.8999997787178 603
12.9199997782707 560
12.9399997778237 587
12.9599997773767 570
12.9799997769296 566
12.9999997764826 556
13.0199997760355 597
13.0399997755885 658
13.0599997751415 573
13.0799997746944 604
13.0999997742474 576
13.1199997738004 609
13.1399997733533 627
13.1599997729063 654
13.1799997724593 660
13.1999997720122 707
13.2199997715652 713
13.2399997711182 742
13.2599997706711 760
13.2799997702241 762
13.2999997697771 790
13.31999976933 809
13.339999768883 861
13.359999768436 938
13.3799997679889 1042
13.3999997675419 1139
13.4199997670949 1049
13.4399997666478 938
13.4599997662008 789
13.4799997657537 709
13.4999997653067 676
13.5199997648597 608
13.5399997644126 550
13.5599997639656 584
13.5799997635186 607
13.5999997630715 565
13.6199997626245 570
13.6399997621775 547
13.6599997617304 550
13.6799997612834 594
13.6999997608364 619
13.7199997603893 562
13.7399997599423 585
13.7599997594953 613
13.7799997590482 561
13.7999997586012 546
13.8199997581542 549
13.8399997577071 579
13.8599997572601 602
13.879999756813 527
13.899999756366 563
13.919999755919 562
13.9399997554719 575
13.9599997550249 571
13.9799997545779 565
13.9999997541308 562
14.0199997536838 558
14.0399997532368 584
14.0599997527897 529
14.0799997523427 569
14.0999997518957 599
14.1199997514486 538
14.1399997510016 562
14.1599997505546 562
14.1799997501075 568
14.1999997496605 574
14.2199997492135 582
14.2399997487664 594
14.2599997483194 541
14.2799997478724 579
14.2999997474253 554
14.3199997469783 591
14.3399997465312 562
14.3599997460842 581
14.3799997456372 573
14.3999997451901 554
14.4199997447431 571
14.4399997442961 604
14.459999743849 584
14.479999743402 616
14.499999742955 591
14.5199997425079 591
14.5399997420609 609
14.5599997416139 609
14.5799997411668 584
14.5999997407198 572
14.6199997402728 574
14.6399997398257 600
14.6599997393787 561
14.6799997389317 632
14.6999997384846 597
14.7199997380376 577
14.7399997375906 609
14.7599997371435 609
14.7799997366965 574
14.7999997362494 590
14.8199997358024 597
14.8399997353554 579
14.8599997349083 585
14.8799997344613 559
14.8999997340143 584
14.9199997335672 556
14.9399997331202 578
14.9599997326732 608
14.9799997322261 572
14.9999997317791 626
15.0199997313321 590
15.039999730885 593
15.059999730438 529
15.079999729991 579
15.0999997295439 588
15.1199997290969 601
15.1399997286499 626
15.1599997282028 617
15.1799997277558 633
15.1999997273088 600
15.2199997268617 650
15.2399997264147 666
15.2599997259676 606
15.2799997255206 589
15.2999997250736 597
15.3199997246265 639
15.3399997241795 598
15.3599997237325 615
15.3799997232854 559
15.3999997228384 606
15.4199997223914 606
15.4399997219443 628
15.4599997214973 635
15.4799997210503 591
15.4999997206032 601
15.5199997201562 592
15.5399997197092 586
15.5599997192621 632
15.5799997188151 625
15.5999997183681 582
15.619999717921 621
15.639999717474 626
15.659999717027 599
15.6799997165799 618
15.6999997161329 601
15.7199997156858 602
15.7399997152388 610
15.7599997147918 638
15.7799997143447 643
15.7999997138977 642
15.8199997134507 607
15.8399997130036 655
15.8599997125566 619
15.8799997121096 608
15.8999997116625 643
15.9199997112155 575
15.9399997107685 620
15.9599997103214 587
15.9799997098744 671
15.9999997094274 659
16.0199997089803 647
16.0399997085333 632
16.0599997080863 671
16.0799997076392 628
16.0999997071922 620
16.1199997067451 618
16.1399997062981 660
16.1599997058511 699
16.179999705404 690
16.199999704957 671
16.21999970451 678
16.2399997040629 682
16.2599997036159 640
16.2799997031689 702
16.2999997027218 684
16.3199997022748 682
16.3399997018278 683
16.3599997013807 648
16.3799997009337 670
16.3999997004867 673
16.4199997000396 685
16.4399996995926 720
16.4599996991456 671
16.4799996986985 722
16.4999996982515 727
16.5199996978045 707
16.5399996973574 731
16.5599996969104 713
16.5799996964633 682
16.5999996960163 704
16.6199996955693 757
16.6399996951222 795
16.6599996946752 729
16.6799996942282 781
16.6999996937811 834
16.7199996933341 797
16.7399996928871 841
16.75999969244 928
16.779999691993 954
16.799999691546 992
16.8199996910989 1072
16.8399996906519 1208
16.8599996902049 1293
16.8799996897578 1421
16.8999996893108 1582
16.9199996888638 1916
16.9399996884167 2317
16.9599996879697 2627
16.9799996875226 2839
16.9999996870756 2670
17.0199996866286 2256
17.0399996861815 1715
17.0599996857345 1430
17.0799996852875 1109
17.0999996848404 949
17.1199996843934 831
17.1399996839464 827
17.1599996834993 796
17.1799996830523 795
17.1999996826053 810
17.2199996821582 799
17.2399996817112 820
17.2599996812642 732
17.2799996808171 744
17.2999996803701 723
17.3199996799231 805
17.339999679476 784
17.359999679029 738
17.379999678582 748
17.3999996781349 787
17.4199996776879 807
17.4399996772408 751
17.4599996767938 753
17.4799996763468 720
17.4999996758997 742
17.5199996754527 747
17.5399996750057 727
17.5599996745586 717
17.5799996741116 768
17.5999996736646 748
17.6199996732175 754
17.6399996727705 745
17.6599996723235 756
17.6799996718764 785
17.6999996714294 786
17.7199996709824 772
17.7399996705353 824
17.7599996700883 798
17.7799996696413 825
17.7999996691942 792
17.8199996687472 820
17.8399996683002 774
17.8599996678531 826
17.8799996674061 846
17.899999666959 827
17.919999666512 845
17.939999666065 852
17.9599996656179 831
17.9799996651709 838
17.9999996647239 826
18.0199996642768 849
18.0399996638298 840
18.0599996633828 862
18.0799996629357 827
18.0999996624887 822
18.1199996620417 847
18.1399996615946 834
18.1599996611476 818
18.1799996607006 896
18.1999996602535 861
18.2199996598065 845
18.2399996593595 861
18.2599996589124 849
18.2799996584654 817
18.2999996580184 889
18.3199996575713 832
18.3399996571243 834
18.3599996566772 862
18.3799996562302 880
18.3999996557832 897
18.4199996553361 874
18.4399996548891 856
18.4599996544421 860
18.479999653995 867
18.499999653548 891
18.519999653101 898
18.5399996526539 906
18.5599996522069 921
18.5799996517599 933
18.5999996513128 866
18.6199996508658 849
18.6399996504188 936
18.6599996499717 880
18.6799996495247 888
18.6999996490777 857
18.7199996486306 823
18.7399996481836 868
18.7599996477366 901
18.7799996472895 872
18.7999996468425 865
18.8199996463954 852
18.8399996459484 851
18.8599996455014 817
18.8799996450543 897
18.8999996446073 877
18.9199996441603 897
18.9399996437132 897
18.9599996432662 830
18.9799996428192 862
18.9999996423721 874
19.0199996419251 902
19.0399996414781 903
19.059999641031 894
19.079999640584 922
19.099999640137 873
19.1199996396899 850
19.1399996392429 902
19.1599996387959 874
19.1799996383488 901
19.1999996379018 874
19.2199996374547 928
19.2399996370077 903
19.2599996365607 905
19.2799996361136 919
19.2999996356666 897
19.3199996352196 931
19.3399996347725 970
19.3599996343255 924
19.3799996338785 911
19.3999996334314 910
19.4199996329844 935
19.4399996325374 945
19.4599996320903 916
19.4799996316433 947
19.4999996311963 961
19.5199996307492 954
19.5399996303022 1011
19.5599996298552 929
19.5799996294081 948
19.5999996289611 961
19.6199996285141 970
19.639999628067 971
19.65999962762 935
19.6799996271729 997
19.6999996267259 1000
19.7199996262789 1013
19.7399996258318 1002
19.7599996253848 1086
19.7799996249378 1018
19.7999996244907 1096
19.8199996240437 1133
19.8399996235967 1179
19.8599996231496 1233
19.8799996227026 1317
19.8999996222556 1372
19.9199996218085 1374
19.9399996213615 1345
19.9599996209145 1339
19.9799996204674 1278
19.9999996200204 1169
