3 2759
3.01999999955297 2520
3.03999999910593 2350
3.0599999986589 2167
3.07999999821186 2168
3.09999999776483 2014
3.11999999731779 1993
3.13999999687076 1902
3.15999999642372 1960
3.17999999597669 1828
3.19999999552965 1775
3.21999999508262 1854
3.23999999463558 1775
3.25999999418855 1799
3.27999999374151 1784
3.29999999329448 1800
3.31999999284744 1649
3.33999999240041 1684
3.35999999195337 1645
3.37999999150634 1572
3.3999999910593 1663
3.41999999061227 1656
3.43999999016523 1632
3.4599999897182 1605
3.47999998927116 1573
3.49999998882413 1609
3.51999998837709 1504
3.53999998793006 1501
3.55999998748302 1465
3.57999998703599 1481
3.59999998658895 1430
3.61999998614192 1507
3.63999998569489 1459
3.65999998524785 1404
3.67999998480082 1519
3.69999998435378 1407
3.71999998390675 1416
3.73999998345971 1395
3.75999998301268 1403
3.77999998256564 1367
3.79999998211861 1342
3.81999998167157 1343
3.83999998122454 1332
3.8599999807775 1376
3.87999998033047 1323
3.89999997988343 1305
3.9199999794364 1293
3.93999997898936 1262
3.95999997854233 1254
3.97999997809529 1287
3.99999997764826 1195
4.01999997720122 1318
4.03999997675419 1242
4.05999997630715 1261
4.07999997586012 1235
4.09999997541308 1216
4.11999997496605 1210
4.13999997451901 1235
4.15999997407198 1217
4.17999997362494 1123
4.19999997317791 1159
4.21999997273087 1110
4.23999997228384 1149
4.25999997183681 1095
4.27999997138977 1176
4.29999997094274 1163
4.3199999704957 1099
4.33999997004867 1149
4.35999996960163 1076
4.3799999691546 1074
4.39999996870756 1070
4.41999996826053 1037
4.43999996781349 1067
4.45999996736646 1109
4.47999996691942 1064
4.49999996647239 1054
4.51999996602535 1078
4.53999996557832 1020
4.55999996513128 1056
4.57999996468425 1010
4.59999996423721 995
4.61999996379018 1042
4.63999996334314 1004
4.65999996289611 971
4.67999996244907 1012
4.69999996200204 1059
4.719999961555 950
4.73999996110797 988
4.75999996066093 972
4.7799999602139 968
4.79999995976686 946
4.81999995931983 949
4.83999995887279 975
4.85999995842576 912
4.87999995797873 975
4.89999995753169 962
4.91999995708466 927
4.93999995663762 880
4.95999995619059 941
4.97999995574355 883
4.99999995529652 893
5.01999995484948 936
5.03999995440245 898
5.05999995395541 933
5.07999995350838 882
5.09999995306134 921
5.11999995261431 934
5.13999995216727 859
5.15999995172024 908
5.1799999512732 883
5.19999995082617 911
5.21999995037913 880
5.2399999499321 917
5.25999994948506 873
5.27999994903803 839
5.29999994859099 853
5.31999994814396 838
5.33999994769692 876
5.35999994724989 848
5.37999994680285 927
5.39999994635582 884
5.41999994590878 925
5.43999994546175 870
5.45999994501471 856
5.47999994456768 780
5.49999994412065 836
5.51999994367361 848
5.53999994322658 856
5.55999994277954 870
5.57999994233251 913
5.59999994188547 896
5.61999994143844 861
5.6399999409914 842
5.65999994054437 859
5.67999994009733 870
5.6999999396503 859
5.71999993920326 860
5.73999993875623 811
5.75999993830919 850
5.77999993786216 836
5.79999993741512 826
5.81999993696809 875
5.83999993652105 832
5.85999993607402 793
5.87999993562698 869
5.89999993517995 844
5.91999993473291 846
5.93999993428588 855
5.95999993383884 813
5.97999993339181 814
5.99999993294477 843
6.01999993249774 785
6.0399999320507 769
6.05999993160367 892
6.07999993115663 833
6.0999999307096 860
6.11999993026257 859
6.13999992981553 816
6.1599999293685 815
6.17999992892146 851
6.19999992847443 826
6.21999992802739 813
6.23999992758036 829
6.25999992713332 842
6.27999992668629 832
6.29999992623925 853
6.31999992579222 843
6.33999992534518 821
6.35999992489815 836
6.37999992445111 824
6.39999992400408 793
6.41999992355704 805
6.43999992311001 817
6.45999992266297 839
6.47999992221594 771
6.4999999217689 813
6.51999992132187 866
6.53999992087483 855
6.5599999204278 856
6.57999991998076 817
6.59999991953373 816
6.61999991908669 790
6.63999991863966 844
6.65999991819262 842
6.67999991774559 804
6.69999991729855 819
6.71999991685152 801
6.73999991640449 766
6.75999991595745 808
6.77999991551042 752
6.79999991506338 742
6.81999991461635 766
6.83999991416931 810
6.85999991372228 756
6.87999991327524 823
6.89999991282821 763
6.91999991238117 759
6.93999991193414 757
6.9599999114871 779
6.97999991104007 704
6.99999991059303 735
7.019999910146 725
7.03999990969896 789
7.05999990925193 696
7.07999990880489 776
7.09999990835786 747
7.11999990791082 730
7.13999990746379 806
7.15999990701675 738
7.17999990656972 792
7.19999990612268 760
7.21999990567565 796
7.23999990522861 808
7.25999990478158 729
7.27999990433454 778
7.29999990388751 732
7.31999990344047 752
7.33999990299344 738
7.35999990254641 728
7.37999990209937 777
7.39999990165234 724
7.4199999012053 756
7.43999990075827 739
7.45999990031123 767
7.4799998998642 776
7.49999989941716 745
7.51999989897013 791
7.53999989852309 815
7.55999989807606 775
7.57999989762902 757
7.59999989718199 745
7.61999989673495 781
7.63999989628792 709
7.65999989584088 764
7.67999989539385 774
7.69999989494681 842
7.71999989449978 750
7.73999989405274 754
7.75999989360571 797
7.77999989315867 765
7.79999989271164 798
7.8199998922646 752
7.83999989181757 797
7.85999989137053 805
7.8799998909235 827
7.89999989047646 785
7.91999989002943 815
7.9399998895824 827
7.95999988913536 823
7.97999988868833 840
7.99999988824129 826
8.01999988779426 787
8.03999988734722 775
8.05999988690019 789
8.07999988645315 753
8.09999988600612 747
8.11999988555908 723
8.13999988511205 742
8.15999988466501 756
8.17999988421798 763
8.19999988377094 738
8.21999988332391 754
8.23999988287687 751
8.25999988242984 724
8.2799998819828 763
8.29999988153577 752
8.31999988108873 800
8.3399998806417 820
8.35999988019466 813
8.37999987974763 786
8.39999987930059 793
8.41999987885356 832
8.43999987840652 799
8.45999987795949 789
8.47999987751245 787
8.49999987706542 760
8.51999987661839 807
8.53999987617135 806
8.55999987572432 794
8.57999987527728 773
8.59999987483025 770
8.61999987438321 803
8.63999987393618 763
8.65999987348914 821
8.67999987304211 733
8.69999987259507 761
8.71999987214804 770
8.739999871701 723
8.75999987125397 771
8.77999987080693 822
8.7999998703599 760
8.81999986991286 759
8.83999986946583 698
8.85999986901879 772
8.87999986857176 798
8.89999986812472 809
8.91999986767769 774
8.93999986723065 838
8.95999986678362 806
8.97999986633658 842
8.99999986588955 841
9.01999986544251 874
9.03999986499548 896
9.05999986454844 862
9.07999986410141 876
9.09999986365438 796
9.11999986320734 812
9.13999986276031 753
9.15999986231327 774
9.17999986186624 769
9.1999998614192 796
9.21999986097217 746
9.23999986052513 739
9.2599998600781 757
9.27999985963106 747
9.29999985918403 741
9.31999985873699 701
9.33999985828996 793
9.35999985784292 773
9.37999985739589 759
9.39999985694885 781
9.41999985650182 769
9.43999985605478 781
9.45999985560775 748
9.47999985516071 769
9.49999985471368 727
9.51999985426664 689
9.53999985381961 735
9.55999985337257 718
9.57999985292554 721
9.5999998524785 752
9.61999985203147 709
9.63999985158443 727
9.6599998511374 702
9.67999985069037 703
9.69999985024333 713
9.7199998497963 715
9.73999984934926 748
9.75999984890223 707
9.77999984845519 735
9.79999984800816 689
9.81999984756112 683
9.83999984711409 702
9.85999984666705 775
9.87999984622002 760
9.89999984577298 723
9.91999984532595 758
9.93999984487891 746
9.95999984443188 844
9.97999984398484 824
9.99999984353781 822
10.0199998430908 805
10.0399998426437 783
10.0599998421967 808
10.0799998417497 809
10.0999998413026 721
10.1199998408556 724
10.1399998404086 684
10.1599998399615 716
10.1799998395145 688
10.1999998390675 709
10.2199998386204 673
10.2399998381734 745
10.2599998377264 658
10.2799998372793 654
10.2999998368323 751
10.3199998363853 640
10.3399998359382 670
10.3599998354912 755
10.3799998350441 746
10.3999998345971 725
10.4199998341501 664
10.439999833703 704
10.459999833256 651
10.479999832809 691
10.4999998323619 731
10.5199998319149 722
10.5399998314679 712
10.5599998310208 715
10.5799998305738 706
10.5999998301268 731
10.6199998296797 713
10.6399998292327 743
10.6599998287857 684
10.6799998283386 673
10.6999998278916 700
10.7199998274446 758
10.7399998269975 719
10.7599998265505 703
10.7799998261034 705
10.7999998256564 673
10.8199998252094 699
10.8399998247623 705
10.8599998243153 727
10.8799998238683 722
10.8999998234212 721
10.9199998229742 703
10.9399998225272 669
10.9599998220801 707
10.9799998216331 711
10.9999998211861 708
11.019999820739 691
11.039999820292 710
11.059999819845 726
11.0799998193979 680
11.0999998189509 656
11.1199998185039 684
11.1399998180568 692
11.1599998176098 672
11.1799998171628 640
11.1999998167157 675
11.2199998162687 660
11.2399998158216 688
11.2599998153746 674
11.2799998149276 720
11.2999998144805 698
11.3199998140335 665
11.3399998135865 651
11.3599998131394 702
11.3799998126924 739
11.3999998122454 692
11.4199998117983 680
11.4399998113513 704
11.4599998109043 713
11.4799998104572 722
11.4999998100102 693
11.5199998095632 652
11.5399998091161 633
11.5599998086691 651
11.5799998082221 614
11.599999807775 710
11.619999807328 674
11.639999806881 660
11.6599998064339 727
11.6799998059869 699
11.6999998055398 706
11.7199998050928 687
11.7399998046458 689
11.7599998041987 692
11.7799998037517 700
11.7999998033047 720
11.8199998028576 612
11.8399998024106 705
11.8599998019636 708
11.8799998015165 705
11.8999998010695 728
11.9199998006225 738
11.9399998001754 694
11.9599997997284 710
11.9799997992814 681
11.9999997988343 756
12.0199997983873 674
12.0399997979403 675
12.0599997974932 681
12.0799997970462 713
12.0999997965992 701
12.1199997961521 711
12.1399997957051 688
12.159999795258 672
12.179999794811 695
12.199999794364 648
12.2199997939169 696
12.2399997934699 743
12.2599997930229 728
12.2799997925758 699
12.2999997921288 677
12.3199997916818 744
12.3399997912347 702
12.3599997907877 744
12.3799997903407 727
12.3999997898936 728
12.4199997894466 755
12.4399997889996 688
12.4599997885525 717
12.4799997881055 783
12.4999997876585 727
12.5199997872114 718
12.5399997867644 727
12.5599997863173 733
12.5799997858703 719
12.5999997854233 715
12.6199997849762 753
12.6399997845292 725
12.6599997840822 751
12.6799997836351 749
12.6999997831881 786
12.7199997827411 761
12.739999782294 767
12.759999781847 754
12.7799997814 741
12.7999997809529 798
12.8199997805059 744
12.8399997800589 695
12.8599997796118 753
12.8799997791648 739
12.8999997787178 754
12.9199997782707 791
12.9399997778237 701
12.9599997773767 702
12.9799997769296 764
12.9999997764826 761
13.0199997760355 807
13.0399997755885 731
13.0599997751415 688
13.0799997746944 738
13.0999997742474 753
13.1199997738004 734
13.1399997733533 797
13.1599997729063 739
13.1799997724593 728
13.1999997720122 705
13.2199997715652 743
13.2399997711182 778
13.2599997706711 751
13.2799997702241 778
13.2999997697771 767
13.31999976933 753
13.339999768883 769
13.359999768436 752
13.3799997679889 754
13.3999997675419 776
13.4199997670949 751
13.4399997666478 770
13.4599997662008 751
13.4799997657537 813
13.4999997653067 880
13.5199997648597 730
13.5399997644126 770
13.5599997639656 750
13.5799997635186 734
13.5999997630715 816
13.6199997626245 766
13.6399997621775 736
13.6599997617304 774
13.6799997612834 767
13.6999997608364 723
13.7199997603893 749
13.7399997599423 769
13.7599997594953 803
13.7799997590482 731
13.7999997586012 757
13.8199997581542 748
13.8399997577071 731
13.8599997572601 725
13.879999756813 713
13.899999756366 767
13.919999755919 823
13.9399997554719 769
13.9599997550249 834
13.9799997545779 775
13.9999997541308 793
14.0199997536838 760
14.0399997532368 814
14.0599997527897 795
14.0799997523427 755
14.0999997518957 773
14.1199997514486 764
14.1399997510016 785
14.1599997505546 793
14.1799997501075 773
14.1999997496605 781
14.2199997492135 799
14.2399997487664 801
14.2599997483194 796
14.2799997478724 777
14.2999997474253 800
14.3199997469783 823
14.3399997465312 766
14.3599997460842 832
14.3799997456372 802
14.3999997451901 767
14.4199997447431 835
14.4399997442961 789
14.459999743849 811
14.479999743402 830
14.499999742955 827
14.5199997425079 869
14.5399997420609 806
14.5599997416139 836
14.5799997411668 830
14.5999997407198 854
14.6199997402728 881
14.6399997398257 827
14.6599997393787 892
14.6799997389317 831
14.6999997384846 868
14.7199997380376 838
14.7399997375906 822
14.7599997371435 867
14.7799997366965 847
14.7999997362494 861
14.8199997358024 833
14.8399997353554 840
14.8599997349083 861
14.8799997344613 839
14.8999997340143 931
14.9199997335672 836
14.9399997331202 878
14.9599997326732 905
14.9799997322261 884
14.9999997317791 869
15.0199997313321 819
15.039999730885 917
15.059999730438 888
15.079999729991 876
15.0999997295439 857
15.1199997290969 895
15.1399997286499 866
15.1599997282028 915
15.1799997277558 878
15.1999997273088 903
15.2199997268617 923
15.2399997264147 905
15.2599997259676 859
15.2799997255206 868
15.2999997250736 867
15.3199997246265 857
15.3399997241795 895
15.3599997237325 889
15.3799997232854 880
15.3999997228384 952
15.4199997223914 940
15.4399997219443 924
15.4599997214973 886
15.4799997210503 918
15.4999997206032 911
15.5199997201562 889
15.5399997197092 889
15.5599997192621 956
15.5799997188151 933
15.5999997183681 942
15.619999717921 987
15.639999717474 953
15.659999717027 910
15.6799997165799 936
15.6999997161329 980
15.7199997156858 933
15.7399997152388 926
15.7599997147918 966
15.7799997143447 959
15.7999997138977 974
15.8199997134507 923
15.8399997130036 936
15.8599997125566 943
15.8799997121096 953
15.8999997116625 935
15.9199997112155 924
15.9399997107685 964
15.9599997103214 946
15.9799997098744 991
15.9999997094274 1042
16.0199997089803 933
16.0399997085333 989
16.0599997080863 957
16.0799997076392 1017
16.0999997071922 1002
16.1199997067451 1059
16.1399997062981 1035
16.1599997058511 978
16.179999705404 1018
16.199999704957 1040
16.21999970451 999
16.2399997040629 1082
16.2599997036159 1028
16.2799997031689 1005
16.2999997027218 1066
16.3199997022748 1011
16.3399997018278 1019
16.3599997013807 1051
16.3799997009337 1028
16.3999997004867 1045
16.4199997000396 1036
16.4399996995926 1032
16.4599996991456 1070
16.4799996986985 1107
16.4999996982515 1083
16.5199996978045 1096
16.5399996973574 1049
16.5599996969104 1078
16.5799996964633 1051
16.5999996960163 1111
16.6199996955693 1106
16.6399996951222 1111
16.6599996946752 1046
16.6799996942282 1113
16.6999996937811 1069
16.7199996933341 1079
16.7399996928871 1132
16.75999969244 1105
16.779999691993 1105
16.799999691546 1159
16.8199996910989 1074
16.8399996906519 1153
16.8599996902049 1203
16.8799996897578 1200
16.8999996893108 1203
16.9199996888638 1242
16.9399996884167 1302
16.9599996879697 1407
16.9799996875226 1441
16.9999996870756 1489
17.0199996866286 1489
17.0399996861815 1545
17.0599996857345 1436
17.0799996852875 1424
17.0999996848404 1358
17.1199996843934 1299
17.1399996839464 1204
17.1599996834993 1184
17.1799996830523 1225
17.1999996826053 1192
17.2199996821582 1237
17.2399996817112 1198
17.2599996812642 1218
17.2799996808171 1208
17.2999996803701 1220
17.3199996799231 1178
17.339999679476 1174
17.359999679029 1238
17.379999678582 1204
17.3999996781349 1250
17.4199996776879 1228
17.4399996772408 1205
17.4599996767938 1261
17.4799996763468 1180
17.4999996758997 1250
17.5199996754527 1183
17.5399996750057 1181
17.5599996745586 1210
17.5799996741116 1261
17.5999996736646 1261
17.6199996732175 1270
17.6399996727705 1239
17.6599996723235 1280
17.6799996718764 1242
17.6999996714294 1245
17.7199996709824 1309
17.7399996705353 1280
17.7599996700883 1248
17.7799996696413 1308
17.7999996691942 1319
17.8199996687472 1343
17.8399996683002 1306
17.8599996678531 1324
17.8799996674061 1250
17.899999666959 1325
17.919999666512 1345
17.939999666065 1318
17.9599996656179 1377
17.9799996651709 1381
17.9999996647239 1309
18.0199996642768 1388
18.0399996638298 1333
18.0599996633828 1391
18.0799996629357 1436
18.0999996624887 1325
18.1199996620417 1308
18.1399996615946 1369
18.1599996611476 1376
18.1799996607006 1359
18.1999996602535 1376
18.2199996598065 1424
18.2399996593595 1280
18.2599996589124 1386
18.2799996584654 1412
18.2999996580184 1393
18.3199996575713 1389
18.3399996571243 1484
18.3599996566772 1435
18.3799996562302 1398
18.3999996557832 1413
18.4199996553361 1422
18.4399996548891 1471
18.4599996544421 1454
18.479999653995 1483
18.499999653548 1436
18.519999653101 1443
18.5399996526539 1487
18.5599996522069 1478
18.5799996517599 1469
18.5999996513128 1489
18.6199996508658 1511
18.6399996504188 1545
18.6599996499717 1453
18.6799996495247 1444
18.6999996490777 1531
18.7199996486306 1462
18.7399996481836 1623
18.7599996477366 1604
18.7799996472895 1539
18.7999996468425 1533
18.8199996463954 1575
18.8399996459484 1540
18.8599996455014 1519
18.8799996450543 1522
18.8999996446073 1524
18.9199996441603 1528
18.9399996437132 1515
18.9599996432662 1584
18.9799996428192 1577
18.9999996423721 1553
19.0199996419251 1536
19.0399996414781 1598
19.059999641031 1566
19.079999640584 1530
19.099999640137 1589
19.1199996396899 1549
19.1399996392429 1613
19.1599996387959 1646
19.1799996383488 1710
19.1999996379018 1630
19.2199996374547 1555
19.2399996370077 1554
19.2599996365607 1591
19.2799996361136 1583
19.2999996356666 1639
19.3199996352196 1604
19.3399996347725 1687
19.3599996343255 1652
19.3799996338785 1701
19.3999996334314 1610
19.4199996329844 1629
19.4399996325374 1662
19.4599996320903 1619
19.4799996316433 1674
19.4999996311963 1632
19.5199996307492 1724
19.5399996303022 1693
19.5599996298552 1733
19.5799996294081 1702
19.5999996289611 1678
19.6199996285141 1736
19.639999628067 1744
19.65999962762 1690
19.6799996271729 1681
19.6999996267259 1756
19.7199996262789 1748
19.7399996258318 1801
19.7599996253848 1696
19.7799996249378 1768
19.7999996244907 1694
19.8199996240437 1763
19.8399996235967 1841
19.8599996231496 1821
19.8799996227026 1732
19.8999996222556 1763
19.9199996218085 1746
19.9399996213615 1796
19.9599996209145 1769
19.9799996204674 1780
19.9999996200204 1829
