3 2763
3.01999999955297 2731
3.03999999910593 2557
3.0599999986589 2460
3.07999999821186 2376
3.09999999776483 2297
3.11999999731779 2222
3.13999999687076 2153
3.15999999642372 2250
3.17999999597669 2128
3.19999999552965 2127
3.21999999508262 2150
3.23999999463558 2062
3.25999999418855 2123
3.27999999374151 2126
3.29999999329448 2150
3.31999999284744 2085
3.33999999240041 2118
3.35999999195337 2075
3.37999999150634 2053
3.3999999910593 2061
3.41999999061227 1997
3.43999999016523 1992
3.4599999897182 2044
3.47999998927116 2073
3.49999998882413 2031
3.51999998837709 2055
3.53999998793006 1991
3.55999998748302 1999
3.57999998703599 2037
3.59999998658895 2013
3.61999998614192 2008
3.63999998569489 1976
3.65999998524785 1953
3.67999998480082 1953
3.69999998435378 1888
3.71999998390675 1997
3.73999998345971 2003
3.75999998301268 1970
3.77999998256564 1984
3.79999998211861 1954
3.81999998167157 2018
3.83999998122454 1996
3.8599999807775 1939
3.87999998033047 2008
3.89999997988343 2020
3.9199999794364 1959
3.93999997898936 1963
3.95999997854233 2052
3.97999997809529 2016
3.99999997764826 1925
4.01999997720122 1974
4.03999997675419 1991
4.05999997630715 2025
4.07999997586012 2010
4.09999997541308 1945
4.11999997496605 1984
4.13999997451901 1941
4.15999997407198 2012
4.17999997362494 1992
4.19999997317791 1986
4.21999997273087 2061
4.23999997228384 1979
4.25999997183681 2009
4.27999997138977 2037
4.29999997094274 2127
4.3199999704957 2066
4.33999997004867 2075
4.35999996960163 2050
4.3799999691546 2042
4.39999996870756 2048
4.41999996826053 2082
4.43999996781349 2057
4.45999996736646 2037
4.47999996691942 2067
4.49999996647239 2021
4.51999996602535 2078
4.53999996557832 2088
4.55999996513128 2145
4.57999996468425 2157
4.59999996423721 2134
4.61999996379018 2093
4.63999996334314 2149
4.65999996289611 2103
4.67999996244907 2139
4.69999996200204 2106
4.719999961555 2170
4.73999996110797 2183
4.75999996066093 2149
4.7799999602139 2121
4.79999995976686 2129
4.81999995931983 2178
4.83999995887279 2180
4.85999995842576 2101
4.87999995797873 2115
4.89999995753169 2108
4.91999995708466 2174
4.93999995663762 2165
4.95999995619059 2178
4.97999995574355 2146
4.99999995529652 2201
5.01999995484948 2223
5.03999995440245 2135
5.05999995395541 2205
5.07999995350838 2214
5.09999995306134 2212
5.11999995261431 2255
5.13999995216727 2217
5.15999995172024 2251
5.1799999512732 2282
5.19999995082617 2293
5.21999995037913 2391
5.2399999499321 2360
5.25999994948506 2432
5.27999994903803 2474
5.29999994859099 2420
5.31999994814396 2511
5.33999994769692 2575
5.35999994724989 2734
5.37999994680285 2939
5.39999994635582 3052
5.41999994590878 3098
5.43999994546175 2773
5.45999994501471 2351
5.47999994456768 2229
5.49999994412065 2148
5.51999994367361 1981
5.53999994322658 2022
5.55999994277954 1890
5.57999994233251 1885
5.59999994188547 1833
5.61999994143844 1836
5.6399999409914 1825
5.65999994054437 1790
5.67999994009733 1811
5.6999999396503 1759
5.71999993920326 1651
5.73999993875623 1717
5.75999993830919 1635
5.77999993786216 1617
5.79999993741512 1661
5.81999993696809 1664
5.83999993652105 1631
5.85999993607402 1635
5.87999993562698 1564
5.89999993517995 1556
5.91999993473291 1540
5.93999993428588 1529
5.95999993383884 1478
5.97999993339181 1476
5.99999993294477 1538
6.01999993249774 1398
6.0399999320507 1439
6.05999993160367 1478
6.07999993115663 1409
6.0999999307096 1448
6.11999993026257 1434
6.13999992981553 1379
6.1599999293685 1352
6.17999992892146 1391
6.19999992847443 1303
6.21999992802739 1372
6.23999992758036 1289
6.25999992713332 1323
6.27999992668629 1367
6.29999992623925 1261
6.31999992579222 1199
6.33999992534518 1250
6.35999992489815 1290
6.37999992445111 1255
6.39999992400408 1208
6.41999992355704 1285
6.43999992311001 1231
6.45999992266297 1202
6.47999992221594 1172
6.4999999217689 1246
6.51999992132187 1255
6.53999992087483 1200
6.5599999204278 1220
6.57999991998076 1162
6.59999991953373 1161
6.61999991908669 1139
6.63999991863966 1177
6.65999991819262 1184
6.67999991774559 1118
6.69999991729855 1242
6.71999991685152 1129
6.73999991640449 1125
6.75999991595745 1122
6.77999991551042 1161
6.79999991506338 1121
6.81999991461635 1073
6.83999991416931 1120
6.85999991372228 1108
6.87999991327524 1145
6.89999991282821 1120
6.91999991238117 1031
6.93999991193414 1053
6.9599999114871 1116
6.97999991104007 1072
6.99999991059303 1125
7.019999910146 1051
7.03999990969896 1052
7.05999990925193 1074
7.07999990880489 973
7.09999990835786 1009
7.11999990791082 1040
7.13999990746379 1085
7.15999990701675 1014
7.17999990656972 1049
7.19999990612268 1014
7.21999990567565 1059
7.23999990522861 1019
7.25999990478158 1000
7.27999990433454 1024
7.29999990388751 1072
7.31999990344047 1039
7.33999990299344 996
7.35999990254641 1011
7.37999990209937 983
7.39999990165234 1069
7.4199999012053 1008
7.43999990075827 989
7.45999990031123 1070
7.4799998998642 1039
7.49999989941716 993
7.51999989897013 998
7.53999989852309 1005
7.55999989807606 1020
7.57999989762902 1052
7.59999989718199 1046
7.61999989673495 1049
7.63999989628792 998
7.65999989584088 1019
7.67999989539385 1119
7.69999989494681 1000
7.71999989449978 1029
7.73999989405274 1016
7.75999989360571 1060
7.77999989315867 1041
7.79999989271164 1049
7.8199998922646 972
7.83999989181757 959
7.85999989137053 1013
7.8799998909235 1025
7.89999989047646 976
7.91999989002943 1002
7.9399998895824 1003
7.95999988913536 980
7.97999988868833 950
7.99999988824129 907
8.01999988779426 974
8.03999988734722 958
8.05999988690019 960
8.07999988645315 960
8.09999988600612 894
8.11999988555908 973
8.13999988511205 915
8.15999988466501 922
8.17999988421798 898
8.19999988377094 939
8.21999988332391 906
8.23999988287687 905
8.25999988242984 914
8.2799998819828 937
8.29999988153577 910
8.31999988108873 902
8.3399998806417 925
8.35999988019466 899
8.37999987974763 842
8.39999987930059 887
8.41999987885356 898
8.43999987840652 896
8.45999987795949 887
8.47999987751245 868
8.49999987706542 915
8.51999987661839 927
8.53999987617135 888
8.55999987572432 870
8.57999987527728 864
8.59999987483025 864
8.61999987438321 911
8.63999987393618 844
8.65999987348914 838
8.67999987304211 935
8.69999987259507 895
8.71999987214804 869
8.739999871701 868
8.75999987125397 864
8.77999987080693 887
8.7999998703599 855
8.81999986991286 827
8.83999986946583 937
8.85999986901879 890
8.87999986857176 928
8.89999986812472 908
8.91999986767769 933
8.93999986723065 870
8.95999986678362 921
8.97999986633658 902
8.99999986588955 901
9.01999986544251 888
9.03999986499548 841
9.05999986454844 893
9.07999986410141 883
9.09999986365438 927
9.11999986320734 932
9.13999986276031 863
9.15999986231327 877
9.17999986186624 939
9.1999998614192 914
9.21999986097217 933
9.23999986052513 944
9.2599998600781 994
9.27999985963106 982
9.29999985918403 1035
9.31999985873699 1154
9.33999985828996 1122
9.35999985784292 1061
9.37999985739589 969
9.39999985694885 854
9.41999985650182 862
9.43999985605478 887
9.45999985560775 857
9.47999985516071 841
9.49999985471368 817
9.51999985426664 838
9.53999985381961 831
9.55999985337257 814
9.57999985292554 774
9.5999998524785 795
9.61999985203147 760
9.63999985158443 815
9.6599998511374 768
9.67999985069037 751
9.69999985024333 784
9.7199998497963 802
9.73999984934926 807
9.75999984890223 792
9.77999984845519 807
9.79999984800816 768
9.81999984756112 770
9.83999984711409 777
9.85999984666705 726
9.87999984622002 742
9.89999984577298 784
9.91999984532595 780
9.93999984487891 701
9.95999984443188 749
9.97999984398484 748
9.99999984353781 724
10.0199998430908 739
10.0399998426437 744
10.0599998421967 768
10.0799998417497 777
10.0999998413026 727
10.1199998408556 747
10.1399998404086 752
10.1599998399615 777
10.1799998395145 740
10.1999998390675 737
10.2199998386204 732
10.2399998381734 714
10.2599998377264 739
10.2799998372793 738
10.2999998368323 761
10.3199998363853 697
10.3399998359382 716
10.3599998354912 763
10.3799998350441 775
10.3999998345971 686
10.4199998341501 714
10.439999833703 745
10.459999833256 772
10.479999832809 783
10.4999998323619 742
10.5199998319149 751
10.5399998314679 788
10.5599998310208 792
10.5799998305738 804
10.5999998301268 788
10.6199998296797 769
10.6399998292327 770
10.6599998287857 794
10.6799998283386 801
10.6999998278916 758
10.7199998274446 764
10.7399998269975 814
10.7599998265505 877
10.7799998261034 900
10.7999998256564 859
10.8199998252094 839
10.8399998247623 794
10.8599998243153 789
10.8799998238683 726
10.8999998234212 769
10.9199998229742 769
10.9399998225272 722
10.9599998220801 667
10.9799998216331 694
10.9999998211861 712
11.019999820739 726
11.039999820292 684
11.059999819845 663
11.0799998193979 644
11.0999998189509 719
11.1199998185039 698
11.1399998180568 723
11.1599998176098 683
11.1799998171628 695
11.1999998167157 692
11.2199998162687 708
11.2399998158216 657
11.2599998153746 638
11.2799998149276 669
11.2999998144805 688
11.3199998140335 691
11.3399998135865 639
11.3599998131394 696
11.3799998126924 675
11.3999998122454 664
11.4199998117983 686
11.4399998113513 644
11.4599998109043 682
11.4799998104572 631
11.4999998100102 644
11.5199998095632 667
11.5399998091161 628
11.5599998086691 699
11.5799998082221 639
11.599999807775 693
11.619999807328 701
11.639999806881 634
11.6599998064339 698
11.6799998059869 693
11.6999998055398 706
11.7199998050928 665
11.7399998046458 687
11.7599998041987 681
11.7799998037517 643
11.7999998033047 682
11.8199998028576 681
11.8399998024106 635
11.8599998019636 680
11.8799998015165 672
11.8999998010695 669
11.9199998006225 668
11.9399998001754 629
11.9599997997284 656
11.9799997992814 645
11.9999997988343 614
12.0199997983873 660
12.0399997979403 659
12.0599997974932 665
12.0799997970462 660
12.0999997965992 648
12.1199997961521 645
12.1399997957051 636
12.159999795258 642
12.179999794811 697
12.199999794364 693
12.2199997939169 704
12.2399997934699 672
12.2599997930229 737
12.2799997925758 778
12.2999997921288 743
12.3199997916818 730
12.3399997912347 775
12.3599997907877 773
12.3799997903407 752
12.3999997898936 721
12.4199997894466 726
12.4399997889996 701
12.4599997885525 672
12.4799997881055 678
12.4999997876585 676
12.5199997872114 701
12.5399997867644 711
12.5599997863173 689
12.5799997858703 695
12.5999997854233 673
12.6199997849762 693
12.6399997845292 685
12.6599997840822 660
12.6799997836351 712
12.6999997831881 690
12.7199997827411 679
12.739999782294 647
12.759999781847 684
12.7799997814 660
12.7999997809529 649
12.8199997805059 655
12.8399997800589 678
12.8599997796118 608
12.8799997791648 677
12.8999997787178 635
12.9199997782707 653
12.9399997778237 632
12.9599997773767 695
12.9799997769296 624
12.9999997764826 683
13.0199997760355 681
13.0399997755885 670
13.0599997751415 674
13.0799997746944 655
13.0999997742474 632
13.1199997738004 627
13.1399997733533 633
13.1599997729063 679
13.1799997724593 701
13.1999997720122 692
13.2199997715652 694
13.2399997711182 676
13.2599997706711 716
13.2799997702241 622
13.2999997697771 668
13.31999976933 664
13.339999768883 654
13.359999768436 685
13.3799997679889 683
13.3999997675419 656
13.4199997670949 688
13.4399997666478 693
13.4599997662008 642
13.4799997657537 693
13.4999997653067 665
13.5199997648597 659
13.5399997644126 649
13.5599997639656 659
13.5799997635186 657
13.5999997630715 685
13.6199997626245 677
13.6399997621775 628
13.6599997617304 659
13.6799997612834 618
13.6999997608364 614
13.7199997603893 647
13.7399997599423 610
13.7599997594953 680
13.7799997590482 669
13.7999997586012 660
13.8199997581542 610
13.8399997577071 686
13.8599997572601 663
13.879999756813 636
13.899999756366 652
13.919999755919 623
13.9399997554719 635
13.9599997550249 589
13.9799997545779 650
13.9999997541308 637
14.0199997536838 641
14.0399997532368 674
14.0599997527897 671
14.0799997523427 644
14.0999997518957 674
14.1199997514486 669
14.1399997510016 672
14.1599997505546 691
14.1799997501075 693
14.1999997496605 677
14.2199997492135 688
14.2399997487664 617
14.2599997483194 672
14.2799997478724 640
14.2999997474253 629
14.3199997469783 661
14.3399997465312 630
14.3599997460842 629
14.3799997456372 635
14.3999997451901 670
14.4199997447431 672
14.4399997442961 611
14.459999743849 648
14.479999743402 650
14.499999742955 612
14.5199997425079 604
14.5399997420609 620
14.5599997416139 651
14.5799997411668 633
14.5999997407198 581
14.6199997402728 652
14.6399997398257 632
14.6599997393787 693
14.6799997389317 652
14.6999997384846 634
14.7199997380376 580
14.7399997375906 624
14.7599997371435 683
14.7799997366965 610
14.7999997362494 639
14.8199997358024 655
14.8399997353554 598
14.8599997349083 614
14.8799997344613 652
14.8999997340143 603
14.9199997335672 634
14.9399997331202 667
14.9599997326732 555
14.9799997322261 654
14.9999997317791 629
15.0199997313321 635
15.039999730885 616
15.059999730438 617
15.079999729991 615
15.0999997295439 663
15.1199997290969 613
15.1399997286499 667
15.1599997282028 646
15.1799997277558 655
15.1999997273088 653
15.2199997268617 632
15.2399997264147 616
15.2599997259676 624
15.2799997255206 623
15.2999997250736 659
15.3199997246265 690
15.3399997241795 646
15.3599997237325 636
15.3799997232854 640
15.3999997228384 663
15.4199997223914 658
15.4399997219443 646
15.4599997214973 638
15.4799997210503 652
15.4999997206032 646
15.5199997201562 609
15.5399997197092 653
15.5599997192621 667
15.5799997188151 644
15.5999997183681 649
15.619999717921 673
15.639999717474 670
15.659999717027 661
15.6799997165799 613
15.6999997161329 660
15.7199997156858 642
15.7399997152388 641
15.7599997147918 611
15.7799997143447 600
15.7999997138977 625
15.8199997134507 635
15.8399997130036 648
15.8599997125566 654
15.8799997121096 634
15.8999997116625 690
15.9199997112155 674
15.9399997107685 668
15.9599997103214 703
15.9799997098744 638
15.9999997094274 656
16.0199997089803 650
16.0399997085333 675
16.0599997080863 642
16.0799997076392 671
16.0999997071922 660
16.1199997067451 664
16.1399997062981 683
16.1599997058511 678
16.179999705404 635
16.199999704957 622
16.21999970451 657
16.2399997040629 703
16.2599997036159 655
16.2799997031689 666
16.2999997027218 679
16.3199997022748 660
16.3399997018278 693
16.3599997013807 674
16.3799997009337 641
16.3999997004867 686
16.4199997000396 668
16.4399996995926 718
16.4599996991456 694
16.4799996986985 708
16.4999996982515 684
16.5199996978045 693
16.5399996973574 678
16.5599996969104 700
16.5799996964633 687
16.5999996960163 716
16.6199996955693 687
16.6399996951222 711
16.6599996946752 669
16.6799996942282 697
16.6999996937811 732
16.7199996933341 664
16.7399996928871 685
16.75999969244 691
16.779999691993 639
16.799999691546 717
16.8199996910989 717
16.8399996906519 708
16.8599996902049 673
16.8799996897578 685
16.8999996893108 710
16.9199996888638 770
16.9399996884167 663
16.9599996879697 701
16.9799996875226 758
16.9999996870756 743
17.0199996866286 700
17.0399996861815 705
17.0599996857345 721
17.0799996852875 755
17.0999996848404 692
17.1199996843934 725
17.1399996839464 669
17.1599996834993 729
17.1799996830523 684
17.1999996826053 707
17.2199996821582 743
17.2399996817112 721
17.2599996812642 693
17.2799996808171 770
17.2999996803701 714
17.3199996799231 747
17.339999679476 746
17.359999679029 766
17.379999678582 717
17.3999996781349 733
17.4199996776879 743
17.4399996772408 750
17.4599996767938 748
17.4799996763468 743
17.4999996758997 758
17.5199996754527 743
17.5399996750057 712
17.5599996745586 744
17.5799996741116 789
17.5999996736646 745
17.6199996732175 701
17.6399996727705 731
17.6599996723235 727
17.6799996718764 754
17.6999996714294 767
17.7199996709824 732
17.7399996705353 737
17.7599996700883 714
17.7799996696413 780
17.7999996691942 755
17.8199996687472 744
17.8399996683002 764
17.8599996678531 798
17.8799996674061 802
17.899999666959 772
17.919999666512 770
17.939999666065 790
17.9599996656179 768
17.9799996651709 750
17.9999996647239 783
18.0199996642768 792
18.0399996638298 793
18.0599996633828 810
18.0799996629357 752
18.0999996624887 769
18.1199996620417 806
18.1399996615946 806
18.1599996611476 796
18.1799996607006 827
18.1999996602535 739
18.2199996598065 734
18.2399996593595 759
18.2599996589124 821
18.2799996584654 768
18.2999996580184 825
18.3199996575713 757
18.3399996571243 800
18.3599996566772 809
18.3799996562302 717
18.3999996557832 809
18.4199996553361 780
18.4399996548891 806
18.4599996544421 805
18.479999653995 787
18.499999653548 837
18.519999653101 811
18.5399996526539 759
18.5599996522069 820
18.5799996517599 828
18.5999996513128 825
18.6199996508658 818
18.6399996504188 857
18.6599996499717 817
18.6799996495247 847
18.6999996490777 871
18.7199996486306 795
18.7399996481836 864
18.7599996477366 794
18.7799996472895 824
18.7999996468425 790
18.8199996463954 848
18.8399996459484 842
18.8599996455014 842
18.8799996450543 809
18.8999996446073 833
18.9199996441603 903
18.9399996437132 817
18.9599996432662 838
18.9799996428192 813
18.9999996423721 829
19.0199996419251 844
19.0399996414781 898
19.059999641031 879
19.079999640584 871
19.099999640137 823
19.1199996396899 816
19.1399996392429 842
19.1599996387959 806
19.1799996383488 871
19.1999996379018 823
19.2199996374547 865
19.2399996370077 856
19.2599996365607 863
19.2799996361136 846
19.2999996356666 857
19.3199996352196 868
19.3399996347725 852
19.3599996343255 855
19.3799996338785 891
19.3999996334314 874
19.4199996329844 917
19.4399996325374 866
19.4599996320903 933
19.4799996316433 923
19.4999996311963 962
19.5199996307492 927
19.5399996303022 935
19.5599996298552 973
19.5799996294081 908
19.5999996289611 908
19.6199996285141 933
19.639999628067 953
19.65999962762 867
19.6799996271729 894
19.6999996267259 901
19.7199996262789 887
19.7399996258318 904
19.7599996253848 948
19.7799996249378 894
19.7999996244907 941
19.8199996240437 909
19.8399996235967 930
19.8599996231496 918
19.8799996227026 943
19.8999996222556 894
19.9199996218085 866
19.9399996213615 927
19.9599996209145 952
19.9799996204674 897
19.9999996200204 956
