3 3708
3.01999999955297 3581
3.03999999910593 3375
3.0599999986589 3221
3.07999999821186 2999
3.09999999776483 2940
3.11999999731779 2847
3.13999999687076 2799
3.15999999642372 2774
3.17999999597669 2670
3.19999999552965 2771
3.21999999508262 2601
3.23999999463558 2621
3.25999999418855 2589
3.27999999374151 2464
3.29999999329448 2534
3.31999999284744 2445
3.33999999240041 2410
3.35999999195337 2403
3.37999999150634 2394
3.3999999910593 2297
3.41999999061227 2298
3.43999999016523 2232
3.4599999897182 2190
3.47999998927116 2098
3.49999998882413 2114
3.51999998837709 2073
3.53999998793006 1997
3.55999998748302 2085
3.57999998703599 2067
3.59999998658895 1985
3.61999998614192 2031
3.63999998569489 1955
3.65999998524785 1986
3.67999998480082 1986
3.69999998435378 1994
3.71999998390675 1907
3.73999998345971 1896
3.75999998301268 1851
3.77999998256564 1858
3.79999998211861 1798
3.81999998167157 1723
3.83999998122454 1682
3.8599999807775 1685
3.87999998033047 1755
3.89999997988343 1686
3.9199999794364 1623
3.93999997898936 1654
3.95999997854233 1637
3.97999997809529 1576
3.99999997764826 1543
4.01999997720122 1567
4.03999997675419 1515
4.05999997630715 1451
4.07999997586012 1454
4.09999997541308 1531
4.11999997496605 1483
4.13999997451901 1480
4.15999997407198 1390
4.17999997362494 1436
4.19999997317791 1416
4.21999997273087 1382
4.23999997228384 1435
4.25999997183681 1351
4.27999997138977 1401
4.29999997094274 1352
4.3199999704957 1365
4.33999997004867 1308
4.35999996960163 1322
4.3799999691546 1315
4.39999996870756 1383
4.41999996826053 1330
4.43999996781349 1252
4.45999996736646 1203
4.47999996691942 1244
4.49999996647239 1262
4.51999996602535 1232
4.53999996557832 1217
4.55999996513128 1175
4.57999996468425 1212
4.59999996423721 1214
4.61999996379018 1213
4.63999996334314 1215
4.65999996289611 1226
4.67999996244907 1177
4.69999996200204 1214
4.719999961555 1195
4.73999996110797 1136
4.75999996066093 1121
4.7799999602139 1155
4.79999995976686 1186
4.81999995931983 1210
4.83999995887279 1141
4.85999995842576 1132
4.87999995797873 1176
4.89999995753169 1141
4.91999995708466 1192
4.93999995663762 1220
4.95999995619059 1176
4.97999995574355 1166
4.99999995529652 1182
5.01999995484948 1191
5.03999995440245 1136
5.05999995395541 1192
5.07999995350838 1207
5.09999995306134 1231
5.11999995261431 1235
5.13999995216727 1324
5.15999995172024 1255
5.1799999512732 1324
5.19999995082617 1297
5.21999995037913 1381
5.2399999499321 1360
5.25999994948506 1455
5.27999994903803 1521
5.29999994859099 1582
5.31999994814396 1624
5.33999994769692 1766
5.35999994724989 1903
5.37999994680285 2096
5.39999994635582 2332
5.41999994590878 2528
5.43999994546175 2434
5.45999994501471 2099
5.47999994456768 1674
5.49999994412065 1534
5.51999994367361 1362
5.53999994322658 1353
5.55999994277954 1221
5.57999994233251 1192
5.59999994188547 1223
5.61999994143844 1140
5.6399999409914 1166
5.65999994054437 1103
5.67999994009733 1099
5.6999999396503 1079
5.71999993920326 1017
5.73999993875623 1002
5.75999993830919 972
5.77999993786216 969
5.79999993741512 1060
5.81999993696809 985
5.83999993652105 940
5.85999993607402 910
5.87999993562698 985
5.89999993517995 912
5.91999993473291 919
5.93999993428588 922
5.95999993383884 912
5.97999993339181 875
5.99999993294477 859
6.01999993249774 877
6.0399999320507 917
6.05999993160367 895
6.07999993115663 831
6.0999999307096 895
6.11999993026257 872
6.13999992981553 834
6.1599999293685 816
6.17999992892146 860
6.19999992847443 838
6.21999992802739 826
6.23999992758036 799
6.25999992713332 833
6.27999992668629 789
6.29999992623925 789
6.31999992579222 832
6.33999992534518 856
6.35999992489815 849
6.37999992445111 790
6.39999992400408 758
6.41999992355704 849
6.43999992311001 786
6.45999992266297 828
6.47999992221594 807
6.4999999217689 838
6.51999992132187 832
6.53999992087483 820
6.5599999204278 812
6.57999991998076 814
6.59999991953373 794
6.61999991908669 816
6.63999991863966 806
6.65999991819262 772
6.67999991774559 796
6.69999991729855 824
6.71999991685152 740
6.73999991640449 779
6.75999991595745 762
6.77999991551042 793
6.79999991506338 780
6.81999991461635 751
6.83999991416931 791
6.85999991372228 838
6.87999991327524 735
6.89999991282821 763
6.91999991238117 808
6.93999991193414 734
6.9599999114871 768
6.97999991104007 794
6.99999991059303 793
7.019999910146 783
7.03999990969896 775
7.05999990925193 785
7.07999990880489 770
7.09999990835786 789
7.11999990791082 757
7.13999990746379 748
7.15999990701675 774
7.17999990656972 752
7.19999990612268 780
7.21999990567565 748
7.23999990522861 754
7.25999990478158 776
7.27999990433454 720
7.29999990388751 735
7.31999990344047 734
7.33999990299344 741
7.35999990254641 706
7.37999990209937 729
7.39999990165234 734
7.4199999012053 729
7.43999990075827 736
7.45999990031123 765
7.4799998998642 720
7.49999989941716 695
7.51999989897013 714
7.53999989852309 707
7.55999989807606 701
7.57999989762902 722
7.59999989718199 745
7.61999989673495 715
7.63999989628792 727
7.65999989584088 722
7.67999989539385 710
7.69999989494681 726
7.71999989449978 768
7.73999989405274 719
7.75999989360571 763
7.77999989315867 713
7.79999989271164 734
7.8199998922646 733
7.83999989181757 754
7.85999989137053 769
7.8799998909235 706
7.89999989047646 721
7.91999989002943 725
7.9399998895824 714
7.95999988913536 706
7.97999988868833 710
7.99999988824129 737
8.01999988779426 689
8.03999988734722 692
8.05999988690019 741
8.07999988645315 714
8.09999988600612 693
8.11999988555908 678
8.13999988511205 688
8.15999988466501 718
8.17999988421798 699
8.19999988377094 657
8.21999988332391 711
8.23999988287687 715
8.25999988242984 664
8.2799998819828 699
8.29999988153577 687
8.31999988108873 709
8.3399998806417 704
8.35999988019466 711
8.37999987974763 699
8.39999987930059 649
8.41999987885356 664
8.43999987840652 744
8.45999987795949 665
8.47999987751245 662
8.49999987706542 673
8.51999987661839 701
8.53999987617135 707
8.55999987572432 649
8.57999987527728 718
8.59999987483025 701
8.61999987438321 689
8.63999987393618 687
8.65999987348914 670
8.67999987304211 689
8.69999987259507 691
8.71999987214804 694
8.739999871701 668
8.75999987125397 677
8.77999987080693 703
8.7999998703599 667
8.81999986991286 686
8.83999986946583 679
8.85999986901879 757
8.87999986857176 699
8.89999986812472 703
8.91999986767769 726
8.93999986723065 746
8.95999986678362 708
8.97999986633658 775
8.99999986588955 779
9.01999986544251 733
9.03999986499548 761
9.05999986454844 737
9.07999986410141 691
9.09999986365438 731
9.11999986320734 771
9.13999986276031 745
9.15999986231327 772
9.17999986186624 725
9.1999998614192 755
9.21999986097217 787
9.23999986052513 802
9.2599998600781 866
9.27999985963106 891
9.29999985918403 857
9.31999985873699 984
9.33999985828996 1090
9.35999985784292 1004
9.37999985739589 917
9.39999985694885 812
9.41999985650182 806
9.43999985605478 740
9.45999985560775 706
9.47999985516071 722
9.49999985471368 704
9.51999985426664 692
9.53999985381961 669
9.55999985337257 706
9.57999985292554 687
9.5999998524785 697
9.61999985203147 698
9.63999985158443 706
9.6599998511374 697
9.67999985069037 691
9.69999985024333 660
9.7199998497963 642
9.73999984934926 658
9.75999984890223 649
9.77999984845519 636
9.79999984800816 675
9.81999984756112 702
9.83999984711409 656
9.85999984666705 682
9.87999984622002 716
9.89999984577298 630
9.91999984532595 685
9.93999984487891 645
9.95999984443188 706
9.97999984398484 681
9.99999984353781 740
10.0199998430908 692
10.0399998426437 672
10.0599998421967 640
10.0799998417497 626
10.0999998413026 650
10.1199998408556 641
10.1399998404086 657
10.1599998399615 627
10.1799998395145 631
10.1999998390675 657
10.2199998386204 671
10.2399998381734 641
10.2599998377264 654
10.2799998372793 640
10.2999998368323 688
10.3199998363853 647
10.3399998359382 653
10.3599998354912 653
10.3799998350441 670
10.3999998345971 616
10.4199998341501 652
10.439999833703 651
10.459999833256 686
10.479999832809 676
10.4999998323619 642
10.5199998319149 635
10.5399998314679 656
10.5599998310208 660
10.5799998305738 595
10.5999998301268 677
10.6199998296797 634
10.6399998292327 656
10.6599998287857 699
10.6799998283386 733
10.6999998278916 692
10.7199998274446 682
10.7399998269975 737
10.7599998265505 797
10.7799998261034 795
10.7999998256564 786
10.8199998252094 796
10.8399998247623 720
10.8599998243153 713
10.8799998238683 707
10.8999998234212 649
10.9199998229742 715
10.9399998225272 670
10.9599998220801 675
10.9799998216331 618
10.9999998211861 668
11.019999820739 626
11.039999820292 631
11.059999819845 662
11.0799998193979 682
11.0999998189509 625
11.1199998185039 648
11.1399998180568 651
11.1599998176098 668
11.1799998171628 636
11.1999998167157 601
11.2199998162687 630
11.2399998158216 628
11.2599998153746 618
11.2799998149276 576
11.2999998144805 606
11.3199998140335 585
11.3399998135865 567
11.3599998131394 573
11.3799998126924 617
11.3999998122454 606
11.4199998117983 655
11.4399998113513 599
11.4599998109043 604
11.4799998104572 641
11.4999998100102 580
11.5199998095632 605
11.5399998091161 621
11.5599998086691 604
11.5799998082221 607
11.599999807775 613
11.619999807328 608
11.639999806881 601
11.6599998064339 652
11.6799998059869 668
11.6999998055398 631
11.7199998050928 600
11.7399998046458 600
11.7599998041987 577
11.7799998037517 572
11.7999998033047 637
11.8199998028576 626
11.8399998024106 617
11.8599998019636 598
11.8799998015165 644
11.8999998010695 627
11.9199998006225 610
11.9399998001754 587
11.9599997997284 639
11.9799997992814 605
11.9999997988343 607
12.0199997983873 613
12.0399997979403 608
12.0599997974932 636
12.0799997970462 652
12.0999997965992 643
12.1199997961521 663
12.1399997957051 570
12.159999795258 587
12.179999794811 619
12.199999794364 651
12.2199997939169 664
12.2399997934699 646
12.2599997930229 662
12.2799997925758 624
12.2999997921288 630
12.3199997916818 613
12.3399997912347 619
12.3599997907877 628
12.3799997903407 646
12.3999997898936 633
12.4199997894466 617
12.4399997889996 609
12.4599997885525 645
12.4799997881055 650
12.4999997876585 646
12.5199997872114 647
12.5399997867644 633
12.5599997863173 628
12.5799997858703 618
12.5999997854233 594
12.6199997849762 655
12.6399997845292 626
12.6599997840822 642
12.6799997836351 646
12.6999997831881 652
12.7199997827411 649
12.739999782294 670
12.759999781847 650
12.7799997814 658
12.7999997809529 622
12.8199997805059 641
12.8399997800589 644
12.8599997796118 607
12.8799997791648 587
12.8999997787178 630
12.9199997782707 659
12.9399997778237 639
12.9599997773767 653
12.9799997769296 615
12.9999997764826 622
13.0199997760355 639
13.0399997755885 633
13.0599997751415 651
13.0799997746944 650
13.0999997742474 671
13.1199997738004 697
13.1399997733533 633
13.1599997729063 666
13.1799997724593 652
13.1999997720122 656
13.2199997715652 658
13.2399997711182 700
13.2599997706711 654
13.2799997702241 658
13.2999997697771 700
13.31999976933 675
13.339999768883 645
13.359999768436 695
13.3799997679889 655
13.3999997675419 710
13.4199997670949 670
13.4399997666478 682
13.4599997662008 675
13.4799997657537 672
13.4999997653067 640
13.5199997648597 661
13.5399997644126 669
13.5599997639656 688
13.5799997635186 675
13.5999997630715 723
13.6199997626245 632
13.6399997621775 707
13.6599997617304 642
13.6799997612834 692
13.6999997608364 666
13.7199997603893 688
13.7399997599423 643
13.7599997594953 684
13.7799997590482 670
13.7999997586012 640
13.8199997581542 627
13.8399997577071 670
13.8599997572601 636
13.879999756813 710
13.899999756366 673
13.919999755919 645
13.9399997554719 704
13.9599997550249 676
13.9799997545779 705
13.9999997541308 701
14.0199997536838 709
14.0399997532368 665
14.0599997527897 710
14.0799997523427 682
14.0999997518957 709
14.1199997514486 680
14.1399997510016 692
14.1599997505546 692
14.1799997501075 671
14.1999997496605 726
14.2199997492135 714
14.2399997487664 695
14.2599997483194 693
14.2799997478724 752
14.2999997474253 740
14.3199997469783 693
14.3399997465312 721
14.3599997460842 719
14.3799997456372 755
14.3999997451901 725
14.4199997447431 712
14.4399997442961 706
14.459999743849 666
14.479999743402 682
14.499999742955 729
14.5199997425079 789
14.5399997420609 677
14.5599997416139 699
14.5799997411668 730
14.5999997407198 659
14.6199997402728 686
14.6399997398257 706
14.6599997393787 753
14.6799997389317 753
14.6999997384846 689
14.7199997380376 719
14.7399997375906 738
14.7599997371435 702
14.7799997366965 732
14.7999997362494 666
14.8199997358024 744
14.8399997353554 717
14.8599997349083 681
14.8799997344613 687
14.8999997340143 695
14.9199997335672 739
14.9399997331202 704
14.9599997326732 719
14.9799997322261 750
14.9999997317791 699
15.0199997313321 729
15.039999730885 722
15.059999730438 773
15.079999729991 763
15.0999997295439 728
15.1199997290969 707
15.1399997286499 692
15.1599997282028 744
15.1799997277558 760
15.1999997273088 764
15.2199997268617 768
15.2399997264147 794
15.2599997259676 757
15.2799997255206 715
15.2999997250736 745
15.3199997246265 801
15.3399997241795 726
15.3599997237325 754
15.3799997232854 753
15.3999997228384 742
15.4199997223914 804
15.4399997219443 765
15.4599997214973 749
15.4799997210503 793
15.4999997206032 777
15.5199997201562 762
15.5399997197092 718
15.5599997192621 751
15.5799997188151 758
15.5999997183681 758
15.619999717921 817
15.639999717474 780
15.659999717027 782
15.6799997165799 797
15.6999997161329 782
15.7199997156858 760
15.7399997152388 783
15.7599997147918 833
15.7799997143447 796
15.7999997138977 779
15.8199997134507 785
15.8399997130036 795
15.8599997125566 834
15.8799997121096 862
15.8999997116625 834
15.9199997112155 800
15.9399997107685 785
15.9599997103214 754
15.9799997098744 825
15.9999997094274 818
16.0199997089803 792
16.0399997085333 783
16.0599997080863 839
16.0799997076392 864
16.0999997071922 843
16.1199997067451 816
16.1399997062981 846
16.1599997058511 818
16.179999705404 800
16.199999704957 851
16.21999970451 860
16.2399997040629 886
16.2599997036159 799
16.2799997031689 853
16.2999997027218 793
16.3199997022748 829
16.3399997018278 843
16.3599997013807 887
16.3799997009337 894
16.3999997004867 841
16.4199997000396 886
16.4399996995926 889
16.4599996991456 850
16.4799996986985 865
16.4999996982515 861
16.5199996978045 847
16.5399996973574 880
16.5599996969104 896
16.5799996964633 901
16.5999996960163 932
16.6199996955693 913
16.6399996951222 892
16.6599996946752 926
16.6799996942282 911
16.6999996937811 879
16.7199996933341 878
16.7399996928871 919
16.75999969244 914
16.779999691993 955
16.799999691546 955
16.8199996910989 1021
16.8399996906519 1002
16.8599996902049 1025
16.8799996897578 1054
16.8999996893108 1070
16.9199996888638 1130
16.9399996884167 1217
16.9599996879697 1332
16.9799996875226 1342
16.9999996870756 1390
17.0199996866286 1387
17.0399996861815 1332
17.0599996857345 1121
17.0799996852875 1082
17.0999996848404 1009
17.1199996843934 981
17.1399996839464 937
17.1599996834993 963
17.1799996830523 959
17.1999996826053 988
17.2199996821582 920
17.2399996817112 966
17.2599996812642 976
17.2799996808171 954
17.2999996803701 971
17.3199996799231 973
17.339999679476 977
17.359999679029 981
17.379999678582 979
17.3999996781349 946
17.4199996776879 979
17.4399996772408 959
17.4599996767938 1048
17.4799996763468 981
17.4999996758997 1000
17.5199996754527 961
17.5399996750057 1011
17.5599996745586 1028
17.5799996741116 1015
17.5999996736646 1053
17.6199996732175 1064
17.6399996727705 1012
17.6599996723235 1001
17.6799996718764 1027
17.6999996714294 1015
17.7199996709824 1036
17.7399996705353 1048
17.7599996700883 1043
17.7799996696413 997
17.7999996691942 951
17.8199996687472 1034
17.8399996683002 1060
17.8599996678531 1026
17.8799996674061 1044
17.899999666959 1017
17.919999666512 1040
17.939999666065 1086
17.9599996656179 1070
17.9799996651709 1029
17.9999996647239 1061
18.0199996642768 993
18.0399996638298 1056
18.0599996633828 1056
18.0799996629357 1052
18.0999996624887 1031
18.1199996620417 1078
18.1399996615946 1074
18.1599996611476 1089
18.1799996607006 1076
18.1999996602535 1117
18.2199996598065 1102
18.2399996593595 1050
18.2599996589124 1094
18.2799996584654 1077
18.2999996580184 1061
18.3199996575713 1153
18.3399996571243 1123
18.3599996566772 1076
18.3799996562302 1130
18.3999996557832 1167
18.4199996553361 1204
18.4399996548891 1141
18.4599996544421 1156
18.479999653995 1143
18.499999653548 1100
18.519999653101 1110
18.5399996526539 1032
18.5599996522069 1117
18.5799996517599 1187
18.5999996513128 1135
18.6199996508658 1206
18.6399996504188 1113
18.6599996499717 1163
18.6799996495247 1163
18.6999996490777 1187
18.7199996486306 1204
18.7399996481836 1212
18.7599996477366 1184
18.7799996472895 1183
18.7999996468425 1241
18.8199996463954 1201
18.8399996459484 1194
18.8599996455014 1198
18.8799996450543 1267
18.8999996446073 1182
18.9199996441603 1245
18.9399996437132 1218
18.9599996432662 1201
18.9799996428192 1250
18.9999996423721 1228
19.0199996419251 1229
19.0399996414781 1258
19.059999641031 1277
19.079999640584 1185
19.099999640137 1243
19.1199996396899 1215
19.1399996392429 1223
19.1599996387959 1250
19.1799996383488 1234
19.1999996379018 1227
19.2199996374547 1268
19.2399996370077 1265
19.2599996365607 1353
19.2799996361136 1256
19.2999996356666 1285
19.3199996352196 1258
19.3399996347725 1300
19.3599996343255 1268
19.3799996338785 1317
19.3999996334314 1326
19.4199996329844 1325
19.4399996325374 1391
19.4599996320903 1371
19.4799996316433 1377
19.4999996311963 1302
19.5199996307492 1360
19.5399996303022 1310
19.5599996298552 1335
19.5799996294081 1359
19.5999996289611 1353
19.6199996285141 1288
19.639999628067 1331
19.65999962762 1370
19.6799996271729 1339
19.6999996267259 1330
19.7199996262789 1398
19.7399996258318 1317
19.7599996253848 1301
19.7799996249378 1267
19.7999996244907 1324
19.8199996240437 1324
19.8399996235967 1372
19.8599996231496 1334
19.8799996227026 1269
19.8999996222556 1337
19.9199996218085 1371
19.9399996213615 1369
19.9599996209145 1362
19.9799996204674 1462
19.9999996200204 1417
