3 2796
3.01999999955297 2735
3.03999999910593 2664
3.0599999986589 2427
3.07999999821186 2380
3.09999999776483 2259
3.11999999731779 2219
3.13999999687076 2233
3.15999999642372 2175
3.17999999597669 2101
3.19999999552965 2087
3.21999999508262 2074
3.23999999463558 2015
3.25999999418855 2030
3.27999999374151 2005
3.29999999329448 2048
3.31999999284744 1953
3.33999999240041 1972
3.35999999195337 1935
3.37999999150634 1988
3.3999999910593 1956
3.41999999061227 1907
3.43999999016523 1870
3.4599999897182 1876
3.47999998927116 1826
3.49999998882413 1755
3.51999998837709 1817
3.53999998793006 1744
3.55999998748302 1731
3.57999998703599 1766
3.59999998658895 1788
3.61999998614192 1702
3.63999998569489 1657
3.65999998524785 1724
3.67999998480082 1664
3.69999998435378 1672
3.71999998390675 1704
3.73999998345971 1680
3.75999998301268 1653
3.77999998256564 1618
3.79999998211861 1619
3.81999998167157 1586
3.83999998122454 1704
3.8599999807775 1645
3.87999998033047 1703
3.89999997988343 1704
3.9199999794364 1575
3.93999997898936 1605
3.95999997854233 1659
3.97999997809529 1710
3.99999997764826 1736
4.01999997720122 1706
4.03999997675419 1725
4.05999997630715 1753
4.07999997586012 1795
4.09999997541308 1719
4.11999997496605 1739
4.13999997451901 1679
4.15999997407198 1686
4.17999997362494 1660
4.19999997317791 1610
4.21999997273087 1576
4.23999997228384 1544
4.25999997183681 1471
4.27999997138977 1480
4.29999997094274 1480
4.3199999704957 1419
4.33999997004867 1425
4.35999996960163 1403
4.3799999691546 1398
4.39999996870756 1334
4.41999996826053 1398
4.43999996781349 1394
4.45999996736646 1337
4.47999996691942 1336
4.49999996647239 1336
4.51999996602535 1347
4.53999996557832 1330
4.55999996513128 1326
4.57999996468425 1426
4.59999996423721 1345
4.61999996379018 1364
4.63999996334314 1364
4.65999996289611 1319
4.67999996244907 1353
4.69999996200204 1326
4.719999961555 1338
4.73999996110797 1336
4.75999996066093 1347
4.7799999602139 1336
4.79999995976686 1361
4.81999995931983 1368
4.83999995887279 1394
4.85999995842576 1420
4.87999995797873 1470
4.89999995753169 1369
4.91999995708466 1423
4.93999995663762 1469
4.95999995619059 1438
4.97999995574355 1504
4.99999995529652 1479
5.01999995484948 1449
5.03999995440245 1508
5.05999995395541 1585
5.07999995350838 1585
5.09999995306134 1631
5.11999995261431 1706
5.13999995216727 1699
5.15999995172024 1834
5.1799999512732 2011
5.19999995082617 1941
5.21999995037913 2062
5.2399999499321 2040
5.25999994948506 2158
5.27999994903803 2377
5.29999994859099 2412
5.31999994814396 2624
5.33999994769692 2783
5.35999994724989 3065
5.37999994680285 3159
5.39999994635582 3418
5.41999994590878 3811
5.43999994546175 3943
5.45999994501471 4106
5.47999994456768 3777
5.49999994412065 3110
5.51999994367361 2664
5.53999994322658 2461
5.55999994277954 2430
5.57999994233251 2404
5.59999994188547 2436
5.61999994143844 2487
5.6399999409914 2425
5.65999994054437 2521
5.67999994009733 2697
5.6999999396503 2803
5.71999993920326 2906
5.73999993875623 3167
5.75999993830919 3388
5.77999993786216 3424
5.79999993741512 3561
5.81999993696809 3541
5.83999993652105 3165
5.85999993607402 2458
5.87999993562698 1972
5.89999993517995 1563
5.91999993473291 1369
5.93999993428588 1309
5.95999993383884 1234
5.97999993339181 1174
5.99999993294477 1110
6.01999993249774 1063
6.0399999320507 1081
6.05999993160367 1040
6.07999993115663 994
6.0999999307096 1018
6.11999993026257 979
6.13999992981553 968
6.1599999293685 947
6.17999992892146 943
6.19999992847443 947
6.21999992802739 985
6.23999992758036 951
6.25999992713332 903
6.27999992668629 923
6.29999992623925 953
6.31999992579222 918
6.33999992534518 957
6.35999992489815 864
6.37999992445111 947
6.39999992400408 869
6.41999992355704 907
6.43999992311001 928
6.45999992266297 929
6.47999992221594 928
6.4999999217689 904
6.51999992132187 896
6.53999992087483 921
6.5599999204278 924
6.57999991998076 913
6.59999991953373 954
6.61999991908669 914
6.63999991863966 960
6.65999991819262 884
6.67999991774559 938
6.69999991729855 983
6.71999991685152 963
6.73999991640449 969
6.75999991595745 1015
6.77999991551042 1004
6.79999991506338 1069
6.81999991461635 1019
6.83999991416931 927
6.85999991372228 929
6.87999991327524 898
6.89999991282821 882
6.91999991238117 778
6.93999991193414 825
6.9599999114871 803
6.97999991104007 780
6.99999991059303 818
7.019999910146 790
7.03999990969896 729
7.05999990925193 733
7.07999990880489 756
7.09999990835786 755
7.11999990791082 775
7.13999990746379 740
7.15999990701675 772
7.17999990656972 724
7.19999990612268 659
7.21999990567565 710
7.23999990522861 749
7.25999990478158 735
7.27999990433454 734
7.29999990388751 723
7.31999990344047 704
7.33999990299344 740
7.35999990254641 684
7.37999990209937 692
7.39999990165234 726
7.4199999012053 684
7.43999990075827 718
7.45999990031123 709
7.4799998998642 720
7.49999989941716 731
7.51999989897013 694
7.53999989852309 756
7.55999989807606 687
7.57999989762902 675
7.59999989718199 732
7.61999989673495 702
7.63999989628792 693
7.65999989584088 707
7.67999989539385 653
7.69999989494681 708
7.71999989449978 647
7.73999989405274 700
7.75999989360571 712
7.77999989315867 695
7.79999989271164 716
7.8199998922646 686
7.83999989181757 668
7.85999989137053 671
7.8799998909235 690
7.89999989047646 678
7.91999989002943 695
7.9399998895824 671
7.95999988913536 676
7.97999988868833 669
7.99999988824129 681
8.01999988779426 698
8.03999988734722 724
8.05999988690019 700
8.07999988645315 672
8.09999988600612 691
8.11999988555908 683
8.13999988511205 735
8.15999988466501 671
8.17999988421798 689
8.19999988377094 691
8.21999988332391 703
8.23999988287687 660
8.25999988242984 712
8.2799998819828 670
8.29999988153577 693
8.31999988108873 630
8.3399998806417 638
8.35999988019466 667
8.37999987974763 652
8.39999987930059 646
8.41999987885356 626
8.43999987840652 650
8.45999987795949 689
8.47999987751245 643
8.49999987706542 659
8.51999987661839 665
8.53999987617135 630
8.55999987572432 612
8.57999987527728 631
8.59999987483025 632
8.61999987438321 602
8.63999987393618 603
8.65999987348914 605
8.67999987304211 650
8.69999987259507 611
8.71999987214804 636
8.739999871701 654
8.75999987125397 640
8.77999987080693 631
8.7999998703599 642
8.81999986991286 656
8.83999986946583 644
8.85999986901879 646
8.87999986857176 661
8.89999986812472 678
8.91999986767769 675
8.93999986723065 669
8.95999986678362 640
8.97999986633658 722
8.99999986588955 690
9.01999986544251 734
9.03999986499548 706
9.05999986454844 752
9.07999986410141 743
9.09999986365438 796
9.11999986320734 815
9.13999986276031 794
9.15999986231327 850
9.17999986186624 896
9.1999998614192 1007
9.21999986097217 952
9.23999986052513 992
9.2599998600781 1105
9.27999985963106 1193
9.29999985918403 1274
9.31999985873699 1435
9.33999985828996 1593
9.35999985784292 1789
9.37999985739589 1856
9.39999985694885 1714
9.41999985650182 1260
9.43999985605478 947
9.45999985560775 793
9.47999985516071 734
9.49999985471368 718
9.51999985426664 713
9.53999985381961 718
9.55999985337257 641
9.57999985292554 661
9.5999998524785 624
9.61999985203147 619
9.63999985158443 618
9.6599998511374 610
9.67999985069037 640
9.69999985024333 578
9.7199998497963 625
9.73999984934926 649
9.75999984890223 686
9.77999984845519 622
9.79999984800816 620
9.81999984756112 604
9.83999984711409 655
9.85999984666705 652
9.87999984622002 615
9.89999984577298 675
9.91999984532595 646
9.93999984487891 650
9.95999984443188 628
9.97999984398484 632
9.99999984353781 611
10.0199998430908 633
10.0399998426437 622
10.0599998421967 715
10.0799998417497 716
10.0999998413026 707
10.1199998408556 689
10.1399998404086 752
10.1599998399615 754
10.1799998395145 770
10.1999998390675 826
10.2199998386204 850
10.2399998381734 796
10.2599998377264 766
10.2799998372793 764
10.2999998368323 645
10.3199998363853 619
10.3399998359382 607
10.3599998354912 612
10.3799998350441 579
10.3999998345971 600
10.4199998341501 566
10.439999833703 600
10.459999833256 628
10.479999832809 623
10.4999998323619 635
10.5199998319149 590
10.5399998314679 618
10.5599998310208 646
10.5799998305738 615
10.5999998301268 668
10.6199998296797 676
10.6399998292327 744
10.6599998287857 647
10.6799998283386 733
10.6999998278916 789
10.7199998274446 749
10.7399998269975 832
10.7599998265505 927
10.7799998261034 964
10.7999998256564 1008
10.8199998252094 1033
10.8399998247623 1031
10.8599998243153 905
10.8799998238683 892
10.8999998234212 903
10.9199998229742 959
10.9399998225272 918
10.9599998220801 968
10.9799998216331 1032
10.9999998211861 1061
11.019999820739 1058
11.039999820292 912
11.059999819845 768
11.0799998193979 654
11.0999998189509 599
11.1199998185039 577
11.1399998180568 617
11.1599998176098 624
11.1799998171628 579
11.1999998167157 572
11.2199998162687 561
11.2399998158216 569
11.2599998153746 579
11.2799998149276 588
11.2999998144805 546
11.3199998140335 582
11.3399998135865 606
11.3599998131394 597
11.3799998126924 576
11.3999998122454 652
11.4199998117983 598
11.4399998113513 637
11.4599998109043 671
11.4799998104572 693
11.4999998100102 703
11.5199998095632 737
11.5399998091161 730
11.5599998086691 701
11.5799998082221 717
11.599999807775 675
11.619999807328 629
11.639999806881 611
11.6599998064339 565
11.6799998059869 528
11.6999998055398 610
11.7199998050928 548
11.7399998046458 571
11.7599998041987 554
11.7799998037517 538
11.7999998033047 603
11.8199998028576 549
11.8399998024106 536
11.8599998019636 538
11.8799998015165 551
11.8999998010695 553
11.9199998006225 545
11.9399998001754 539
11.9599997997284 530
11.9799997992814 548
11.9999997988343 562
12.0199997983873 540
12.0399997979403 584
12.0599997974932 602
12.0799997970462 572
12.0999997965992 532
12.1199997961521 572
12.1399997957051 603
12.159999795258 617
12.179999794811 556
12.199999794364 590
12.2199997939169 608
12.2399997934699 603
12.2599997930229 652
12.2799997925758 577
12.2999997921288 605
12.3199997916818 641
12.3399997912347 597
12.3599997907877 576
12.3799997903407 611
12.3999997898936 608
12.4199997894466 596
12.4399997889996 527
12.4599997885525 562
12.4799997881055 557
12.4999997876585 563
12.5199997872114 547
12.5399997867644 553
12.5599997863173 513
12.5799997858703 530
12.5999997854233 505
12.6199997849762 512
12.6399997845292 493
12.6599997840822 544
12.6799997836351 528
12.6999997831881 521
12.7199997827411 481
12.739999782294 507
12.759999781847 520
12.7799997814 548
12.7999997809529 548
12.8199997805059 527
12.8399997800589 540
12.8599997796118 529
12.8799997791648 502
12.8999997787178 518
12.9199997782707 530
12.9399997778237 509
12.9599997773767 520
12.9799997769296 546
12.9999997764826 541
13.0199997760355 566
13.0399997755885 532
13.0599997751415 550
13.0799997746944 513
13.0999997742474 541
13.1199997738004 495
13.1399997733533 493
13.1599997729063 557
13.1799997724593 557
13.1999997720122 535
13.2199997715652 553
13.2399997711182 515
13.2599997706711 568
13.2799997702241 553
13.2999997697771 562
13.31999976933 531
13.339999768883 560
13.359999768436 581
13.3799997679889 594
13.3999997675419 574
13.4199997670949 530
13.4399997666478 547
13.4599997662008 540
13.4799997657537 592
13.4999997653067 562
13.5199997648597 562
13.5399997644126 562
13.5599997639656 561
13.5799997635186 562
13.5999997630715 540
13.6199997626245 506
13.6399997621775 584
13.6599997617304 547
13.6799997612834 559
13.6999997608364 550
13.7199997603893 543
13.7399997599423 503
13.7599997594953 514
13.7799997590482 543
13.7999997586012 538
13.8199997581542 564
13.8399997577071 539
13.8599997572601 495
13.879999756813 580
13.899999756366 541
13.919999755919 529
13.9399997554719 555
13.9599997550249 559
13.9799997545779 534
13.9999997541308 551
14.0199997536838 605
14.0399997532368 533
14.0599997527897 574
14.0799997523427 540
14.0999997518957 590
14.1199997514486 534
14.1399997510016 563
14.1599997505546 529
14.1799997501075 550
14.1999997496605 589
14.2199997492135 603
14.2399997487664 599
14.2599997483194 637
14.2799997478724 598
14.2999997474253 542
14.3199997469783 568
14.3399997465312 638
14.3599997460842 611
14.3799997456372 602
14.3999997451901 549
14.4199997447431 579
14.4399997442961 585
14.459999743849 625
14.479999743402 572
14.499999742955 526
14.5199997425079 571
14.5399997420609 586
14.5599997416139 518
14.5799997411668 522
14.5999997407198 562
14.6199997402728 558
14.6399997398257 522
14.6599997393787 552
14.6799997389317 542
14.6999997384846 563
14.7199997380376 556
14.7399997375906 544
14.7599997371435 610
14.7799997366965 587
14.7999997362494 559
14.8199997358024 588
14.8399997353554 589
14.8599997349083 591
14.8799997344613 611
14.8999997340143 627
14.9199997335672 580
14.9399997331202 579
14.9599997326732 588
14.9799997322261 606
14.9999997317791 566
15.0199997313321 581
15.039999730885 603
15.059999730438 571
15.079999729991 541
15.0999997295439 588
15.1199997290969 574
15.1399997286499 597
15.1599997282028 586
15.1799997277558 584
15.1999997273088 579
15.2199997268617 561
15.2399997264147 553
15.2599997259676 569
15.2799997255206 564
15.2999997250736 577
15.3199997246265 529
15.3399997241795 571
15.3599997237325 569
15.3799997232854 590
15.3999997228384 584
15.4199997223914 617
15.4399997219443 576
15.4599997214973 571
15.4799997210503 585
15.4999997206032 600
15.5199997201562 573
15.5399997197092 566
15.5599997192621 565
15.5799997188151 556
15.5999997183681 619
15.619999717921 540
15.639999717474 571
15.659999717027 602
15.6799997165799 578
15.6999997161329 614
15.7199997156858 584
15.7399997152388 542
15.7599997147918 579
15.7799997143447 571
15.7999997138977 578
15.8199997134507 573
15.8399997130036 589
15.8599997125566 592
15.8799997121096 597
15.8999997116625 582
15.9199997112155 585
15.9399997107685 599
15.9599997103214 610
15.9799997098744 592
15.9999997094274 600
16.0199997089803 558
16.0399997085333 573
16.0599997080863 618
16.0799997076392 590
16.0999997071922 620
16.1199997067451 589
16.1399997062981 588
16.1599997058511 619
16.179999705404 603
16.199999704957 605
16.21999970451 634
16.2399997040629 639
16.2599997036159 579
16.2799997031689 591
16.2999997027218 618
16.3199997022748 659
16.3399997018278 660
16.3599997013807 625
16.3799997009337 714
16.3999997004867 638
16.4199997000396 571
16.4399996995926 633
16.4599996991456 604
16.4799996986985 613
16.4999996982515 637
16.5199996978045 658
16.5399996973574 608
16.5599996969104 622
16.5799996964633 597
16.5999996960163 689
16.6199996955693 606
16.6399996951222 642
16.6599996946752 612
16.6799996942282 642
16.6999996937811 673
16.7199996933341 678
16.7399996928871 643
16.75999969244 606
16.779999691993 621
16.799999691546 640
16.8199996910989 645
16.8399996906519 640
16.8599996902049 631
16.8799996897578 674
16.8999996893108 605
16.9199996888638 649
16.9399996884167 631
16.9599996879697 646
16.9799996875226 617
16.9999996870756 601
17.0199996866286 624
17.0399996861815 690
17.0599996857345 653
17.0799996852875 656
17.0999996848404 661
17.1199996843934 630
17.1399996839464 605
17.1599996834993 640
17.1799996830523 680
17.1999996826053 622
17.2199996821582 657
17.2399996817112 666
17.2599996812642 651
17.2799996808171 672
17.2999996803701 672
17.3199996799231 676
17.339999679476 721
17.359999679029 686
17.379999678582 668
17.3999996781349 688
17.4199996776879 682
17.4399996772408 707
17.4599996767938 692
17.4799996763468 720
17.4999996758997 697
17.5199996754527 702
17.5399996750057 757
17.5599996745586 705
17.5799996741116 708
17.5999996736646 700
17.6199996732175 733
17.6399996727705 696
17.6599996723235 728
17.6799996718764 727
17.6999996714294 769
17.7199996709824 651
17.7399996705353 704
17.7599996700883 684
17.7799996696413 687
17.7999996691942 673
17.8199996687472 696
17.8399996683002 713
17.8599996678531 711
17.8799996674061 713
17.899999666959 748
17.919999666512 737
17.939999666065 702
17.9599996656179 711
17.9799996651709 718
17.9999996647239 733
18.0199996642768 733
18.0399996638298 669
18.0599996633828 718
18.0799996629357 674
18.0999996624887 659
18.1199996620417 705
18.1399996615946 656
18.1599996611476 702
18.1799996607006 726
18.1999996602535 660
18.2199996598065 665
18.2399996593595 742
18.2599996589124 751
18.2799996584654 735
18.2999996580184 696
18.3199996575713 709
18.3399996571243 737
18.3599996566772 732
18.3799996562302 724
18.3999996557832 718
18.4199996553361 695
18.4399996548891 672
18.4599996544421 729
18.479999653995 740
18.499999653548 712
18.519999653101 776
18.5399996526539 720
18.5599996522069 762
18.5799996517599 722
18.5999996513128 750
18.6199996508658 755
18.6399996504188 789
18.6599996499717 776
18.6799996495247 783
18.6999996490777 834
18.7199996486306 849
18.7399996481836 810
18.7599996477366 764
18.7799996472895 809
18.7999996468425 837
18.8199996463954 813
18.8399996459484 812
18.8599996455014 844
18.8799996450543 795
18.8999996446073 796
18.9199996441603 846
18.9399996437132 829
18.9599996432662 853
18.9799996428192 874
18.9999996423721 784
19.0199996419251 847
19.0399996414781 831
19.059999641031 834
19.079999640584 898
19.099999640137 883
19.1199996396899 940
19.1399996392429 961
19.1599996387959 990
19.1799996383488 955
19.1999996379018 952
19.2199996374547 877
19.2399996370077 865
19.2599996365607 828
19.2799996361136 845
19.2999996356666 887
19.3199996352196 851
19.3399996347725 855
19.3599996343255 879
19.3799996338785 885
19.3999996334314 903
19.4199996329844 893
19.4399996325374 998
19.4599996320903 994
19.4799996316433 1042
19.4999996311963 1046
19.5199996307492 1056
19.5399996303022 1091
19.5599996298552 1113
19.5799996294081 1047
19.5999996289611 1062
19.6199996285141 1083
19.639999628067 936
19.65999962762 885
19.6799996271729 806
19.6999996267259 879
19.7199996262789 843
19.7399996258318 873
19.7599996253848 862
19.7799996249378 837
19.7999996244907 858
19.8199996240437 886
19.8399996235967 918
19.8599996231496 929
19.8799996227026 884
19.8999996222556 948
19.9199996218085 956
19.9399996213615 967
19.9599996209145 912
19.9799996204674 872
19.9999996200204 873
