3 2659
3.01999999955297 2383
3.03999999910593 2234
3.0599999986589 2203
3.07999999821186 2097
3.09999999776483 1939
3.11999999731779 1988
3.13999999687076 1903
3.15999999642372 1827
3.17999999597669 1797
3.19999999552965 1824
3.21999999508262 1764
3.23999999463558 1729
3.25999999418855 1832
3.27999999374151 1730
3.29999999329448 1714
3.31999999284744 1757
3.33999999240041 1723
3.35999999195337 1720
3.37999999150634 1656
3.3999999910593 1664
3.41999999061227 1623
3.43999999016523 1671
3.4599999897182 1613
3.47999998927116 1628
3.49999998882413 1542
3.51999998837709 1510
3.53999998793006 1557
3.55999998748302 1568
3.57999998703599 1575
3.59999998658895 1490
3.61999998614192 1522
3.63999998569489 1498
3.65999998524785 1488
3.67999998480082 1492
3.69999998435378 1514
3.71999998390675 1491
3.73999998345971 1449
3.75999998301268 1415
3.77999998256564 1378
3.79999998211861 1400
3.81999998167157 1413
3.83999998122454 1383
3.8599999807775 1373
3.87999998033047 1337
3.89999997988343 1398
3.9199999794364 1309
3.93999997898936 1328
3.95999997854233 1218
3.97999997809529 1212
3.99999997764826 1291
4.01999997720122 1292
4.03999997675419 1141
4.05999997630715 1298
4.07999997586012 1241
4.09999997541308 1236
4.11999997496605 1212
4.13999997451901 1194
4.15999997407198 1190
4.17999997362494 1216
4.19999997317791 1176
4.21999997273087 1203
4.23999997228384 1117
4.25999997183681 1213
4.27999997138977 1171
4.29999997094274 1177
4.3199999704957 1131
4.33999997004867 1158
4.35999996960163 1145
4.3799999691546 1180
4.39999996870756 1081
4.41999996826053 1135
4.43999996781349 1107
4.45999996736646 1094
4.47999996691942 1136
4.49999996647239 1121
4.51999996602535 1132
4.53999996557832 1119
4.55999996513128 1071
4.57999996468425 1108
4.59999996423721 1108
4.61999996379018 1095
4.63999996334314 1076
4.65999996289611 1143
4.67999996244907 1118
4.69999996200204 1138
4.719999961555 1080
4.73999996110797 1072
4.75999996066093 1086
4.7799999602139 1124
4.79999995976686 1149
4.81999995931983 1148
4.83999995887279 1178
4.85999995842576 1188
4.87999995797873 1147
4.89999995753169 1160
4.91999995708466 1227
4.93999995663762 1140
4.95999995619059 1199
4.97999995574355 1232
4.99999995529652 1346
5.01999995484948 1336
5.03999995440245 1292
5.05999995395541 1393
5.07999995350838 1449
5.09999995306134 1517
5.11999995261431 1478
5.13999995216727 1579
5.15999995172024 1589
5.1799999512732 1731
5.19999995082617 1747
5.21999995037913 1889
5.2399999499321 1973
5.25999994948506 2098
5.27999994903803 2218
5.29999994859099 2364
5.31999994814396 2574
5.33999994769692 2793
5.35999994724989 3187
5.37999994680285 3636
5.39999994635582 4168
5.41999994590878 4206
5.43999994546175 3333
5.45999994501471 2652
5.47999994456768 2284
5.49999994412065 1939
5.51999994367361 1810
5.53999994322658 1638
5.55999994277954 1596
5.57999994233251 1521
5.59999994188547 1463
5.61999994143844 1370
5.6399999409914 1310
5.65999994054437 1283
5.67999994009733 1281
5.6999999396503 1230
5.71999993920326 1209
5.73999993875623 1147
5.75999993830919 1178
5.77999993786216 1065
5.79999993741512 1043
5.81999993696809 1100
5.83999993652105 1041
5.85999993607402 1009
5.87999993562698 968
5.89999993517995 969
5.91999993473291 909
5.93999993428588 925
5.95999993383884 934
5.97999993339181 926
5.99999993294477 950
6.01999993249774 922
6.0399999320507 872
6.05999993160367 867
6.07999993115663 839
6.0999999307096 882
6.11999993026257 837
6.13999992981553 779
6.1599999293685 846
6.17999992892146 826
6.19999992847443 868
6.21999992802739 786
6.23999992758036 826
6.25999992713332 844
6.27999992668629 826
6.29999992623925 791
6.31999992579222 845
6.33999992534518 808
6.35999992489815 798
6.37999992445111 803
6.39999992400408 804
6.41999992355704 808
6.43999992311001 790
6.45999992266297 802
6.47999992221594 781
6.4999999217689 775
6.51999992132187 793
6.53999992087483 797
6.5599999204278 786
6.57999991998076 785
6.59999991953373 769
6.61999991908669 792
6.63999991863966 750
6.65999991819262 766
6.67999991774559 793
6.69999991729855 761
6.71999991685152 756
6.73999991640449 827
6.75999991595745 805
6.77999991551042 800
6.79999991506338 777
6.81999991461635 752
6.83999991416931 732
6.85999991372228 747
6.87999991327524 787
6.89999991282821 781
6.91999991238117 754
6.93999991193414 761
6.9599999114871 813
6.97999991104007 804
6.99999991059303 808
7.019999910146 777
7.03999990969896 740
7.05999990925193 847
7.07999990880489 835
7.09999990835786 812
7.11999990791082 797
7.13999990746379 790
7.15999990701675 778
7.17999990656972 762
7.19999990612268 825
7.21999990567565 829
7.23999990522861 819
7.25999990478158 830
7.27999990433454 848
7.29999990388751 910
7.31999990344047 874
7.33999990299344 916
7.35999990254641 894
7.37999990209937 901
7.39999990165234 893
7.4199999012053 996
7.43999990075827 997
7.45999990031123 1073
7.4799998998642 1015
7.49999989941716 1057
7.51999989897013 1101
7.53999989852309 1112
7.55999989807606 1234
7.57999989762902 1200
7.59999989718199 1150
7.61999989673495 1201
7.63999989628792 1266
7.65999989584088 1193
7.67999989539385 1238
7.69999989494681 1258
7.71999989449978 1355
7.73999989405274 1379
7.75999989360571 1401
7.77999989315867 1434
7.79999989271164 1408
7.8199998922646 1382
7.83999989181757 1457
7.85999989137053 1311
7.8799998909235 1259
7.89999989047646 1267
7.91999989002943 1300
7.9399998895824 1258
7.95999988913536 1362
7.97999988868833 1256
7.99999988824129 1146
8.01999988779426 1166
8.03999988734722 1135
8.05999988690019 1130
8.07999988645315 1086
8.09999988600612 1057
8.11999988555908 1066
8.13999988511205 1034
8.15999988466501 997
8.17999988421798 933
8.19999988377094 973
8.21999988332391 960
8.23999988287687 864
8.25999988242984 960
8.2799998819828 876
8.29999988153577 899
8.31999988108873 887
8.3399998806417 891
8.35999988019466 819
8.37999987974763 805
8.39999987930059 866
8.41999987885356 869
8.43999987840652 874
8.45999987795949 808
8.47999987751245 846
8.49999987706542 820
8.51999987661839 752
8.53999987617135 833
8.55999987572432 800
8.57999987527728 834
8.59999987483025 769
8.61999987438321 800
8.63999987393618 827
8.65999987348914 831
8.67999987304211 725
8.69999987259507 811
8.71999987214804 780
8.739999871701 783
8.75999987125397 813
8.77999987080693 823
8.7999998703599 810
8.81999986991286 898
8.83999986946583 905
8.85999986901879 885
8.87999986857176 947
8.89999986812472 929
8.91999986767769 993
8.93999986723065 982
8.95999986678362 978
8.97999986633658 1074
8.99999986588955 1034
9.01999986544251 1009
9.03999986499548 984
9.05999986454844 1021
9.07999986410141 1033
9.09999986365438 997
9.11999986320734 1104
9.13999986276031 1085
9.15999986231327 1063
9.17999986186624 1103
9.1999998614192 1086
9.21999986097217 1119
9.23999986052513 1233
9.2599998600781 1234
9.27999985963106 1358
9.29999985918403 1447
9.31999985873699 1597
9.33999985828996 1600
9.35999985784292 1381
9.37999985739589 1165
9.39999985694885 997
9.41999985650182 887
9.43999985605478 837
9.45999985560775 818
9.47999985516071 811
9.49999985471368 768
9.51999985426664 739
9.53999985381961 728
9.55999985337257 736
9.57999985292554 710
9.5999998524785 679
9.61999985203147 669
9.63999985158443 721
9.6599998511374 728
9.67999985069037 686
9.69999985024333 716
9.7199998497963 687
9.73999984934926 696
9.75999984890223 676
9.77999984845519 666
9.79999984800816 703
9.81999984756112 688
9.83999984711409 699
9.85999984666705 721
9.87999984622002 787
9.89999984577298 744
9.91999984532595 737
9.93999984487891 714
9.95999984443188 727
9.97999984398484 732
9.99999984353781 753
10.0199998430908 785
10.0399998426437 756
10.0599998421967 727
10.0799998417497 679
10.0999998413026 709
10.1199998408556 747
10.1399998404086 721
10.1599998399615 737
10.1799998395145 791
10.1999998390675 757
10.2199998386204 731
10.2399998381734 759
10.2599998377264 774
10.2799998372793 812
10.2999998368323 750
10.3199998363853 747
10.3399998359382 760
10.3599998354912 738
10.3799998350441 807
10.3999998345971 791
10.4199998341501 766
10.439999833703 766
10.459999833256 804
10.479999832809 769
10.4999998323619 792
10.5199998319149 804
10.5399998314679 847
10.5599998310208 747
10.5799998305738 775
10.5999998301268 835
10.6199998296797 808
10.6399998292327 826
10.6599998287857 866
10.6799998283386 860
10.6999998278916 901
10.7199998274446 971
10.7399998269975 1058
10.7599998265505 1057
10.7799998261034 1107
10.7999998256564 1035
10.8199998252094 979
10.8399998247623 863
10.8599998243153 880
10.8799998238683 807
10.8999998234212 850
10.9199998229742 806
10.9399998225272 808
10.9599998220801 793
10.9799998216331 747
10.9999998211861 742
11.019999820739 725
11.039999820292 789
11.059999819845 703
11.0799998193979 723
11.0999998189509 664
11.1199998185039 675
11.1399998180568 658
11.1599998176098 627
11.1799998171628 628
11.1999998167157 645
11.2199998162687 605
11.2399998158216 635
11.2599998153746 622
11.2799998149276 632
11.2999998144805 586
11.3199998140335 615
11.3399998135865 608
11.3599998131394 599
11.3799998126924 610
11.3999998122454 600
11.4199998117983 591
11.4399998113513 615
11.4599998109043 576
11.4799998104572 629
11.4999998100102 630
11.5199998095632 602
11.5399998091161 543
11.5599998086691 630
11.5799998082221 591
11.599999807775 592
11.619999807328 564
11.639999806881 567
11.6599998064339 608
11.6799998059869 523
11.6999998055398 573
11.7199998050928 551
11.7399998046458 557
11.7599998041987 599
11.7799998037517 560
11.7999998033047 598
11.8199998028576 561
11.8399998024106 582
11.8599998019636 591
11.8799998015165 562
11.8999998010695 592
11.9199998006225 589
11.9399998001754 580
11.9599997997284 532
11.9799997992814 581
11.9999997988343 601
12.0199997983873 567
12.0399997979403 603
12.0599997974932 660
12.0799997970462 618
12.0999997965992 600
12.1199997961521 599
12.1399997957051 634
12.159999795258 648
12.179999794811 682
12.199999794364 696
12.2199997939169 671
12.2399997934699 696
12.2599997930229 722
12.2799997925758 765
12.2999997921288 730
12.3199997916818 799
12.3399997912347 798
12.3599997907877 814
12.3799997903407 751
12.3999997898936 731
12.4199997894466 699
12.4399997889996 659
12.4599997885525 654
12.4799997881055 706
12.4999997876585 681
12.5199997872114 692
12.5399997867644 691
12.5599997863173 706
12.5799997858703 696
12.5999997854233 730
12.6199997849762 758
12.6399997845292 702
12.6599997840822 678
12.6799997836351 690
12.6999997831881 667
12.7199997827411 623
12.739999782294 689
12.759999781847 589
12.7799997814 624
12.7999997809529 624
12.8199997805059 609
12.8399997800589 639
12.8599997796118 599
12.8799997791648 604
12.8999997787178 614
12.9199997782707 608
12.9399997778237 621
12.9599997773767 591
12.9799997769296 618
12.9999997764826 620
13.0199997760355 588
13.0399997755885 600
13.0599997751415 609
13.0799997746944 596
13.0999997742474 544
13.1199997738004 592
13.1399997733533 577
13.1599997729063 591
13.1799997724593 563
13.1999997720122 597
13.2199997715652 591
13.2399997711182 587
13.2599997706711 621
13.2799997702241 582
13.2999997697771 564
13.31999976933 587
13.339999768883 627
13.359999768436 569
13.3799997679889 595
13.3999997675419 579
13.4199997670949 508
13.4399997666478 562
13.4599997662008 588
13.4799997657537 565
13.4999997653067 578
13.5199997648597 564
13.5399997644126 595
13.5599997639656 641
13.5799997635186 589
13.5999997630715 577
13.6199997626245 580
13.6399997621775 592
13.6599997617304 584
13.6799997612834 589
13.6999997608364 590
13.7199997603893 601
13.7399997599423 530
13.7599997594953 526
13.7799997590482 588
13.7999997586012 582
13.8199997581542 547
13.8399997577071 524
13.8599997572601 552
13.879999756813 578
13.899999756366 544
13.919999755919 529
13.9399997554719 582
13.9599997550249 594
13.9799997545779 576
13.9999997541308 538
14.0199997536838 565
14.0399997532368 575
14.0599997527897 558
14.0799997523427 582
14.0999997518957 591
14.1199997514486 637
14.1399997510016 601
14.1599997505546 599
14.1799997501075 561
14.1999997496605 599
14.2199997492135 635
14.2399997487664 577
14.2599997483194 549
14.2799997478724 593
14.2999997474253 609
14.3199997469783 586
14.3399997465312 577
14.3599997460842 587
14.3799997456372 549
14.3999997451901 577
14.4199997447431 627
14.4399997442961 563
14.459999743849 519
14.479999743402 540
14.499999742955 562
14.5199997425079 557
14.5399997420609 586
14.5599997416139 561
14.5799997411668 612
14.5999997407198 588
14.6199997402728 577
14.6399997398257 532
14.6599997393787 591
14.6799997389317 583
14.6999997384846 587
14.7199997380376 564
14.7399997375906 553
14.7599997371435 583
14.7799997366965 589
14.7999997362494 615
14.8199997358024 603
14.8399997353554 575
14.8599997349083 570
14.8799997344613 555
14.8999997340143 589
14.9199997335672 624
14.9399997331202 586
14.9599997326732 583
14.9799997322261 596
14.9999997317791 619
15.0199997313321 591
15.039999730885 555
15.059999730438 582
15.079999729991 622
15.0999997295439 580
15.1199997290969 584
15.1399997286499 607
15.1599997282028 575
15.1799997277558 584
15.1999997273088 584
15.2199997268617 605
15.2399997264147 557
15.2599997259676 559
15.2799997255206 590
15.2999997250736 598
15.3199997246265 529
15.3399997241795 557
15.3599997237325 598
15.3799997232854 599
15.3999997228384 593
15.4199997223914 631
15.4399997219443 566
15.4599997214973 612
15.4799997210503 616
15.4999997206032 581
15.5199997201562 586
15.5399997197092 594
15.5599997192621 636
15.5799997188151 594
15.5999997183681 575
15.619999717921 595
15.639999717474 579
15.659999717027 580
15.6799997165799 636
15.6999997161329 611
15.7199997156858 608
15.7399997152388 587
15.7599997147918 600
15.7799997143447 551
15.7999997138977 617
15.8199997134507 572
15.8399997130036 599
15.8599997125566 616
15.8799997121096 628
15.8999997116625 681
15.9199997112155 589
15.9399997107685 623
15.9599997103214 589
15.9799997098744 601
15.9999997094274 639
16.0199997089803 597
16.0399997085333 635
16.0599997080863 637
16.0799997076392 577
16.0999997071922 630
16.1199997067451 642
16.1399997062981 637
16.1599997058511 660
16.179999705404 668
16.199999704957 628
16.21999970451 639
16.2399997040629 636
16.2599997036159 627
16.2799997031689 645
16.2999997027218 602
16.3199997022748 650
16.3399997018278 673
16.3599997013807 671
16.3799997009337 658
16.3999997004867 679
16.4199997000396 663
16.4399996995926 640
16.4599996991456 656
16.4799996986985 646
16.4999996982515 676
16.5199996978045 722
16.5399996973574 659
16.5599996969104 649
16.5799996964633 644
16.5999996960163 640
16.6199996955693 638
16.6399996951222 697
16.6599996946752 678
16.6799996942282 647
16.6999996937811 680
16.7199996933341 643
16.7399996928871 640
16.75999969244 670
16.779999691993 697
16.799999691546 663
16.8199996910989 681
16.8399996906519 657
16.8599996902049 680
16.8799996897578 712
16.8999996893108 672
16.9199996888638 673
16.9399996884167 732
16.9599996879697 761
16.9799996875226 779
16.9999996870756 710
17.0199996866286 665
17.0399996861815 715
17.0599996857345 658
17.0799996852875 684
17.0999996848404 670
17.1199996843934 695
17.1399996839464 714
17.1599996834993 703
17.1799996830523 707
17.1999996826053 737
17.2199996821582 743
17.2399996817112 731
17.2599996812642 703
17.2799996808171 686
17.2999996803701 679
17.3199996799231 706
17.339999679476 711
17.359999679029 717
17.379999678582 699
17.3999996781349 711
17.4199996776879 726
17.4399996772408 698
17.4599996767938 701
17.4799996763468 748
17.4999996758997 752
17.5199996754527 689
17.5399996750057 737
17.5599996745586 712
17.5799996741116 716
17.5999996736646 757
17.6199996732175 700
17.6399996727705 719
17.6599996723235 760
17.6799996718764 721
17.6999996714294 724
17.7199996709824 795
17.7399996705353 726
17.7599996700883 754
17.7799996696413 693
17.7999996691942 697
17.8199996687472 766
17.8399996683002 775
17.8599996678531 739
17.8799996674061 752
17.899999666959 795
17.919999666512 774
17.939999666065 773
17.9599996656179 746
17.9799996651709 741
17.9999996647239 771
18.0199996642768 762
18.0399996638298 757
18.0599996633828 793
18.0799996629357 794
18.0999996624887 759
18.1199996620417 763
18.1399996615946 766
18.1599996611476 760
18.1799996607006 765
18.1999996602535 808
18.2199996598065 780
18.2399996593595 799
18.2599996589124 756
18.2799996584654 736
18.2999996580184 748
18.3199996575713 785
18.3399996571243 778
18.3599996566772 771
18.3799996562302 812
18.3999996557832 779
18.4199996553361 804
18.4399996548891 770
18.4599996544421 850
18.479999653995 846
18.499999653548 781
18.519999653101 827
18.5399996526539 805
18.5599996522069 835
18.5799996517599 824
18.5999996513128 837
18.6199996508658 870
18.6399996504188 845
18.6599996499717 882
18.6799996495247 845
18.6999996490777 904
18.7199996486306 835
18.7399996481836 891
18.7599996477366 826
18.7799996472895 859
18.7999996468425 878
18.8199996463954 832
18.8399996459484 874
18.8599996455014 846
18.8799996450543 860
18.8999996446073 877
18.9199996441603 841
18.9399996437132 887
18.9599996432662 884
18.9799996428192 881
18.9999996423721 870
19.0199996419251 870
19.0399996414781 861
19.059999641031 833
19.079999640584 830
19.099999640137 866
19.1199996396899 851
19.1399996392429 805
19.1599996387959 917
19.1799996383488 864
19.1999996379018 814
19.2199996374547 892
19.2399996370077 950
19.2599996365607 870
19.2799996361136 878
19.2999996356666 921
19.3199996352196 913
19.3399996347725 968
19.3599996343255 984
19.3799996338785 979
19.3999996334314 963
19.4199996329844 1023
19.4399996325374 1068
19.4599996320903 1075
19.4799996316433 1075
19.4999996311963 1055
19.5199996307492 1072
19.5399996303022 973
19.5599996298552 986
19.5799996294081 1016
19.5999996289611 953
19.6199996285141 977
19.639999628067 951
19.65999962762 942
19.6799996271729 920
19.6999996267259 998
19.7199996262789 902
19.7399996258318 978
19.7599996253848 935
19.7799996249378 915
19.7999996244907 958
19.8199996240437 922
19.8399996235967 987
19.8599996231496 986
19.8799996227026 952
19.8999996222556 952
19.9199996218085 902
19.9399996213615 929
19.9599996209145 972
19.9799996204674 957
19.9999996200204 1002
