3 2707
3.01999999955297 2520
3.03999999910593 2494
3.0599999986589 2370
3.07999999821186 2296
3.09999999776483 2143
3.11999999731779 2106
3.13999999687076 2127
3.15999999642372 2040
3.17999999597669 1927
3.19999999552965 1964
3.21999999508262 1964
3.23999999463558 1944
3.25999999418855 1875
3.27999999374151 1893
3.29999999329448 1802
3.31999999284744 1828
3.33999999240041 1808
3.35999999195337 1824
3.37999999150634 1735
3.3999999910593 1815
3.41999999061227 1794
3.43999999016523 1688
3.4599999897182 1758
3.47999998927116 1684
3.49999998882413 1661
3.51999998837709 1679
3.53999998793006 1678
3.55999998748302 1578
3.57999998703599 1681
3.59999998658895 1643
3.61999998614192 1637
3.63999998569489 1531
3.65999998524785 1530
3.67999998480082 1453
3.69999998435378 1496
3.71999998390675 1525
3.73999998345971 1543
3.75999998301268 1529
3.77999998256564 1391
3.79999998211861 1429
3.81999998167157 1422
3.83999998122454 1403
3.8599999807775 1422
3.87999998033047 1347
3.89999997988343 1403
3.9199999794364 1438
3.93999997898936 1434
3.95999997854233 1384
3.97999997809529 1403
3.99999997764826 1354
4.01999997720122 1342
4.03999997675419 1359
4.05999997630715 1356
4.07999997586012 1355
4.09999997541308 1285
4.11999997496605 1337
4.13999997451901 1265
4.15999997407198 1309
4.17999997362494 1305
4.19999997317791 1356
4.21999997273087 1335
4.23999997228384 1341
4.25999997183681 1306
4.27999997138977 1317
4.29999997094274 1255
4.3199999704957 1210
4.33999997004867 1277
4.35999996960163 1239
4.3799999691546 1234
4.39999996870756 1151
4.41999996826053 1264
4.43999996781349 1243
4.45999996736646 1250
4.47999996691942 1201
4.49999996647239 1263
4.51999996602535 1237
4.53999996557832 1133
4.55999996513128 1230
4.57999996468425 1233
4.59999996423721 1173
4.61999996379018 1142
4.63999996334314 1129
4.65999996289611 1204
4.67999996244907 1153
4.69999996200204 1156
4.719999961555 1205
4.73999996110797 1145
4.75999996066093 1154
4.7799999602139 1122
4.79999995976686 1139
4.81999995931983 1115
4.83999995887279 1196
4.85999995842576 1152
4.87999995797873 1155
4.89999995753169 1102
4.91999995708466 1130
4.93999995663762 1153
4.95999995619059 1205
4.97999995574355 1165
4.99999995529652 1142
5.01999995484948 1129
5.03999995440245 1102
5.05999995395541 1109
5.07999995350838 1163
5.09999995306134 1157
5.11999995261431 1145
5.13999995216727 1129
5.15999995172024 1136
5.1799999512732 1082
5.19999995082617 1193
5.21999995037913 1206
5.2399999499321 1190
5.25999994948506 1133
5.27999994903803 1192
5.29999994859099 1117
5.31999994814396 1231
5.33999994769692 1284
5.35999994724989 1304
5.37999994680285 1362
5.39999994635582 1429
5.41999994590878 1463
5.43999994546175 1598
5.45999994501471 1535
5.47999994456768 1453
5.49999994412065 1328
5.51999994367361 1228
5.53999994322658 1173
5.55999994277954 1089
5.57999994233251 1141
5.59999994188547 1062
5.61999994143844 1040
5.6399999409914 988
5.65999994054437 1057
5.67999994009733 952
5.6999999396503 946
5.71999993920326 1003
5.73999993875623 931
5.75999993830919 1007
5.77999993786216 974
5.79999993741512 952
5.81999993696809 922
5.83999993652105 907
5.85999993607402 987
5.87999993562698 924
5.89999993517995 906
5.91999993473291 951
5.93999993428588 909
5.95999993383884 912
5.97999993339181 953
5.99999993294477 889
6.01999993249774 867
6.0399999320507 902
6.05999993160367 863
6.07999993115663 883
6.0999999307096 866
6.11999993026257 820
6.13999992981553 830
6.1599999293685 829
6.17999992892146 858
6.19999992847443 839
6.21999992802739 857
6.23999992758036 805
6.25999992713332 805
6.27999992668629 790
6.29999992623925 860
6.31999992579222 831
6.33999992534518 883
6.35999992489815 848
6.37999992445111 763
6.39999992400408 790
6.41999992355704 847
6.43999992311001 795
6.45999992266297 798
6.47999992221594 865
6.4999999217689 750
6.51999992132187 802
6.53999992087483 809
6.5599999204278 785
6.57999991998076 795
6.59999991953373 754
6.61999991908669 822
6.63999991863966 806
6.65999991819262 790
6.67999991774559 775
6.69999991729855 771
6.71999991685152 748
6.73999991640449 749
6.75999991595745 750
6.77999991551042 778
6.79999991506338 756
6.81999991461635 740
6.83999991416931 725
6.85999991372228 776
6.87999991327524 717
6.89999991282821 732
6.91999991238117 751
6.93999991193414 704
6.9599999114871 712
6.97999991104007 761
6.99999991059303 743
7.019999910146 710
7.03999990969896 706
7.05999990925193 773
7.07999990880489 734
7.09999990835786 731
7.11999990791082 713
7.13999990746379 804
7.15999990701675 724
7.17999990656972 707
7.19999990612268 735
7.21999990567565 715
7.23999990522861 726
7.25999990478158 706
7.27999990433454 688
7.29999990388751 683
7.31999990344047 714
7.33999990299344 726
7.35999990254641 641
7.37999990209937 705
7.39999990165234 724
7.4199999012053 711
7.43999990075827 713
7.45999990031123 768
7.4799998998642 744
7.49999989941716 740
7.51999989897013 730
7.53999989852309 719
7.55999989807606 728
7.57999989762902 751
7.59999989718199 666
7.61999989673495 689
7.63999989628792 749
7.65999989584088 692
7.67999989539385 729
7.69999989494681 743
7.71999989449978 702
7.73999989405274 726
7.75999989360571 702
7.77999989315867 678
7.79999989271164 666
7.8199998922646 691
7.83999989181757 660
7.85999989137053 695
7.8799998909235 745
7.89999989047646 704
7.91999989002943 722
7.9399998895824 648
7.95999988913536 675
7.97999988868833 678
7.99999988824129 760
8.01999988779426 676
8.03999988734722 693
8.05999988690019 657
8.07999988645315 683
8.09999988600612 699
8.11999988555908 704
8.13999988511205 687
8.15999988466501 656
8.17999988421798 633
8.19999988377094 633
8.21999988332391 669
8.23999988287687 679
8.25999988242984 678
8.2799998819828 610
8.29999988153577 668
8.31999988108873 621
8.3399998806417 656
8.35999988019466 659
8.37999987974763 643
8.39999987930059 615
8.41999987885356 662
8.43999987840652 673
8.45999987795949 700
8.47999987751245 630
8.49999987706542 666
8.51999987661839 678
8.53999987617135 628
8.55999987572432 642
8.57999987527728 606
8.59999987483025 627
8.61999987438321 693
8.63999987393618 626
8.65999987348914 618
8.67999987304211 666
8.69999987259507 674
8.71999987214804 691
8.739999871701 634
8.75999987125397 687
8.77999987080693 607
8.7999998703599 654
8.81999986991286 602
8.83999986946583 648
8.85999986901879 635
8.87999986857176 664
8.89999986812472 654
8.91999986767769 642
8.93999986723065 623
8.95999986678362 625
8.97999986633658 613
8.99999986588955 659
9.01999986544251 677
9.03999986499548 647
9.05999986454844 623
9.07999986410141 667
9.09999986365438 615
9.11999986320734 653
9.13999986276031 626
9.15999986231327 594
9.17999986186624 631
9.1999998614192 632
9.21999986097217 686
9.23999986052513 664
9.2599998600781 677
9.27999985963106 697
9.29999985918403 753
9.31999985873699 732
9.33999985828996 783
9.35999985784292 814
9.37999985739589 822
9.39999985694885 749
9.41999985650182 708
9.43999985605478 670
9.45999985560775 667
9.47999985516071 623
9.49999985471368 614
9.51999985426664 618
9.53999985381961 651
9.55999985337257 624
9.57999985292554 618
9.5999998524785 586
9.61999985203147 599
9.63999985158443 576
9.6599998511374 567
9.67999985069037 592
9.69999985024333 600
9.7199998497963 582
9.73999984934926 578
9.75999984890223 609
9.77999984845519 602
9.79999984800816 594
9.81999984756112 595
9.83999984711409 611
9.85999984666705 610
9.87999984622002 567
9.89999984577298 517
9.91999984532595 629
9.93999984487891 618
9.95999984443188 567
9.97999984398484 592
9.99999984353781 578
10.0199998430908 579
10.0399998426437 554
10.0599998421967 573
10.0799998417497 560
10.0999998413026 578
10.1199998408556 569
10.1399998404086 556
10.1599998399615 597
10.1799998395145 587
10.1999998390675 567
10.2199998386204 583
10.2399998381734 570
10.2599998377264 555
10.2799998372793 563
10.2999998368323 603
10.3199998363853 553
10.3399998359382 577
10.3599998354912 567
10.3799998350441 556
10.3999998345971 569
10.4199998341501 569
10.439999833703 606
10.459999833256 563
10.479999832809 578
10.4999998323619 552
10.5199998319149 557
10.5399998314679 588
10.5599998310208 543
10.5799998305738 566
10.5999998301268 555
10.6199998296797 552
10.6399998292327 611
10.6599998287857 553
10.6799998283386 602
10.6999998278916 624
10.7199998274446 605
10.7399998269975 646
10.7599998265505 642
10.7799998261034 647
10.7999998256564 682
10.8199998252094 671
10.8399998247623 651
10.8599998243153 675
10.8799998238683 643
10.8999998234212 599
10.9199998229742 647
10.9399998225272 570
10.9599998220801 603
10.9799998216331 579
10.9999998211861 534
11.019999820739 585
11.039999820292 630
11.059999819845 591
11.0799998193979 578
11.0999998189509 539
11.1199998185039 549
11.1399998180568 544
11.1599998176098 575
11.1799998171628 527
11.1999998167157 543
11.2199998162687 580
11.2399998158216 553
11.2599998153746 584
11.2799998149276 574
11.2999998144805 579
11.3199998140335 573
11.3399998135865 522
11.3599998131394 548
11.3799998126924 545
11.3999998122454 552
11.4199998117983 591
11.4399998113513 532
11.4599998109043 570
11.4799998104572 550
11.4999998100102 553
11.5199998095632 555
11.5399998091161 589
11.5599998086691 571
11.5799998082221 583
11.599999807775 539
11.619999807328 539
11.639999806881 557
11.6599998064339 527
11.6799998059869 570
11.6999998055398 589
11.7199998050928 528
11.7399998046458 577
11.7599998041987 558
11.7799998037517 574
11.7999998033047 517
11.8199998028576 567
11.8399998024106 512
11.8599998019636 564
11.8799998015165 556
11.8999998010695 547
11.9199998006225 548
11.9399998001754 533
11.9599997997284 514
11.9799997992814 525
11.9999997988343 546
12.0199997983873 524
12.0399997979403 578
12.0599997974932 543
12.0799997970462 553
12.0999997965992 558
12.1199997961521 562
12.1399997957051 551
12.159999795258 542
12.179999794811 549
12.199999794364 575
12.2199997939169 583
12.2399997934699 552
12.2599997930229 546
12.2799997925758 601
12.2999997921288 615
12.3199997916818 600
12.3399997912347 570
12.3599997907877 565
12.3799997903407 527
12.3999997898936 590
12.4199997894466 580
12.4399997889996 584
12.4599997885525 585
12.4799997881055 601
12.4999997876585 552
12.5199997872114 543
12.5399997867644 510
12.5599997863173 554
12.5799997858703 559
12.5999997854233 545
12.6199997849762 563
12.6399997845292 571
12.6599997840822 603
12.6799997836351 600
12.6999997831881 552
12.7199997827411 586
12.739999782294 531
12.759999781847 541
12.7799997814 579
12.7999997809529 545
12.8199997805059 600
12.8399997800589 573
12.8599997796118 543
12.8799997791648 550
12.8999997787178 595
12.9199997782707 586
12.9399997778237 568
12.9599997773767 551
12.9799997769296 588
12.9999997764826 558
13.0199997760355 562
13.0399997755885 593
13.0599997751415 602
13.0799997746944 554
13.0999997742474 580
13.1199997738004 574
13.1399997733533 583
13.1599997729063 546
13.1799997724593 598
13.1999997720122 564
13.2199997715652 531
13.2399997711182 566
13.2599997706711 591
13.2799997702241 586
13.2999997697771 542
13.31999976933 574
13.339999768883 546
13.359999768436 623
13.3799997679889 589
13.3999997675419 566
13.4199997670949 539
13.4399997666478 600
13.4599997662008 596
13.4799997657537 590
13.4999997653067 591
13.5199997648597 593
13.5399997644126 571
13.5599997639656 535
13.5799997635186 560
13.5999997630715 641
13.6199997626245 569
13.6399997621775 579
13.6599997617304 564
13.6799997612834 604
13.6999997608364 600
13.7199997603893 567
13.7399997599423 596
13.7599997594953 596
13.7799997590482 579
13.7999997586012 596
13.8199997581542 597
13.8399997577071 567
13.8599997572601 586
13.879999756813 572
13.899999756366 606
13.919999755919 590
13.9399997554719 588
13.9599997550249 573
13.9799997545779 603
13.9999997541308 578
14.0199997536838 584
14.0399997532368 576
14.0599997527897 592
14.0799997523427 585
14.0999997518957 586
14.1199997514486 615
14.1399997510016 603
14.1599997505546 600
14.1799997501075 591
14.1999997496605 627
14.2199997492135 594
14.2399997487664 664
14.2599997483194 633
14.2799997478724 647
14.2999997474253 634
14.3199997469783 605
14.3399997465312 633
14.3599997460842 611
14.3799997456372 601
14.3999997451901 570
14.4199997447431 642
14.4399997442961 574
14.459999743849 595
14.479999743402 602
14.499999742955 640
14.5199997425079 626
14.5399997420609 587
14.5599997416139 594
14.5799997411668 575
14.5999997407198 619
14.6199997402728 584
14.6399997398257 613
14.6599997393787 632
14.6799997389317 616
14.6999997384846 636
14.7199997380376 625
14.7399997375906 617
14.7599997371435 601
14.7799997366965 603
14.7999997362494 646
14.8199997358024 592
14.8399997353554 607
14.8599997349083 621
14.8799997344613 618
14.8999997340143 672
14.9199997335672 637
14.9399997331202 663
14.9599997326732 617
14.9799997322261 634
14.9999997317791 626
15.0199997313321 644
15.039999730885 658
15.059999730438 658
15.079999729991 626
15.0999997295439 626
15.1199997290969 628
15.1399997286499 603
15.1599997282028 615
15.1799997277558 653
15.1999997273088 615
15.2199997268617 636
15.2399997264147 585
15.2599997259676 631
15.2799997255206 660
15.2999997250736 652
15.3199997246265 625
15.3399997241795 681
15.3599997237325 667
15.3799997232854 611
15.3999997228384 621
15.4199997223914 613
15.4399997219443 655
15.4599997214973 674
15.4799997210503 720
15.4999997206032 675
15.5199997201562 671
15.5399997197092 668
15.5599997192621 647
15.5799997188151 624
15.5999997183681 695
15.619999717921 633
15.639999717474 630
15.659999717027 669
15.6799997165799 632
15.6999997161329 655
15.7199997156858 641
15.7399997152388 705
15.7599997147918 693
15.7799997143447 672
15.7999997138977 677
15.8199997134507 698
15.8399997130036 702
15.8599997125566 677
15.8799997121096 694
15.8999997116625 749
15.9199997112155 680
15.9399997107685 661
15.9599997103214 666
15.9799997098744 670
15.9999997094274 657
16.0199997089803 722
16.0399997085333 713
16.0599997080863 709
16.0799997076392 691
16.0999997071922 688
16.1199997067451 696
16.1399997062981 703
16.1599997058511 716
16.179999705404 711
16.199999704957 712
16.21999970451 706
16.2399997040629 703
16.2599997036159 688
16.2799997031689 710
16.2999997027218 657
16.3199997022748 759
16.3399997018278 728
16.3599997013807 738
16.3799997009337 730
16.3999997004867 690
16.4199997000396 716
16.4399996995926 716
16.4599996991456 699
16.4799996986985 734
16.4999996982515 687
16.5199996978045 694
16.5399996973574 729
16.5599996969104 762
16.5799996964633 755
16.5999996960163 749
16.6199996955693 747
16.6399996951222 731
16.6599996946752 708
16.6799996942282 720
16.6999996937811 759
16.7199996933341 721
16.7399996928871 784
16.75999969244 742
16.779999691993 712
16.799999691546 761
16.8199996910989 775
16.8399996906519 770
16.8599996902049 752
16.8799996897578 747
16.8999996893108 792
16.9199996888638 801
16.9399996884167 731
16.9599996879697 752
16.9799996875226 781
16.9999996870756 806
17.0199996866286 744
17.0399996861815 807
17.0599996857345 780
17.0799996852875 816
17.0999996848404 817
17.1199996843934 766
17.1399996839464 820
17.1599996834993 774
17.1799996830523 764
17.1999996826053 799
17.2199996821582 772
17.2399996817112 755
17.2599996812642 741
17.2799996808171 807
17.2999996803701 844
17.3199996799231 825
17.339999679476 789
17.359999679029 811
17.379999678582 853
17.3999996781349 826
17.4199996776879 784
17.4399996772408 785
17.4599996767938 826
17.4799996763468 869
17.4999996758997 829
17.5199996754527 819
17.5399996750057 818
17.5599996745586 836
17.5799996741116 840
17.5999996736646 826
17.6199996732175 825
17.6399996727705 808
17.6599996723235 912
17.6799996718764 828
17.6999996714294 794
17.7199996709824 840
17.7399996705353 843
17.7599996700883 863
17.7799996696413 873
17.7999996691942 858
17.8199996687472 882
17.8399996683002 882
17.8599996678531 817
17.8799996674061 839
17.899999666959 904
17.919999666512 879
17.939999666065 822
17.9599996656179 895
17.9799996651709 917
17.9999996647239 818
18.0199996642768 818
18.0399996638298 881
18.0599996633828 886
18.0799996629357 910
18.0999996624887 891
18.1199996620417 872
18.1399996615946 884
18.1599996611476 883
18.1799996607006 933
18.1999996602535 946
18.2199996598065 927
18.2399996593595 900
18.2599996589124 896
18.2799996584654 926
18.2999996580184 914
18.3199996575713 899
18.3399996571243 881
18.3599996566772 871
18.3799996562302 915
18.3999996557832 900
18.4199996553361 924
18.4399996548891 926
18.4599996544421 917
18.479999653995 910
18.499999653548 934
18.519999653101 951
18.5399996526539 919
18.5599996522069 933
18.5799996517599 935
18.5999996513128 919
18.6199996508658 897
18.6399996504188 929
18.6599996499717 940
18.6799996495247 923
18.6999996490777 911
18.7199996486306 973
18.7399996481836 921
18.7599996477366 975
18.7799996472895 998
18.7999996468425 980
18.8199996463954 989
18.8399996459484 957
18.8599996455014 914
18.8799996450543 969
18.8999996446073 974
18.9199996441603 1005
18.9399996437132 993
18.9599996432662 991
18.9799996428192 977
18.9999996423721 929
19.0199996419251 1009
19.0399996414781 978
19.059999641031 966
19.079999640584 1006
19.099999640137 1003
19.1199996396899 1028
19.1399996392429 988
19.1599996387959 977
19.1799996383488 1007
19.1999996379018 1000
19.2199996374547 1013
19.2399996370077 1023
19.2599996365607 993
19.2799996361136 1041
19.2999996356666 1043
19.3199996352196 1012
19.3399996347725 1083
19.3599996343255 989
19.3799996338785 1062
19.3999996334314 1072
19.4199996329844 1069
19.4399996325374 996
19.4599996320903 1084
19.4799996316433 1054
19.4999996311963 1070
19.5199996307492 1117
19.5399996303022 1056
19.5599996298552 1111
19.5799996294081 1115
19.5999996289611 1109
19.6199996285141 1038
19.639999628067 1113
19.65999962762 1078
19.6799996271729 1054
19.6999996267259 1087
19.7199996262789 1113
19.7399996258318 1061
19.7599996253848 1067
19.7799996249378 1115
19.7999996244907 1129
19.8199996240437 1126
19.8399996235967 1130
19.8599996231496 1054
19.8799996227026 1153
19.8999996222556 1108
19.9199996218085 1045
19.9399996213615 1066
19.9599996209145 1066
19.9799996204674 1147
19.9999996200204 1088
