3 2455
3.01999999955297 2374
3.03999999910593 2158
3.0599999986589 2092
3.07999999821186 1935
3.09999999776483 1888
3.11999999731779 1762
3.13999999687076 1837
3.15999999642372 1731
3.17999999597669 1797
3.19999999552965 1698
3.21999999508262 1686
3.23999999463558 1698
3.25999999418855 1596
3.27999999374151 1604
3.29999999329448 1581
3.31999999284744 1605
3.33999999240041 1552
3.35999999195337 1605
3.37999999150634 1601
3.3999999910593 1539
3.41999999061227 1562
3.43999999016523 1512
3.4599999897182 1445
3.47999998927116 1467
3.49999998882413 1458
3.51999998837709 1442
3.53999998793006 1432
3.55999998748302 1413
3.57999998703599 1442
3.59999998658895 1343
3.61999998614192 1335
3.63999998569489 1434
3.65999998524785 1428
3.67999998480082 1390
3.69999998435378 1347
3.71999998390675 1353
3.73999998345971 1377
3.75999998301268 1292
3.77999998256564 1295
3.79999998211861 1314
3.81999998167157 1319
3.83999998122454 1296
3.8599999807775 1205
3.87999998033047 1288
3.89999997988343 1286
3.9199999794364 1258
3.93999997898936 1178
3.95999997854233 1199
3.97999997809529 1229
3.99999997764826 1236
4.01999997720122 1242
4.03999997675419 1220
4.05999997630715 1264
4.07999997586012 1134
4.09999997541308 1171
4.11999997496605 1161
4.13999997451901 1158
4.15999997407198 1158
4.17999997362494 1111
4.19999997317791 1140
4.21999997273087 1111
4.23999997228384 1149
4.25999997183681 1166
4.27999997138977 1121
4.29999997094274 1145
4.3199999704957 1091
4.33999997004867 1180
4.35999996960163 1058
4.3799999691546 1117
4.39999996870756 1122
4.41999996826053 1076
4.43999996781349 1091
4.45999996736646 1066
4.47999996691942 1046
4.49999996647239 1063
4.51999996602535 1054
4.53999996557832 1118
4.55999996513128 1057
4.57999996468425 1081
4.59999996423721 1067
4.61999996379018 1047
4.63999996334314 1101
4.65999996289611 1075
4.67999996244907 1109
4.69999996200204 1022
4.719999961555 1074
4.73999996110797 1089
4.75999996066093 1069
4.7799999602139 1081
4.79999995976686 1041
4.81999995931983 1077
4.83999995887279 1095
4.85999995842576 1070
4.87999995797873 1044
4.89999995753169 1064
4.91999995708466 1144
4.93999995663762 1152
4.95999995619059 1098
4.97999995574355 1167
4.99999995529652 1200
5.01999995484948 1109
5.03999995440245 1125
5.05999995395541 1178
5.07999995350838 1173
5.09999995306134 1223
5.11999995261431 1260
5.13999995216727 1330
5.15999995172024 1328
5.1799999512732 1355
5.19999995082617 1363
5.21999995037913 1459
5.2399999499321 1534
5.25999994948506 1593
5.27999994903803 1704
5.29999994859099 1822
5.31999994814396 1907
5.33999994769692 2003
5.35999994724989 2175
5.37999994680285 2472
5.39999994635582 2697
5.41999994590878 3087
5.43999994546175 3177
5.45999994501471 2609
5.47999994456768 2118
5.49999994412065 1771
5.51999994367361 1685
5.53999994322658 1578
5.55999994277954 1577
5.57999994233251 1498
5.59999994188547 1469
5.61999994143844 1411
5.6399999409914 1475
5.65999994054437 1475
5.67999994009733 1552
5.6999999396503 1484
5.71999993920326 1482
5.73999993875623 1499
5.75999993830919 1424
5.77999993786216 1382
5.79999993741512 1305
5.81999993696809 1264
5.83999993652105 1186
5.85999993607402 1133
5.87999993562698 1071
5.89999993517995 1041
5.91999993473291 990
5.93999993428588 990
5.95999993383884 986
5.97999993339181 870
5.99999993294477 922
6.01999993249774 940
6.0399999320507 926
6.05999993160367 825
6.07999993115663 842
6.0999999307096 847
6.11999993026257 820
6.13999992981553 843
6.1599999293685 866
6.17999992892146 855
6.19999992847443 863
6.21999992802739 880
6.23999992758036 856
6.25999992713332 803
6.27999992668629 797
6.29999992623925 826
6.31999992579222 828
6.33999992534518 852
6.35999992489815 799
6.37999992445111 818
6.39999992400408 790
6.41999992355704 777
6.43999992311001 855
6.45999992266297 836
6.47999992221594 776
6.4999999217689 842
6.51999992132187 727
6.53999992087483 792
6.5599999204278 801
6.57999991998076 783
6.59999991953373 800
6.61999991908669 775
6.63999991863966 761
6.65999991819262 797
6.67999991774559 763
6.69999991729855 788
6.71999991685152 780
6.73999991640449 813
6.75999991595745 782
6.77999991551042 830
6.79999991506338 794
6.81999991461635 783
6.83999991416931 725
6.85999991372228 798
6.87999991327524 744
6.89999991282821 784
6.91999991238117 723
6.93999991193414 724
6.9599999114871 742
6.97999991104007 723
6.99999991059303 810
7.019999910146 741
7.03999990969896 753
7.05999990925193 803
7.07999990880489 743
7.09999990835786 714
7.11999990791082 743
7.13999990746379 760
7.15999990701675 765
7.17999990656972 744
7.19999990612268 732
7.21999990567565 721
7.23999990522861 735
7.25999990478158 710
7.27999990433454 711
7.29999990388751 703
7.31999990344047 695
7.33999990299344 725
7.35999990254641 724
7.37999990209937 677
7.39999990165234 670
7.4199999012053 666
7.43999990075827 704
7.45999990031123 716
7.4799998998642 717
7.49999989941716 656
7.51999989897013 694
7.53999989852309 679
7.55999989807606 714
7.57999989762902 658
7.59999989718199 715
7.61999989673495 722
7.63999989628792 706
7.65999989584088 693
7.67999989539385 662
7.69999989494681 698
7.71999989449978 672
7.73999989405274 715
7.75999989360571 675
7.77999989315867 699
7.79999989271164 671
7.8199998922646 673
7.83999989181757 668
7.85999989137053 697
7.8799998909235 733
7.89999989047646 685
7.91999989002943 748
7.9399998895824 683
7.95999988913536 724
7.97999988868833 695
7.99999988824129 684
8.01999988779426 675
8.03999988734722 702
8.05999988690019 654
8.07999988645315 670
8.09999988600612 722
8.11999988555908 654
8.13999988511205 687
8.15999988466501 680
8.17999988421798 683
8.19999988377094 710
8.21999988332391 685
8.23999988287687 674
8.25999988242984 664
8.2799998819828 674
8.29999988153577 671
8.31999988108873 658
8.3399998806417 674
8.35999988019466 643
8.37999987974763 666
8.39999987930059 678
8.41999987885356 640
8.43999987840652 661
8.45999987795949 665
8.47999987751245 656
8.49999987706542 691
8.51999987661839 692
8.53999987617135 680
8.55999987572432 647
8.57999987527728 635
8.59999987483025 637
8.61999987438321 616
8.63999987393618 675
8.65999987348914 612
8.67999987304211 618
8.69999987259507 657
8.71999987214804 660
8.739999871701 661
8.75999987125397 670
8.77999987080693 679
8.7999998703599 692
8.81999986991286 669
8.83999986946583 678
8.85999986901879 680
8.87999986857176 634
8.89999986812472 630
8.91999986767769 670
8.93999986723065 659
8.95999986678362 668
8.97999986633658 656
8.99999986588955 632
9.01999986544251 695
9.03999986499548 696
9.05999986454844 752
9.07999986410141 729
9.09999986365438 766
9.11999986320734 731
9.13999986276031 776
9.15999986231327 833
9.17999986186624 783
9.1999998614192 816
9.21999986097217 907
9.23999986052513 913
9.2599998600781 966
9.27999985963106 1062
9.29999985918403 1123
9.31999985873699 1279
9.33999985828996 1532
9.35999985784292 1473
9.37999985739589 1197
9.39999985694885 959
9.41999985650182 815
9.43999985605478 723
9.45999985560775 696
9.47999985516071 683
9.49999985471368 692
9.51999985426664 695
9.53999985381961 690
9.55999985337257 666
9.57999985292554 653
9.5999998524785 644
9.61999985203147 650
9.63999985158443 603
9.6599998511374 639
9.67999985069037 646
9.69999985024333 642
9.7199998497963 611
9.73999984934926 645
9.75999984890223 626
9.77999984845519 649
9.79999984800816 658
9.81999984756112 645
9.83999984711409 634
9.85999984666705 626
9.87999984622002 645
9.89999984577298 653
9.91999984532595 627
9.93999984487891 594
9.95999984443188 653
9.97999984398484 638
9.99999984353781 626
10.0199998430908 647
10.0399998426437 644
10.0599998421967 676
10.0799998417497 676
10.0999998413026 649
10.1199998408556 675
10.1399998404086 618
10.1599998399615 639
10.1799998395145 625
10.1999998390675 647
10.2199998386204 661
10.2399998381734 640
10.2599998377264 636
10.2799998372793 644
10.2999998368323 637
10.3199998363853 624
10.3399998359382 642
10.3599998354912 662
10.3799998350441 612
10.3999998345971 610
10.4199998341501 635
10.439999833703 598
10.459999833256 626
10.479999832809 613
10.4999998323619 711
10.5199998319149 691
10.5399998314679 627
10.5599998310208 653
10.5799998305738 647
10.5999998301268 688
10.6199998296797 682
10.6399998292327 694
10.6599998287857 692
10.6799998283386 774
10.6999998278916 773
10.7199998274446 789
10.7399998269975 867
10.7599998265505 932
10.7799998261034 1043
10.7999998256564 990
10.8199998252094 945
10.8399998247623 817
10.8599998243153 780
10.8799998238683 769
10.8999998234212 766
10.9199998229742 777
10.9399998225272 750
10.9599998220801 760
10.9799998216331 735
10.9999998211861 762
11.019999820739 694
11.039999820292 642
11.059999819845 667
11.0799998193979 636
11.0999998189509 616
11.1199998185039 616
11.1399998180568 608
11.1599998176098 594
11.1799998171628 621
11.1999998167157 611
11.2199998162687 581
11.2399998158216 599
11.2599998153746 583
11.2799998149276 582
11.2999998144805 630
11.3199998140335 616
11.3399998135865 641
11.3599998131394 592
11.3799998126924 581
11.3999998122454 587
11.4199998117983 601
11.4399998113513 622
11.4599998109043 593
11.4799998104572 616
11.4999998100102 595
11.5199998095632 618
11.5399998091161 634
11.5599998086691 605
11.5799998082221 597
11.599999807775 594
11.619999807328 636
11.639999806881 573
11.6599998064339 588
11.6799998059869 609
11.6999998055398 609
11.7199998050928 580
11.7399998046458 593
11.7599998041987 580
11.7799998037517 574
11.7999998033047 595
11.8199998028576 570
11.8399998024106 590
11.8599998019636 597
11.8799998015165 560
11.8999998010695 561
11.9199998006225 605
11.9399998001754 627
11.9599997997284 595
11.9799997992814 596
11.9999997988343 582
12.0199997983873 608
12.0399997979403 604
12.0599997974932 569
12.0799997970462 584
12.0999997965992 625
12.1199997961521 646
12.1399997957051 628
12.159999795258 606
12.179999794811 590
12.199999794364 607
12.2199997939169 633
12.2399997934699 608
12.2599997930229 660
12.2799997925758 637
12.2999997921288 660
12.3199997916818 615
12.3399997912347 641
12.3599997907877 607
12.3799997903407 593
12.3999997898936 616
12.4199997894466 580
12.4399997889996 633
12.4599997885525 590
12.4799997881055 576
12.4999997876585 618
12.5199997872114 593
12.5399997867644 583
12.5599997863173 578
12.5799997858703 574
12.5999997854233 612
12.6199997849762 616
12.6399997845292 558
12.6599997840822 601
12.6799997836351 611
12.6999997831881 569
12.7199997827411 629
12.739999782294 632
12.759999781847 590
12.7799997814 609
12.7999997809529 622
12.8199997805059 569
12.8399997800589 552
12.8599997796118 595
12.8799997791648 594
12.8999997787178 625
12.9199997782707 619
12.9399997778237 629
12.9599997773767 605
12.9799997769296 575
12.9999997764826 670
13.0199997760355 604
13.0399997755885 633
13.0599997751415 630
13.0799997746944 608
13.0999997742474 650
13.1199997738004 637
13.1399997733533 631
13.1599997729063 558
13.1799997724593 585
13.1999997720122 606
13.2199997715652 603
13.2399997711182 570
13.2599997706711 615
13.2799997702241 607
13.2999997697771 640
13.31999976933 644
13.339999768883 631
13.359999768436 631
13.3799997679889 655
13.3999997675419 654
13.4199997670949 632
13.4399997666478 626
13.4599997662008 607
13.4799997657537 614
13.4999997653067 578
13.5199997648597 591
13.5399997644126 633
13.5599997639656 660
13.5799997635186 621
13.5999997630715 636
13.6199997626245 597
13.6399997621775 614
13.6599997617304 651
13.6799997612834 644
13.6999997608364 640
13.7199997603893 634
13.7399997599423 626
13.7599997594953 644
13.7799997590482 627
13.7999997586012 603
13.8199997581542 633
13.8399997577071 612
13.8599997572601 638
13.879999756813 664
13.899999756366 604
13.919999755919 590
13.9399997554719 630
13.9599997550249 628
13.9799997545779 581
13.9999997541308 665
14.0199997536838 650
14.0399997532368 688
14.0599997527897 626
14.0799997523427 677
14.0999997518957 638
14.1199997514486 665
14.1399997510016 653
14.1599997505546 625
14.1799997501075 662
14.1999997496605 665
14.2199997492135 647
14.2399997487664 602
14.2599997483194 712
14.2799997478724 690
14.2999997474253 743
14.3199997469783 654
14.3399997465312 700
14.3599997460842 689
14.3799997456372 659
14.3999997451901 663
14.4199997447431 681
14.4399997442961 660
14.459999743849 699
14.479999743402 655
14.499999742955 724
14.5199997425079 645
14.5399997420609 639
14.5599997416139 634
14.5799997411668 633
14.5999997407198 659
14.6199997402728 695
14.6399997398257 671
14.6599997393787 647
14.6799997389317 662
14.6999997384846 687
14.7199997380376 696
14.7399997375906 668
14.7599997371435 695
14.7799997366965 692
14.7999997362494 692
14.8199997358024 648
14.8399997353554 668
14.8599997349083 696
14.8799997344613 731
14.8999997340143 640
14.9199997335672 652
14.9399997331202 666
14.9599997326732 712
14.9799997322261 651
14.9999997317791 716
15.0199997313321 718
15.039999730885 696
15.059999730438 672
15.079999729991 672
15.0999997295439 667
15.1199997290969 654
15.1399997286499 729
15.1599997282028 667
15.1799997277558 651
15.1999997273088 661
15.2199997268617 684
15.2399997264147 705
15.2599997259676 664
15.2799997255206 671
15.2999997250736 688
15.3199997246265 627
15.3399997241795 692
15.3599997237325 703
15.3799997232854 678
15.3999997228384 669
15.4199997223914 701
15.4399997219443 675
15.4599997214973 693
15.4799997210503 722
15.4999997206032 710
15.5199997201562 713
15.5399997197092 725
15.5599997192621 724
15.5799997188151 686
15.5999997183681 680
15.619999717921 680
15.639999717474 698
15.659999717027 729
15.6799997165799 709
15.6999997161329 722
15.7199997156858 713
15.7399997152388 740
15.7599997147918 705
15.7799997143447 726
15.7999997138977 738
15.8199997134507 685
15.8399997130036 746
15.8599997125566 695
15.8799997121096 741
15.8999997116625 739
15.9199997112155 750
15.9399997107685 719
15.9599997103214 695
15.9799997098744 703
15.9999997094274 718
16.0199997089803 697
16.0399997085333 748
16.0599997080863 838
16.0799997076392 750
16.0999997071922 722
16.1199997067451 731
16.1399997062981 760
16.1599997058511 796
16.179999705404 710
16.199999704957 794
16.21999970451 781
16.2399997040629 733
16.2599997036159 753
16.2799997031689 793
16.2999997027218 796
16.3199997022748 771
16.3399997018278 778
16.3599997013807 763
16.3799997009337 757
16.3999997004867 767
16.4199997000396 754
16.4399996995926 788
16.4599996991456 751
16.4799996986985 772
16.4999996982515 768
16.5199996978045 809
16.5399996973574 726
16.5599996969104 753
16.5799996964633 750
16.5999996960163 741
16.6199996955693 795
16.6399996951222 819
16.6599996946752 775
16.6799996942282 773
16.6999996937811 742
16.7199996933341 733
16.7399996928871 782
16.75999969244 791
16.779999691993 763
16.799999691546 816
16.8199996910989 811
16.8399996906519 799
16.8599996902049 816
16.8799996897578 792
16.8999996893108 796
16.9199996888638 844
16.9399996884167 834
16.9599996879697 825
16.9799996875226 773
16.9999996870756 840
17.0199996866286 847
17.0399996861815 834
17.0599996857345 847
17.0799996852875 801
17.0999996848404 834
17.1199996843934 858
17.1399996839464 842
17.1599996834993 857
17.1799996830523 835
17.1999996826053 869
17.2199996821582 821
17.2399996817112 906
17.2599996812642 852
17.2799996808171 881
17.2999996803701 885
17.3199996799231 823
17.339999679476 847
17.359999679029 929
17.379999678582 866
17.3999996781349 875
17.4199996776879 860
17.4399996772408 917
17.4599996767938 794
17.4799996763468 884
17.4999996758997 905
17.5199996754527 893
17.5399996750057 815
17.5599996745586 898
17.5799996741116 892
17.5999996736646 891
17.6199996732175 941
17.6399996727705 854
17.6599996723235 890
17.6799996718764 858
17.6999996714294 921
17.7199996709824 890
17.7399996705353 891
17.7599996700883 916
17.7799996696413 909
17.7999996691942 887
17.8199996687472 869
17.8399996683002 875
17.8599996678531 893
17.8799996674061 883
17.899999666959 872
17.919999666512 895
17.939999666065 900
17.9599996656179 935
17.9799996651709 899
17.9999996647239 928
18.0199996642768 897
18.0399996638298 919
18.0599996633828 876
18.0799996629357 901
18.0999996624887 906
18.1199996620417 921
18.1399996615946 919
18.1599996611476 933
18.1799996607006 931
18.1999996602535 943
18.2199996598065 943
18.2399996593595 924
18.2599996589124 948
18.2799996584654 917
18.2999996580184 959
18.3199996575713 942
18.3399996571243 898
18.3599996566772 969
18.3799996562302 949
18.3999996557832 958
18.4199996553361 933
18.4399996548891 937
18.4599996544421 1018
18.479999653995 989
18.499999653548 926
18.519999653101 990
18.5399996526539 994
18.5599996522069 982
18.5799996517599 944
18.5999996513128 974
18.6199996508658 995
18.6399996504188 979
18.6599996499717 982
18.6799996495247 1067
18.6999996490777 1066
18.7199996486306 1102
18.7399996481836 1048
18.7599996477366 985
18.7799996472895 1056
18.7999996468425 1023
18.8199996463954 1017
18.8399996459484 1016
18.8599996455014 987
18.8799996450543 967
18.8999996446073 1029
18.9199996441603 1001
18.9399996437132 1028
18.9599996432662 1037
18.9799996428192 1044
18.9999996423721 1057
19.0199996419251 1066
19.0399996414781 1079
19.059999641031 1081
19.079999640584 1057
19.099999640137 1051
19.1199996396899 1097
19.1399996392429 1120
19.1599996387959 1130
19.1799996383488 1078
19.1999996379018 1045
19.2199996374547 1108
19.2399996370077 1123
19.2599996365607 1055
19.2799996361136 1071
19.2999996356666 1087
19.3199996352196 1125
19.3399996347725 1098
19.3599996343255 1154
19.3799996338785 1160
19.3999996334314 1096
19.4199996329844 1133
19.4399996325374 1218
19.4599996320903 1195
19.4799996316433 1208
19.4999996311963 1165
19.5199996307492 1173
19.5399996303022 1220
19.5599996298552 1198
19.5799996294081 1198
19.5999996289611 1241
19.6199996285141 1099
19.639999628067 1153
19.65999962762 1110
19.6799996271729 1115
19.6999996267259 1155
19.7199996262789 1142
19.7399996258318 1155
19.7599996253848 1116
19.7799996249378 1080
19.7999996244907 1095
19.8199996240437 1212
19.8399996235967 1095
19.8599996231496 1150
19.8799996227026 1119
19.8999996222556 1091
19.9199996218085 1128
19.9399996213615 1123
19.9599996209145 1068
19.9799996204674 1118
19.9999996200204 1157
