3 3169
3.01999999955297 2832
3.03999999910593 2838
3.0599999986589 2576
3.07999999821186 2515
3.09999999776483 2538
3.11999999731779 2366
3.13999999687076 2374
3.15999999642372 2287
3.17999999597669 2295
3.19999999552965 2204
3.21999999508262 2169
3.23999999463558 2183
3.25999999418855 2176
3.27999999374151 2106
3.29999999329448 2105
3.31999999284744 2102
3.33999999240041 2059
3.35999999195337 2116
3.37999999150634 1942
3.3999999910593 2026
3.41999999061227 1992
3.43999999016523 1949
3.4599999897182 1915
3.47999998927116 1911
3.49999998882413 1932
3.51999998837709 1932
3.53999998793006 1864
3.55999998748302 1817
3.57999998703599 1860
3.59999998658895 1791
3.61999998614192 1833
3.63999998569489 1873
3.65999998524785 1819
3.67999998480082 1700
3.69999998435378 1688
3.71999998390675 1720
3.73999998345971 1656
3.75999998301268 1699
3.77999998256564 1692
3.79999998211861 1658
3.81999998167157 1640
3.83999998122454 1588
3.8599999807775 1585
3.87999998033047 1529
3.89999997988343 1649
3.9199999794364 1563
3.93999997898936 1589
3.95999997854233 1533
3.97999997809529 1618
3.99999997764826 1506
4.01999997720122 1502
4.03999997675419 1500
4.05999997630715 1469
4.07999997586012 1511
4.09999997541308 1433
4.11999997496605 1467
4.13999997451901 1438
4.15999997407198 1478
4.17999997362494 1409
4.19999997317791 1395
4.21999997273087 1404
4.23999997228384 1426
4.25999997183681 1376
4.27999997138977 1365
4.29999997094274 1342
4.3199999704957 1321
4.33999997004867 1355
4.35999996960163 1380
4.3799999691546 1316
4.39999996870756 1273
4.41999996826053 1384
4.43999996781349 1325
4.45999996736646 1342
4.47999996691942 1302
4.49999996647239 1310
4.51999996602535 1291
4.53999996557832 1295
4.55999996513128 1286
4.57999996468425 1292
4.59999996423721 1326
4.61999996379018 1278
4.63999996334314 1324
4.65999996289611 1252
4.67999996244907 1262
4.69999996200204 1303
4.719999961555 1343
4.73999996110797 1328
4.75999996066093 1405
4.7799999602139 1312
4.79999995976686 1353
4.81999995931983 1388
4.83999995887279 1401
4.85999995842576 1388
4.87999995797873 1417
4.89999995753169 1436
4.91999995708466 1401
4.93999995663762 1456
4.95999995619059 1446
4.97999995574355 1463
4.99999995529652 1505
5.01999995484948 1507
5.03999995440245 1571
5.05999995395541 1643
5.07999995350838 1645
5.09999995306134 1703
5.11999995261431 1742
5.13999995216727 1809
5.15999995172024 1893
5.1799999512732 2016
5.19999995082617 2083
5.21999995037913 2172
5.2399999499321 2316
5.25999994948506 2571
5.27999994903803 2570
5.29999994859099 2900
5.31999994814396 3114
5.33999994769692 3381
5.35999994724989 3869
5.37999994680285 4441
5.39999994635582 5192
5.41999994590878 5488
5.43999994546175 4360
5.45999994501471 3115
5.47999994456768 2561
5.49999994412065 2158
5.51999994367361 1988
5.53999994322658 1943
5.55999994277954 1795
5.57999994233251 1615
5.59999994188547 1550
5.61999994143844 1462
5.6399999409914 1448
5.65999994054437 1421
5.67999994009733 1385
5.6999999396503 1289
5.71999993920326 1290
5.73999993875623 1259
5.75999993830919 1178
5.77999993786216 1211
5.79999993741512 1150
5.81999993696809 1110
5.83999993652105 1113
5.85999993607402 1081
5.87999993562698 1112
5.89999993517995 1008
5.91999993473291 1031
5.93999993428588 983
5.95999993383884 960
5.97999993339181 997
5.99999993294477 972
6.01999993249774 962
6.0399999320507 1011
6.05999993160367 900
6.07999993115663 1002
6.0999999307096 897
6.11999993026257 939
6.13999992981553 914
6.1599999293685 911
6.17999992892146 860
6.19999992847443 870
6.21999992802739 923
6.23999992758036 921
6.25999992713332 908
6.27999992668629 859
6.29999992623925 884
6.31999992579222 901
6.33999992534518 892
6.35999992489815 887
6.37999992445111 893
6.39999992400408 846
6.41999992355704 887
6.43999992311001 873
6.45999992266297 835
6.47999992221594 810
6.4999999217689 791
6.51999992132187 835
6.53999992087483 799
6.5599999204278 859
6.57999991998076 895
6.59999991953373 816
6.61999991908669 849
6.63999991863966 835
6.65999991819262 864
6.67999991774559 884
6.69999991729855 824
6.71999991685152 847
6.73999991640449 784
6.75999991595745 820
6.77999991551042 846
6.79999991506338 873
6.81999991461635 860
6.83999991416931 808
6.85999991372228 772
6.87999991327524 843
6.89999991282821 796
6.91999991238117 811
6.93999991193414 848
6.9599999114871 854
6.97999991104007 846
6.99999991059303 810
7.019999910146 811
7.03999990969896 922
7.05999990925193 815
7.07999990880489 811
7.09999990835786 815
7.11999990791082 837
7.13999990746379 849
7.15999990701675 814
7.17999990656972 812
7.19999990612268 871
7.21999990567565 852
7.23999990522861 816
7.25999990478158 862
7.27999990433454 890
7.29999990388751 896
7.31999990344047 887
7.33999990299344 885
7.35999990254641 916
7.37999990209937 887
7.39999990165234 933
7.4199999012053 987
7.43999990075827 964
7.45999990031123 918
7.4799998998642 926
7.49999989941716 968
7.51999989897013 987
7.53999989852309 1033
7.55999989807606 1070
7.57999989762902 1096
7.59999989718199 1063
7.61999989673495 1100
7.63999989628792 1100
7.65999989584088 1101
7.67999989539385 1150
7.69999989494681 1191
7.71999989449978 1223
7.73999989405274 1175
7.75999989360571 1237
7.77999989315867 1250
7.79999989271164 1230
7.8199998922646 1187
7.83999989181757 1218
7.85999989137053 1194
7.8799998909235 1259
7.89999989047646 1199
7.91999989002943 1275
7.9399998895824 1140
7.95999988913536 1310
7.97999988868833 1234
7.99999988824129 1184
8.01999988779426 1175
8.03999988734722 1160
8.05999988690019 1132
8.07999988645315 1111
8.09999988600612 1065
8.11999988555908 1047
8.13999988511205 1078
8.15999988466501 1026
8.17999988421798 1000
8.19999988377094 1000
8.21999988332391 1032
8.23999988287687 921
8.25999988242984 930
8.2799998819828 944
8.29999988153577 976
8.31999988108873 928
8.3399998806417 918
8.35999988019466 898
8.37999987974763 922
8.39999987930059 882
8.41999987885356 931
8.43999987840652 923
8.45999987795949 916
8.47999987751245 881
8.49999987706542 870
8.51999987661839 896
8.53999987617135 841
8.55999987572432 883
8.57999987527728 888
8.59999987483025 875
8.61999987438321 970
8.63999987393618 873
8.65999987348914 853
8.67999987304211 979
8.69999987259507 889
8.71999987214804 931
8.739999871701 924
8.75999987125397 985
8.77999987080693 988
8.7999998703599 1050
8.81999986991286 1047
8.83999986946583 1114
8.85999986901879 1147
8.87999986857176 1242
8.89999986812472 1253
8.91999986767769 1415
8.93999986723065 1451
8.95999986678362 1458
8.97999986633658 1487
8.99999986588955 1451
9.01999986544251 1470
9.03999986499548 1391
9.05999986454844 1313
9.07999986410141 1214
9.09999986365438 1312
9.11999986320734 1268
9.13999986276031 1277
9.15999986231327 1190
9.17999986186624 1264
9.1999998614192 1291
9.21999986097217 1238
9.23999986052513 1286
9.2599998600781 1378
9.27999985963106 1390
9.29999985918403 1663
9.31999985873699 1781
9.33999985828996 1874
9.35999985784292 1711
9.37999985739589 1410
9.39999985694885 1176
9.41999985650182 1049
9.43999985605478 954
9.45999985560775 982
9.47999985516071 937
9.49999985471368 897
9.51999985426664 821
9.53999985381961 853
9.55999985337257 795
9.57999985292554 746
9.5999998524785 791
9.61999985203147 778
9.63999985158443 812
9.6599998511374 778
9.67999985069037 776
9.69999985024333 777
9.7199998497963 835
9.73999984934926 801
9.75999984890223 788
9.77999984845519 761
9.79999984800816 844
9.81999984756112 837
9.83999984711409 816
9.85999984666705 838
9.87999984622002 861
9.89999984577298 847
9.91999984532595 853
9.93999984487891 870
9.95999984443188 913
9.97999984398484 901
9.99999984353781 903
10.0199998430908 829
10.0399998426437 839
10.0599998421967 802
10.0799998417497 840
10.0999998413026 784
10.1199998408556 805
10.1399998404086 788
10.1599998399615 814
10.1799998395145 781
10.1999998390675 781
10.2199998386204 791
10.2399998381734 769
10.2599998377264 792
10.2799998372793 794
10.2999998368323 818
10.3199998363853 814
10.3399998359382 805
10.3599998354912 822
10.3799998350441 823
10.3999998345971 816
10.4199998341501 798
10.439999833703 831
10.459999833256 819
10.479999832809 835
10.4999998323619 820
10.5199998319149 826
10.5399998314679 793
10.5599998310208 824
10.5799998305738 885
10.5999998301268 876
10.6199998296797 882
10.6399998292327 875
10.6599998287857 858
10.6799998283386 918
10.6999998278916 1016
10.7199998274446 1059
10.7399998269975 1155
10.7599998265505 1246
10.7799998261034 1253
10.7999998256564 1200
10.8199998252094 1102
10.8399998247623 1064
10.8599998243153 978
10.8799998238683 887
10.8999998234212 914
10.9199998229742 825
10.9399998225272 781
10.9599998220801 765
10.9799998216331 800
10.9999998211861 759
11.019999820739 773
11.039999820292 726
11.059999819845 744
11.0799998193979 701
11.0999998189509 691
11.1199998185039 680
11.1399998180568 684
11.1599998176098 696
11.1799998171628 699
11.1999998167157 687
11.2199998162687 653
11.2399998158216 694
11.2599998153746 659
11.2799998149276 644
11.2999998144805 647
11.3199998140335 670
11.3399998135865 600
11.3599998131394 636
11.3799998126924 610
11.3999998122454 614
11.4199998117983 635
11.4399998113513 655
11.4599998109043 656
11.4799998104572 591
11.4999998100102 606
11.5199998095632 601
11.5399998091161 625
11.5599998086691 604
11.5799998082221 572
11.599999807775 600
11.619999807328 608
11.639999806881 591
11.6599998064339 600
11.6799998059869 631
11.6999998055398 644
11.7199998050928 592
11.7399998046458 581
11.7599998041987 623
11.7799998037517 552
11.7999998033047 575
11.8199998028576 606
11.8399998024106 628
11.8599998019636 558
11.8799998015165 595
11.8999998010695 591
11.9199998006225 548
11.9399998001754 631
11.9599997997284 622
11.9799997992814 598
11.9999997988343 633
12.0199997983873 687
12.0399997979403 610
12.0599997974932 582
12.0799997970462 684
12.0999997965992 641
12.1199997961521 652
12.1399997957051 669
12.159999795258 724
12.179999794811 761
12.199999794364 746
12.2199997939169 801
12.2399997934699 847
12.2599997930229 926
12.2799997925758 926
12.2999997921288 889
12.3199997916818 869
12.3399997912347 867
12.3599997907877 841
12.3799997903407 827
12.3999997898936 819
12.4199997894466 821
12.4399997889996 746
12.4599997885525 719
12.4799997881055 695
12.4999997876585 724
12.5199997872114 743
12.5399997867644 781
12.5599997863173 700
12.5799997858703 791
12.5999997854233 841
12.6199997849762 810
12.6399997845292 785
12.6599997840822 740
12.6799997836351 776
12.6999997831881 715
12.7199997827411 651
12.739999782294 715
12.759999781847 645
12.7799997814 649
12.7999997809529 663
12.8199997805059 647
12.8399997800589 644
12.8599997796118 697
12.8799997791648 686
12.8999997787178 674
12.9199997782707 698
12.9399997778237 649
12.9599997773767 620
12.9799997769296 677
12.9999997764826 642
13.0199997760355 667
13.0399997755885 621
13.0599997751415 647
13.0799997746944 640
13.0999997742474 612
13.1199997738004 648
13.1399997733533 659
13.1599997729063 626
13.1799997724593 600
13.1999997720122 620
13.2199997715652 662
13.2399997711182 698
13.2599997706711 681
13.2799997702241 645
13.2999997697771 636
13.31999976933 639
13.339999768883 639
13.359999768436 683
13.3799997679889 692
13.3999997675419 645
13.4199997670949 654
13.4399997666478 656
13.4599997662008 677
13.4799997657537 658
13.4999997653067 649
13.5199997648597 650
13.5399997644126 620
13.5599997639656 630
13.5799997635186 611
13.5999997630715 571
13.6199997626245 645
13.6399997621775 615
13.6599997617304 596
13.6799997612834 619
13.6999997608364 583
13.7199997603893 623
13.7399997599423 584
13.7599997594953 600
13.7799997590482 619
13.7999997586012 659
13.8199997581542 596
13.8399997577071 588
13.8599997572601 603
13.879999756813 640
13.899999756366 611
13.919999755919 624
13.9399997554719 628
13.9599997550249 603
13.9799997545779 578
13.9999997541308 626
14.0199997536838 618
14.0399997532368 602
14.0599997527897 608
14.0799997523427 583
14.0999997518957 634
14.1199997514486 647
14.1399997510016 607
14.1599997505546 679
14.1799997501075 632
14.1999997496605 623
14.2199997492135 653
14.2399997487664 632
14.2599997483194 635
14.2799997478724 681
14.2999997474253 657
14.3199997469783 629
14.3399997465312 656
14.3599997460842 656
14.3799997456372 674
14.3999997451901 627
14.4199997447431 643
14.4399997442961 614
14.459999743849 656
14.479999743402 651
14.499999742955 577
14.5199997425079 584
14.5399997420609 657
14.5599997416139 612
14.5799997411668 618
14.5999997407198 637
14.6199997402728 633
14.6399997398257 626
14.6599997393787 620
14.6799997389317 644
14.6999997384846 614
14.7199997380376 566
14.7399997375906 643
14.7599997371435 664
14.7799997366965 647
14.7999997362494 626
14.8199997358024 626
14.8399997353554 666
14.8599997349083 615
14.8799997344613 562
14.8999997340143 634
14.9199997335672 623
14.9399997331202 606
14.9599997326732 600
14.9799997322261 598
14.9999997317791 648
15.0199997313321 635
15.039999730885 612
15.059999730438 618
15.079999729991 646
15.0999997295439 617
15.1199997290969 619
15.1399997286499 631
15.1599997282028 621
15.1799997277558 615
15.1999997273088 638
15.2199997268617 619
15.2399997264147 621
15.2599997259676 627
15.2799997255206 606
15.2999997250736 625
15.3199997246265 605
15.3399997241795 631
15.3599997237325 592
15.3799997232854 610
15.3999997228384 612
15.4199997223914 613
15.4399997219443 624
15.4599997214973 601
15.4799997210503 628
15.4999997206032 647
15.5199997201562 590
15.5399997197092 620
15.5599997192621 594
15.5799997188151 670
15.5999997183681 652
15.619999717921 597
15.639999717474 662
15.659999717027 663
15.6799997165799 688
15.6999997161329 644
15.7199997156858 670
15.7399997152388 666
15.7599997147918 678
15.7799997143447 666
15.7999997138977 673
15.8199997134507 664
15.8399997130036 652
15.8599997125566 656
15.8799997121096 646
15.8999997116625 684
15.9199997112155 648
15.9399997107685 651
15.9599997103214 641
15.9799997098744 682
15.9999997094274 692
16.0199997089803 630
16.0399997085333 646
16.0599997080863 677
16.0799997076392 703
16.0999997071922 708
16.1199997067451 675
16.1399997062981 666
16.1599997058511 649
16.179999705404 711
16.199999704957 670
16.21999970451 672
16.2399997040629 674
16.2599997036159 629
16.2799997031689 698
16.2999997027218 691
16.3199997022748 694
16.3399997018278 685
16.3599997013807 661
16.3799997009337 655
16.3999997004867 701
16.4199997000396 696
16.4399996995926 718
16.4599996991456 718
16.4799996986985 698
16.4999996982515 718
16.5199996978045 683
16.5399996973574 731
16.5599996969104 725
16.5799996964633 721
16.5999996960163 727
16.6199996955693 730
16.6399996951222 701
16.6599996946752 736
16.6799996942282 720
16.6999996937811 678
16.7199996933341 713
16.7399996928871 698
16.75999969244 733
16.779999691993 777
16.799999691546 700
16.8199996910989 712
16.8399996906519 676
16.8599996902049 705
16.8799996897578 719
16.8999996893108 748
16.9199996888638 760
16.9399996884167 761
16.9599996879697 817
16.9799996875226 762
16.9999996870756 776
17.0199996866286 772
17.0399996861815 782
17.0599996857345 752
17.0799996852875 785
17.0999996848404 748
17.1199996843934 737
17.1399996839464 800
17.1599996834993 790
17.1799996830523 770
17.1999996826053 758
17.2199996821582 762
17.2399996817112 728
17.2599996812642 758
17.2799996808171 772
17.2999996803701 765
17.3199996799231 751
17.339999679476 786
17.359999679029 781
17.379999678582 810
17.3999996781349 794
17.4199996776879 743
17.4399996772408 729
17.4599996767938 788
17.4799996763468 772
17.4999996758997 829
17.5199996754527 780
17.5399996750057 773
17.5599996745586 786
17.5799996741116 826
17.5999996736646 815
17.6199996732175 846
17.6399996727705 753
17.6599996723235 835
17.6799996718764 759
17.6999996714294 750
17.7199996709824 779
17.7399996705353 818
17.7599996700883 816
17.7799996696413 818
17.7999996691942 829
17.8199996687472 844
17.8399996683002 843
17.8599996678531 807
17.8799996674061 795
17.899999666959 807
17.919999666512 789
17.939999666065 809
17.9599996656179 776
17.9799996651709 798
17.9999996647239 818
18.0199996642768 833
18.0399996638298 860
18.0599996633828 816
18.0799996629357 853
18.0999996624887 845
18.1199996620417 809
18.1399996615946 814
18.1599996611476 834
18.1799996607006 869
18.1999996602535 849
18.2199996598065 805
18.2399996593595 885
18.2599996589124 859
18.2799996584654 810
18.2999996580184 888
18.3199996575713 837
18.3399996571243 864
18.3599996566772 864
18.3799996562302 845
18.3999996557832 868
18.4199996553361 868
18.4399996548891 813
18.4599996544421 847
18.479999653995 919
18.499999653548 904
18.519999653101 922
18.5399996526539 912
18.5599996522069 918
18.5799996517599 929
18.5999996513128 874
18.6199996508658 949
18.6399996504188 937
18.6599996499717 980
18.6799996495247 998
18.6999996490777 966
18.7199996486306 915
18.7399996481836 914
18.7599996477366 938
18.7799996472895 954
18.7999996468425 942
18.8199996463954 935
18.8399996459484 923
18.8599996455014 870
18.8799996450543 854
18.8999996446073 942
18.9199996441603 938
18.9399996437132 899
18.9599996432662 938
18.9799996428192 958
18.9999996423721 917
19.0199996419251 961
19.0399996414781 933
19.059999641031 990
19.079999640584 946
19.099999640137 921
19.1199996396899 967
19.1399996392429 1008
19.1599996387959 991
19.1799996383488 948
19.1999996379018 987
19.2199996374547 942
19.2399996370077 943
19.2599996365607 1007
19.2799996361136 973
19.2999996356666 970
19.3199996352196 983
19.3399996347725 1027
19.3599996343255 1032
19.3799996338785 1033
19.3999996334314 1052
19.4199996329844 1101
19.4399996325374 1158
19.4599996320903 1197
19.4799996316433 1100
19.4999996311963 1177
19.5199996307492 1169
19.5399996303022 1105
19.5599996298552 1082
19.5799996294081 1049
19.5999996289611 1040
19.6199996285141 1108
19.639999628067 1053
19.65999962762 1055
19.6799996271729 1029
19.6999996267259 1045
19.7199996262789 1041
19.7399996258318 1020
19.7599996253848 1009
19.7799996249378 1033
19.7999996244907 1049
19.8199996240437 1026
19.8399996235967 1030
19.8599996231496 1015
19.8799996227026 1033
19.8999996222556 1058
19.9199996218085 1082
19.9399996213615 1112
19.9599996209145 1027
19.9799996204674 1091
19.9999996200204 1091
