3 1954
3.01999999955297 1773
3.03999999910593 1707
3.0599999986589 1545
3.07999999821186 1521
3.09999999776483 1441
3.11999999731779 1369
3.13999999687076 1378
3.15999999642372 1332
3.17999999597669 1351
3.19999999552965 1293
3.21999999508262 1252
3.23999999463558 1302
3.25999999418855 1286
3.27999999374151 1225
3.29999999329448 1231
3.31999999284744 1235
3.33999999240041 1267
3.35999999195337 1204
3.37999999150634 1227
3.3999999910593 1208
3.41999999061227 1131
3.43999999016523 1162
3.4599999897182 1151
3.47999998927116 1071
3.49999998882413 1172
3.51999998837709 1121
3.53999998793006 1105
3.55999998748302 1068
3.57999998703599 1087
3.59999998658895 1073
3.61999998614192 1109
3.63999998569489 1069
3.65999998524785 1051
3.67999998480082 1105
3.69999998435378 1042
3.71999998390675 1004
3.73999998345971 1057
3.75999998301268 1031
3.77999998256564 1021
3.79999998211861 1050
3.81999998167157 1027
3.83999998122454 1048
3.8599999807775 995
3.87999998033047 991
3.89999997988343 990
3.9199999794364 993
3.93999997898936 999
3.95999997854233 959
3.97999997809529 934
3.99999997764826 982
4.01999997720122 1011
4.03999997675419 924
4.05999997630715 938
4.07999997586012 958
4.09999997541308 877
4.11999997496605 985
4.13999997451901 942
4.15999997407198 930
4.17999997362494 916
4.19999997317791 933
4.21999997273087 952
4.23999997228384 904
4.25999997183681 904
4.27999997138977 986
4.29999997094274 943
4.3199999704957 934
4.33999997004867 966
4.35999996960163 929
4.3799999691546 971
4.39999996870756 925
4.41999996826053 909
4.43999996781349 962
4.45999996736646 905
4.47999996691942 907
4.49999996647239 974
4.51999996602535 954
4.53999996557832 926
4.55999996513128 954
4.57999996468425 877
4.59999996423721 997
4.61999996379018 949
4.63999996334314 987
4.65999996289611 902
4.67999996244907 936
4.69999996200204 985
4.719999961555 950
4.73999996110797 1012
4.75999996066093 953
4.7799999602139 953
4.79999995976686 948
4.81999995931983 966
4.83999995887279 949
4.85999995842576 929
4.87999995797873 973
4.89999995753169 987
4.91999995708466 1014
4.93999995663762 957
4.95999995619059 1061
4.97999995574355 1064
4.99999995529652 1077
5.01999995484948 1044
5.03999995440245 1015
5.05999995395541 1076
5.07999995350838 1167
5.09999995306134 1116
5.11999995261431 1166
5.13999995216727 1165
5.15999995172024 1188
5.1799999512732 1208
5.19999995082617 1255
5.21999995037913 1254
5.2399999499321 1242
5.25999994948506 1332
5.27999994903803 1353
5.29999994859099 1378
5.31999994814396 1338
5.33999994769692 1416
5.35999994724989 1512
5.37999994680285 1513
5.39999994635582 1572
5.41999994590878 1733
5.43999994546175 1753
5.45999994501471 1772
5.47999994456768 1846
5.49999994412065 1968
5.51999994367361 2056
5.53999994322658 2174
5.55999994277954 2305
5.57999994233251 2427
5.59999994188547 2549
5.61999994143844 2745
5.6399999409914 2945
5.65999994054437 3266
5.67999994009733 3724
5.6999999396503 4379
5.71999993920326 5048
5.73999993875623 5364
5.75999993830919 4815
5.77999993786216 4020
5.79999993741512 3253
5.81999993696809 2442
5.83999993652105 1996
5.85999993607402 1704
5.87999993562698 1741
5.89999993517995 1709
5.91999993473291 1695
5.93999993428588 1754
5.95999993383884 1718
5.97999993339181 1681
5.99999993294477 1728
6.01999993249774 1679
6.0399999320507 1659
6.05999993160367 1640
6.07999993115663 1511
6.0999999307096 1392
6.11999993026257 1240
6.13999992981553 1197
6.1599999293685 1195
6.17999992892146 1093
6.19999992847443 1185
6.21999992802739 1277
6.23999992758036 1236
6.25999992713332 1238
6.27999992668629 1276
6.29999992623925 1358
6.31999992579222 1353
6.33999992534518 1383
6.35999992489815 1429
6.37999992445111 1536
6.39999992400408 1541
6.41999992355704 1559
6.43999992311001 1697
6.45999992266297 1764
6.47999992221594 1811
6.4999999217689 1957
6.51999992132187 2167
6.53999992087483 2241
6.5599999204278 2481
6.57999991998076 2899
6.59999991953373 3167
6.61999991908669 3372
6.63999991863966 3213
6.65999991819262 2756
6.67999991774559 2255
6.69999991729855 1803
6.71999991685152 1532
6.73999991640449 1377
6.75999991595745 1356
6.77999991551042 1373
6.79999991506338 1388
6.81999991461635 1387
6.83999991416931 1440
6.85999991372228 1353
6.87999991327524 1402
6.89999991282821 1326
6.91999991238117 1356
6.93999991193414 1310
6.9599999114871 1309
6.97999991104007 1289
6.99999991059303 1230
7.019999910146 1127
7.03999990969896 1157
7.05999990925193 1181
7.07999990880489 1182
7.09999990835786 1175
7.11999990791082 1096
7.13999990746379 1135
7.15999990701675 1162
7.17999990656972 1167
7.19999990612268 1178
7.21999990567565 1187
7.23999990522861 1158
7.25999990478158 1166
7.27999990433454 1148
7.29999990388751 1180
7.31999990344047 1157
7.33999990299344 1177
7.35999990254641 1129
7.37999990209937 1108
7.39999990165234 1120
7.4199999012053 1141
7.43999990075827 1062
7.45999990031123 1081
7.4799998998642 1046
7.49999989941716 1075
7.51999989897013 1097
7.53999989852309 1069
7.55999989807606 1036
7.57999989762902 984
7.59999989718199 1034
7.61999989673495 970
7.63999989628792 939
7.65999989584088 945
7.67999989539385 947
7.69999989494681 948
7.71999989449978 851
7.73999989405274 872
7.75999989360571 921
7.77999989315867 904
7.79999989271164 834
7.8199998922646 843
7.83999989181757 886
7.85999989137053 867
7.8799998909235 834
7.89999989047646 828
7.91999989002943 830
7.9399998895824 841
7.95999988913536 767
7.97999988868833 818
7.99999988824129 840
8.01999988779426 822
8.03999988734722 851
8.05999988690019 860
8.07999988645315 819
8.09999988600612 791
8.11999988555908 810
8.13999988511205 781
8.15999988466501 806
8.17999988421798 775
8.19999988377094 788
8.21999988332391 763
8.23999988287687 768
8.25999988242984 818
8.2799998819828 792
8.29999988153577 829
8.31999988108873 776
8.3399998806417 788
8.35999988019466 795
8.37999987974763 787
8.39999987930059 821
8.41999987885356 774
8.43999987840652 809
8.45999987795949 817
8.47999987751245 786
8.49999987706542 821
8.51999987661839 824
8.53999987617135 800
8.55999987572432 796
8.57999987527728 741
8.59999987483025 769
8.61999987438321 824
8.63999987393618 732
8.65999987348914 804
8.67999987304211 762
8.69999987259507 786
8.71999987214804 797
8.739999871701 802
8.75999987125397 786
8.77999987080693 816
8.7999998703599 787
8.81999986991286 871
8.83999986946583 845
8.85999986901879 841
8.87999986857176 811
8.89999986812472 885
8.91999986767769 901
8.93999986723065 878
8.95999986678362 886
8.97999986633658 906
8.99999986588955 889
9.01999986544251 997
9.03999986499548 962
9.05999986454844 1011
9.07999986410141 1051
9.09999986365438 1056
9.11999986320734 1104
9.13999986276031 1161
9.15999986231327 1257
9.17999986186624 1281
9.1999998614192 1316
9.21999986097217 1376
9.23999986052513 1563
9.2599998600781 1658
9.27999985963106 1851
9.29999985918403 2011
9.31999985873699 2387
9.33999985828996 2584
9.35999985784292 2490
9.37999985739589 2338
9.39999985694885 1955
9.41999985650182 1441
9.43999985605478 1159
9.45999985560775 1058
9.47999985516071 994
9.49999985471368 992
9.51999985426664 876
9.53999985381961 916
9.55999985337257 979
9.57999985292554 979
9.5999998524785 979
9.61999985203147 919
9.63999985158443 907
9.6599998511374 940
9.67999985069037 914
9.69999985024333 796
9.7199998497963 846
9.73999984934926 809
9.75999984890223 793
9.77999984845519 828
9.79999984800816 763
9.81999984756112 822
9.83999984711409 783
9.85999984666705 787
9.87999984622002 761
9.89999984577298 777
9.91999984532595 805
9.93999984487891 768
9.95999984443188 824
9.97999984398484 757
9.99999984353781 726
10.0199998430908 747
10.0399998426437 770
10.0599998421967 746
10.0799998417497 752
10.0999998413026 763
10.1199998408556 761
10.1399998404086 720
10.1599998399615 721
10.1799998395145 750
10.1999998390675 706
10.2199998386204 752
10.2399998381734 744
10.2599998377264 771
10.2799998372793 779
10.2999998368323 761
10.3199998363853 784
10.3399998359382 815
10.3599998354912 748
10.3799998350441 791
10.3999998345971 786
10.4199998341501 791
10.439999833703 823
10.459999833256 803
10.479999832809 788
10.4999998323619 812
10.5199998319149 763
10.5399998314679 820
10.5599998310208 866
10.5799998305738 922
10.5999998301268 876
10.6199998296797 891
10.6399998292327 967
10.6599998287857 944
10.6799998283386 959
10.6999998278916 1005
10.7199998274446 1045
10.7399998269975 1129
10.7599998265505 1084
10.7799998261034 1172
10.7999998256564 1212
10.8199998252094 1308
10.8399998247623 1339
10.8599998243153 1493
10.8799998238683 1626
10.8999998234212 1831
10.9199998229742 2024
10.9399998225272 2316
10.9599998220801 2463
10.9799998216331 2427
10.9999998211861 2042
11.019999820739 1644
11.039999820292 1289
11.059999819845 1104
11.0799998193979 1043
11.0999998189509 967
11.1199998185039 997
11.1399998180568 947
11.1599998176098 978
11.1799998171628 990
11.1999998167157 1027
11.2199998162687 1018
11.2399998158216 1014
11.2599998153746 1085
11.2799998149276 1133
11.2999998144805 1102
11.3199998140335 1126
11.3399998135865 1163
11.3599998131394 1210
11.3799998126924 1311
11.3999998122454 1400
11.4199998117983 1514
11.4399998113513 1596
11.4599998109043 1634
11.4799998104572 1502
11.4999998100102 1243
11.5199998095632 1058
11.5399998091161 912
11.5599998086691 883
11.5799998082221 857
11.599999807775 849
11.619999807328 852
11.639999806881 790
11.6599998064339 831
11.6799998059869 821
11.6999998055398 875
11.7199998050928 837
11.7399998046458 884
11.7599998041987 817
11.7799998037517 821
11.7999998033047 845
11.8199998028576 853
11.8399998024106 826
11.8599998019636 842
11.8799998015165 836
11.8999998010695 860
11.9199998006225 840
11.9399998001754 852
11.9599997997284 805
11.9799997992814 810
11.9999997988343 801
12.0199997983873 771
12.0399997979403 807
12.0599997974932 821
12.0799997970462 779
12.0999997965992 810
12.1199997961521 801
12.1399997957051 788
12.159999795258 763
12.179999794811 805
12.199999794364 764
12.2199997939169 771
12.2399997934699 779
12.2599997930229 809
12.2799997925758 771
12.2999997921288 774
12.3199997916818 781
12.3399997912347 751
12.3599997907877 797
12.3799997903407 783
12.3999997898936 725
12.4199997894466 724
12.4399997889996 780
12.4599997885525 739
12.4799997881055 800
12.4999997876585 771
12.5199997872114 739
12.5399997867644 747
12.5599997863173 727
12.5799997858703 813
12.5999997854233 767
12.6199997849762 791
12.6399997845292 791
12.6599997840822 789
12.6799997836351 780
12.6999997831881 784
12.7199997827411 740
12.739999782294 778
12.759999781847 745
12.7799997814 755
12.7999997809529 763
12.8199997805059 767
12.8399997800589 785
12.8599997796118 725
12.8799997791648 806
12.8999997787178 803
12.9199997782707 789
12.9399997778237 790
12.9599997773767 872
12.9799997769296 857
12.9999997764826 820
13.0199997760355 796
13.0399997755885 865
13.0599997751415 876
13.0799997746944 824
13.0999997742474 840
13.1199997738004 874
13.1399997733533 912
13.1599997729063 979
13.1799997724593 977
13.1999997720122 1009
13.2199997715652 1081
13.2399997711182 1029
13.2599997706711 922
13.2799997702241 903
13.2999997697771 853
13.31999976933 848
13.339999768883 808
13.359999768436 793
13.3799997679889 823
13.3999997675419 817
13.4199997670949 790
13.4399997666478 779
13.4599997662008 851
13.4799997657537 798
13.4999997653067 784
13.5199997648597 760
13.5399997644126 804
13.5599997639656 854
13.5799997635186 848
13.5999997630715 809
13.6199997626245 792
13.6399997621775 800
13.6599997617304 794
13.6799997612834 793
13.6999997608364 828
13.7199997603893 773
13.7399997599423 749
13.7599997594953 811
13.7799997590482 849
13.7999997586012 852
13.8199997581542 815
13.8399997577071 819
13.8599997572601 849
13.879999756813 821
13.899999756366 865
13.919999755919 879
13.9399997554719 870
13.9599997550249 885
13.9799997545779 833
13.9999997541308 853
14.0199997536838 867
14.0399997532368 860
14.0599997527897 859
14.0799997523427 813
14.0999997518957 841
14.1199997514486 857
14.1399997510016 805
14.1599997505546 877
14.1799997501075 840
14.1999997496605 844
14.2199997492135 901
14.2399997487664 891
14.2599997483194 909
14.2799997478724 924
14.2999997474253 985
14.3199997469783 972
14.3399997465312 989
14.3599997460842 979
14.3799997456372 1011
14.3999997451901 1086
14.4199997447431 1058
14.4399997442961 993
14.459999743849 987
14.479999743402 968
14.499999742955 884
14.5199997425079 901
14.5399997420609 854
14.5599997416139 879
14.5799997411668 879
14.5999997407198 838
14.6199997402728 841
14.6399997398257 894
14.6599997393787 877
14.6799997389317 899
14.6999997384846 936
14.7199997380376 918
14.7399997375906 928
14.7599997371435 913
14.7799997366965 950
14.7999997362494 846
14.8199997358024 892
14.8399997353554 887
14.8599997349083 918
14.8799997344613 851
14.8999997340143 836
14.9199997335672 832
14.9399997331202 886
14.9599997326732 838
14.9799997322261 868
14.9999997317791 850
15.0199997313321 861
15.039999730885 862
15.059999730438 914
15.079999729991 904
15.0999997295439 889
15.1199997290969 851
15.1399997286499 831
15.1599997282028 886
15.1799997277558 860
15.1999997273088 862
15.2199997268617 863
15.2399997264147 866
15.2599997259676 930
15.2799997255206 915
15.2999997250736 944
15.3199997246265 908
15.3399997241795 852
15.3599997237325 938
15.3799997232854 909
15.3999997228384 932
15.4199997223914 933
15.4399997219443 876
15.4599997214973 870
15.4799997210503 916
15.4999997206032 985
15.5199997201562 919
15.5399997197092 896
15.5599997192621 968
15.5799997188151 931
15.5999997183681 923
15.619999717921 949
15.639999717474 937
15.659999717027 910
15.6799997165799 939
15.6999997161329 932
15.7199997156858 935
15.7399997152388 926
15.7599997147918 995
15.7799997143447 890
15.7999997138977 955
15.8199997134507 942
15.8399997130036 938
15.8599997125566 968
15.8799997121096 952
15.8999997116625 944
15.9199997112155 982
15.9399997107685 945
15.9599997103214 949
15.9799997098744 988
15.9999997094274 995
16.0199997089803 894
16.0399997085333 943
16.0599997080863 957
16.0799997076392 960
16.0999997071922 992
16.1199997067451 1019
16.1399997062981 963
16.1599997058511 1008
16.179999705404 961
16.199999704957 971
16.21999970451 955
16.2399997040629 982
16.2599997036159 961
16.2799997031689 980
16.2999997027218 1050
16.3199997022748 978
16.3399997018278 1008
16.3599997013807 1025
16.3799997009337 1045
16.3999997004867 992
16.4199997000396 1060
16.4399996995926 1014
16.4599996991456 1006
16.4799996986985 1003
16.4999996982515 991
16.5199996978045 1020
16.5399996973574 1045
16.5599996969104 1076
16.5799996964633 1042
16.5999996960163 1002
16.6199996955693 1039
16.6399996951222 1048
16.6599996946752 1066
16.6799996942282 1046
16.6999996937811 1035
16.7199996933341 1076
16.7399996928871 1050
16.75999969244 1002
16.779999691993 1079
16.799999691546 1140
16.8199996910989 1152
16.8399996906519 1101
16.8599996902049 1111
16.8799996897578 1040
16.8999996893108 1093
16.9199996888638 1102
16.9399996884167 1100
16.9599996879697 1108
16.9799996875226 1132
16.9999996870756 1162
17.0199996866286 1145
17.0399996861815 1154
17.0599996857345 1198
17.0799996852875 1153
17.0999996848404 1186
17.1199996843934 1303
17.1399996839464 1272
17.1599996834993 1320
17.1799996830523 1278
17.1999996826053 1345
17.2199996821582 1293
17.2399996817112 1188
17.2599996812642 1234
17.2799996808171 1138
17.2999996803701 1191
17.3199996799231 1114
17.339999679476 1174
17.359999679029 1164
17.379999678582 1169
17.3999996781349 1203
17.4199996776879 1183
17.4399996772408 1119
17.4599996767938 1179
17.4799996763468 1198
17.4999996758997 1172
17.5199996754527 1163
17.5399996750057 1198
17.5599996745586 1213
17.5799996741116 1132
17.5999996736646 1196
17.6199996732175 1146
17.6399996727705 1186
17.6599996723235 1212
17.6799996718764 1258
17.6999996714294 1168
17.7199996709824 1216
17.7399996705353 1205
17.7599996700883 1188
17.7799996696413 1199
17.7999996691942 1193
17.8199996687472 1221
17.8399996683002 1249
17.8599996678531 1168
17.8799996674061 1251
17.899999666959 1213
17.919999666512 1199
17.939999666065 1164
17.9599996656179 1250
17.9799996651709 1242
17.9999996647239 1305
18.0199996642768 1259
18.0399996638298 1277
18.0599996633828 1208
18.0799996629357 1274
18.0999996624887 1265
18.1199996620417 1267
18.1399996615946 1290
18.1599996611476 1294
18.1799996607006 1275
18.1999996602535 1266
18.2199996598065 1289
18.2399996593595 1331
18.2599996589124 1262
18.2799996584654 1238
18.2999996580184 1257
18.3199996575713 1301
18.3399996571243 1210
18.3599996566772 1404
18.3799996562302 1333
18.3999996557832 1305
18.4199996553361 1331
18.4399996548891 1339
18.4599996544421 1366
18.479999653995 1363
18.499999653548 1366
18.519999653101 1338
18.5399996526539 1319
18.5599996522069 1389
18.5799996517599 1424
18.5999996513128 1328
18.6199996508658 1332
18.6399996504188 1313
18.6599996499717 1388
18.6799996495247 1372
18.6999996490777 1343
18.7199996486306 1423
18.7399996481836 1465
18.7599996477366 1328
18.7799996472895 1396
18.7999996468425 1438
18.8199996463954 1384
18.8399996459484 1310
18.8599996455014 1395
18.8799996450543 1424
18.8999996446073 1371
18.9199996441603 1404
18.9399996437132 1377
18.9599996432662 1412
18.9799996428192 1424
18.9999996423721 1361
19.0199996419251 1416
19.0399996414781 1408
19.059999641031 1331
19.079999640584 1404
19.099999640137 1368
19.1199996396899 1438
19.1399996392429 1484
19.1599996387959 1447
19.1799996383488 1383
19.1999996379018 1550
19.2199996374547 1480
19.2399996370077 1406
19.2599996365607 1558
19.2799996361136 1492
19.2999996356666 1547
19.3199996352196 1480
19.3399996347725 1562
19.3599996343255 1571
19.3799996338785 1555
19.3999996334314 1604
19.4199996329844 1629
19.4399996325374 1627
19.4599996320903 1700
19.4799996316433 1680
19.4999996311963 1882
19.5199996307492 1934
19.5399996303022 2030
19.5599996298552 2044
19.5799996294081 2067
19.5999996289611 2112
19.6199996285141 2009
19.639999628067 1925
19.65999962762 1769
19.6799996271729 1800
19.6999996267259 1803
19.7199996262789 1729
19.7399996258318 1856
19.7599996253848 1932
19.7799996249378 2066
19.7999996244907 2216
19.8199996240437 2345
19.8399996235967 2379
19.8599996231496 2456
19.8799996227026 2444
19.8999996222556 2195
19.9199996218085 2003
19.9399996213615 1807
19.9599996209145 1731
19.9799996204674 1574
19.9999996200204 1617
20.0199996195734 1574
20.0399996191263 1652
20.0599996186793 1607
20.0799996182322 1585
20.0999996177852 1543
20.1199996173382 1550
20.1399996168911 1523
20.1599996164441 1584
20.1799996159971 1530
20.19999961555 1575
20.219999615103 1605
20.239999614656 1575
20.2599996142089 1595
20.2799996137619 1576
20.2999996133149 1494
20.3199996128678 1593
20.3399996124208 1476
20.3599996119738 1510
20.3799996115267 1577
20.3999996110797 1551
20.4199996106327 1562
20.4399996101856 1627
20.4599996097386 1528
20.4799996092916 1601
20.4999996088445 1663
20.5199996083975 1575
20.5399996079504 1575
20.5599996075034 1573
20.5799996070564 1559
20.5999996066093 1568
20.6199996061623 1598
20.6399996057153 1614
20.6599996052682 1544
20.6799996048212 1560
20.6999996043742 1601
20.7199996039271 1543
20.7399996034801 1570
20.7599996030331 1642
20.779999602586 1605
20.799999602139 1603
20.819999601692 1595
20.8399996012449 1589
20.8599996007979 1555
20.8799996003509 1603
20.8999995999038 1546
20.9199995994568 1587
20.9399995990098 1645
20.9599995985627 1569
20.9799995981157 1647
20.9999995976686 1602
21.0199995972216 1629
21.0399995967746 1577
21.0599995963275 1617
21.0799995958805 1602
21.0999995954335 1586
21.1199995949864 1599
21.1399995945394 1549
21.1599995940924 1662
21.1799995936453 1627
21.1999995931983 1541
21.2199995927513 1638
21.2399995923042 1624
21.2599995918572 1611
21.2799995914102 1613
21.2999995909631 1548
21.3199995905161 1551
21.3399995900691 1605
21.359999589622 1600
21.379999589175 1596
21.399999588728 1654
21.4199995882809 1544
21.4399995878339 1608
21.4599995873868 1649
21.4799995869398 1575
21.4999995864928 1547
21.5199995860457 1579
21.5399995855987 1592
21.5599995851517 1624
21.5799995847046 1547
21.5999995842576 1715
21.6199995838106 1668
21.6399995833635 1707
21.6599995829165 1736
21.6799995824695 1774
21.6999995820224 1755
21.7199995815754 1820
21.7399995811284 1872
21.7599995806813 1754
21.7799995802343 1676
21.7999995797873 1718
21.8199995793402 1698
21.8399995788932 1665
21.8599995784462 1581
21.8799995779991 1611
21.8999995775521 1590
21.919999577105 1587
21.939999576658 1613
21.959999576211 1584
21.9799995757639 1629
21.9999995753169 1625
22.0199995748699 1529
22.0399995744228 1531
22.0599995739758 1594
22.0799995735288 1510
22.0999995730817 1487
22.1199995726347 1551
22.1399995721877 1574
22.1599995717406 1514
22.1799995712936 1517
22.1999995708466 1551
22.2199995703995 1568
22.2399995699525 1524
22.2599995695055 1546
22.2799995690584 1504
22.2999995686114 1502
22.3199995681643 1492
22.3399995677173 1507
22.3599995672703 1532
22.3799995668232 1483
22.3999995663762 1528
22.4199995659292 1494
22.4399995654821 1478
22.4599995650351 1431
22.4799995645881 1517
22.499999564141 1513
22.519999563694 1534
22.539999563247 1507
22.5599995627999 1444
22.5799995623529 1435
22.5999995619059 1461
22.6199995614588 1500
22.6399995610118 1434
22.6599995605648 1436
22.6799995601177 1530
22.6999995596707 1459
22.7199995592237 1496
22.7399995587766 1480
22.7599995583296 1458
22.7799995578825 1457
22.7999995574355 1428
22.8199995569885 1462
22.8399995565414 1452
22.8599995560944 1502
22.8799995556474 1486
22.8999995552003 1534
22.9199995547533 1479
22.9399995543063 1492
22.9599995538592 1592
22.9799995534122 1543
22.9999995529652 1493
23.0199995525181 1429
23.0399995520711 1497
23.0599995516241 1389
23.079999551177 1451
23.09999955073 1458
23.119999550283 1389
23.1399995498359 1397
23.1599995493889 1411
23.1799995489418 1378
23.1999995484948 1468
23.2199995480478 1415
23.2399995476007 1386
23.2599995471537 1417
23.2799995467067 1377
23.2999995462596 1440
23.3199995458126 1402
23.3399995453656 1415
23.3599995449185 1318
23.3799995444715 1370
23.3999995440245 1413
23.4199995435774 1403
23.4399995431304 1378
23.4599995426834 1360
23.4799995422363 1437
23.4999995417893 1501
23.5199995413423 1416
23.5399995408952 1496
23.5599995404482 1486
23.5799995400012 1561
23.5999995395541 1664
23.6199995391071 1813
23.63999953866 1917
23.659999538213 2058
23.679999537766 2050
23.6999995373189 2032
23.7199995368719 1841
23.7399995364249 1711
23.7599995359778 1618
23.7799995355308 1538
23.7999995350838 1554
23.8199995346367 1417
23.8399995341897 1461
23.8599995337427 1376
23.8799995332956 1421
23.8999995328486 1515
23.9199995324016 1498
23.9399995319545 1436
23.9599995315075 1403
23.9799995310605 1451
23.9999995306134 1336
24.0199995301664 1360
24.0399995297194 1428
24.0599995292723 1363
24.0799995288253 1374
24.0999995283782 1316
24.1199995279312 1300
24.1399995274842 1253
24.1599995270371 1282
24.1799995265901 1303
24.1999995261431 1252
24.219999525696 1293
24.239999525249 1265
24.259999524802 1291
24.2799995243549 1225
24.2999995239079 1327
24.3199995234609 1294
24.3399995230138 1233
24.3599995225668 1257
24.3799995221198 1236
24.3999995216727 1260
24.4199995212257 1246
24.4399995207787 1239
24.4599995203316 1255
24.4799995198846 1281
24.4999995194376 1254
24.5199995189905 1231
24.5399995185435 1230
24.5599995180964 1207
24.5799995176494 1204
24.5999995172024 1234
24.6199995167553 1268
24.6399995163083 1322
24.6599995158613 1258
24.6799995154142 1260
24.6999995149672 1237
24.7199995145202 1404
24.7399995140731 1424
24.7599995136261 1511
24.7799995131791 1549
24.799999512732 1568
24.819999512285 1603
24.839999511838 1618
24.8599995113909 1541
24.8799995109439 1478
24.8999995104969 1408
24.9199995100498 1350
24.9399995096028 1233
24.9599995091558 1196
24.9799995087087 1217
24.9999995082617 1228
25.0199995078146 1206
25.0399995073676 1145
25.0599995069206 1179
25.0799995064735 1223
25.0999995060265 1196
25.1199995055795 1191
25.1399995051324 1174
25.1599995046854 1181
25.1799995042384 1197
25.1999995037913 1145
25.2199995033443 1222
25.2399995028973 1177
25.2599995024502 1197
25.2799995020032 1226
25.2999995015562 1214
25.3199995011091 1269
25.3399995006621 1287
25.3599995002151 1279
25.379999499768 1280
25.399999499321 1410
25.4199994988739 1508
25.4399994984269 1633
25.4599994979799 1692
25.4799994975328 1795
25.4999994970858 1856
25.5199994966388 1828
25.5399994961917 1638
25.5599994957447 1495
25.5799994952977 1397
25.5999994948506 1260
25.6199994944036 1220
25.6399994939566 1156
25.6599994935095 1164
25.6799994930625 1174
25.6999994926155 1150
25.7199994921684 1140
25.7399994917214 1094
25.7599994912744 1107
25.7799994908273 1122
25.7999994903803 1111
25.8199994899333 1058
25.8399994894862 1100
25.8599994890392 1097
25.8799994885921 1164
25.8999994881451 1097
25.9199994876981 1069
25.939999487251 1063
25.959999486804 1054
25.979999486357 1036
25.9999994859099 1062
26.0199994854629 1089
26.0399994850159 1074
26.0599994845688 1070
26.0799994841218 1016
26.0999994836748 1025
26.1199994832277 1054
26.1399994827807 1032
26.1599994823337 1096
26.1799994818866 1005
26.1999994814396 1078
26.2199994809926 990
26.2399994805455 1000
26.2599994800985 1017
26.2799994796514 1016
26.2999994792044 1049
26.3199994787574 995
26.3399994783103 1044
26.3599994778633 1032
26.3799994774163 1056
26.3999994769692 1014
26.4199994765222 1039
26.4399994760752 1058
26.4599994756281 1094
26.4799994751811 1133
26.4999994747341 1251
26.519999474287 1338
26.53999947384 1364
26.559999473393 1403
26.5799994729459 1397
26.5999994724989 1356
26.6199994720519 1314
26.6399994716048 1220
26.6599994711578 1160
26.6799994707108 1104
26.6999994702637 1041
26.7199994698167 1047
26.7399994693697 1001
26.7599994689226 991
26.7799994684756 1038
26.7999994680285 976
26.8199994675815 1008
26.8399994671345 1010
26.8599994666874 948
26.8799994662404 959
26.8999994657934 958
26.9199994653463 1021
26.9399994648993 1020
26.9599994644523 930
26.9799994640052 984
26.9999994635582 995
27.0199994631112 990
27.0399994626641 1016
27.0599994622171 962
27.0799994617701 985
27.099999461323 928
27.119999460876 969
27.139999460429 986
27.1599994599819 1010
27.1799994595349 1018
27.1999994590878 1022
27.2199994586408 942
27.2399994581938 955
27.2599994577467 946
27.2799994572997 1046
27.2999994568527 1148
27.3199994564056 1120
27.3399994559586 1244
27.3599994555116 1323
27.3799994550645 1397
27.3999994546175 1385
27.4199994541705 1486
27.4399994537234 1284
27.4599994532764 1135
27.4799994528294 1153
27.4999994523823 1121
27.5199994519353 1030
27.5399994514883 909
27.5599994510412 977
27.5799994505942 950
27.5999994501472 917
27.6199994497001 949
27.6399994492531 894
27.659999448806 920
27.679999448359 909
27.699999447912 903
27.7199994474649 882
27.7399994470179 886
27.7599994465709 900
27.7799994461238 872
27.7999994456768 914
27.8199994452298 878
27.8399994447827 855
27.8599994443357 914
27.8799994438887 941
27.8999994434416 893
27.9199994429946 882
27.9399994425476 888
27.9599994421005 887
27.9799994416535 952
27.9999994412065 902
28.0199994407594 886
28.0399994403124 898
28.0599994398654 868
28.0799994394183 931
28.0999994389713 919
28.1199994385242 953
28.1399994380772 933
28.1599994376302 979
28.1799994371831 1050
28.1999994367361 997
28.2199994362891 1019
28.239999435842 1009
28.259999435395 946
28.279999434948 942
28.2999994345009 888
28.3199994340539 885
28.3399994336069 859
28.3599994331598 859
28.3799994327128 843
28.3999994322658 818
28.4199994318187 835
28.4399994313717 809
28.4599994309247 817
28.4799994304776 835
28.4999994300306 909
28.5199994295835 870
28.5399994291365 831
28.5599994286895 842
28.5799994282424 878
28.5999994277954 846
28.6199994273484 937
28.6399994269013 871
28.6599994264543 921
28.6799994260073 932
28.6999994255602 896
28.7199994251132 1018
28.7399994246662 992
28.7599994242191 1113
28.7799994237721 1149
28.7999994233251 1204
28.819999422878 1301
28.839999422431 1167
28.859999421984 1084
28.8799994215369 1057
28.8999994210899 1022
28.9199994206429 1107
28.9399994201958 1027
28.9599994197488 1124
28.9799994193017 1191
28.9999994188547 1198
29.0199994184077 1210
29.0399994179606 1013
29.0599994175136 1024
29.0799994170666 922
29.0999994166195 949
29.1199994161725 849
29.1399994157255 864
29.1599994152784 841
29.1799994148314 801
29.1999994143844 818
29.2199994139373 788
29.2399994134903 753
29.2599994130433 794
29.2799994125962 752
29.2999994121492 799
29.3199994117022 788
29.3399994112551 787
29.3599994108081 800
29.379999410361 790
29.399999409914 809
29.419999409467 796
29.4399994090199 803
29.4599994085729 815
29.4799994081259 769
29.4999994076788 753
29.5199994072318 745
29.5399994067848 832
29.5599994063377 789
29.5799994058907 741
29.5999994054437 735
29.6199994049966 813
29.6399994045496 828
29.6599994041026 762
29.6799994036555 792
29.6999994032085 758
29.7199994027615 815
29.7399994023144 758
29.7599994018674 775
29.7799994014204 814
29.7999994009733 750
29.8199994005263 777
29.8399994000793 754
29.8599993996322 770
29.8799993991852 815
29.8999993987381 781
29.9199993982911 776
29.9399993978441 780
29.959999397397 789
29.97999939695 731
29.999999396503 807
