3 2365
3.01999999955297 2200
3.03999999910593 1987
3.0599999986589 1907
3.07999999821186 1786
3.09999999776483 1688
3.11999999731779 1662
3.13999999687076 1587
3.15999999642372 1610
3.17999999597669 1567
3.19999999552965 1570
3.21999999508262 1555
3.23999999463558 1547
3.25999999418855 1507
3.27999999374151 1474
3.29999999329448 1491
3.31999999284744 1436
3.33999999240041 1468
3.35999999195337 1424
3.37999999150634 1410
3.3999999910593 1455
3.41999999061227 1413
3.43999999016523 1502
3.4599999897182 1610
3.47999998927116 1517
3.49999998882413 1574
3.51999998837709 1442
3.53999998793006 1445
3.55999998748302 1410
3.57999998703599 1359
3.59999998658895 1368
3.61999998614192 1346
3.63999998569489 1317
3.65999998524785 1331
3.67999998480082 1349
3.69999998435378 1219
3.71999998390675 1200
3.73999998345971 1238
3.75999998301268 1236
3.77999998256564 1174
3.79999998211861 1123
3.81999998167157 1174
3.83999998122454 1106
3.8599999807775 1189
3.87999998033047 1079
3.89999997988343 1125
3.9199999794364 1039
3.93999997898936 1092
3.95999997854233 1104
3.97999997809529 1073
3.99999997764826 1036
4.01999997720122 1039
4.03999997675419 1059
4.05999997630715 1059
4.07999997586012 1073
4.09999997541308 1044
4.11999997496605 1021
4.13999997451901 1053
4.15999997407198 1024
4.17999997362494 989
4.19999997317791 1042
4.21999997273087 1015
4.23999997228384 1003
4.25999997183681 990
4.27999997138977 934
4.29999997094274 976
4.3199999704957 957
4.33999997004867 954
4.35999996960163 876
4.3799999691546 903
4.39999996870756 902
4.41999996826053 989
4.43999996781349 953
4.45999996736646 963
4.47999996691942 937
4.49999996647239 954
4.51999996602535 920
4.53999996557832 926
4.55999996513128 950
4.57999996468425 951
4.59999996423721 950
4.61999996379018 967
4.63999996334314 938
4.65999996289611 921
4.67999996244907 966
4.69999996200204 925
4.719999961555 945
4.73999996110797 965
4.75999996066093 954
4.7799999602139 958
4.79999995976686 915
4.81999995931983 921
4.83999995887279 996
4.85999995842576 925
4.87999995797873 942
4.89999995753169 1010
4.91999995708466 940
4.93999995663762 1011
4.95999995619059 994
4.97999995574355 1012
4.99999995529652 1012
5.01999995484948 1082
5.03999995440245 1041
5.05999995395541 1087
5.07999995350838 1066
5.09999995306134 1128
5.11999995261431 1111
5.13999995216727 1170
5.15999995172024 1162
5.1799999512732 1184
5.19999995082617 1239
5.21999995037913 1267
5.2399999499321 1303
5.25999994948506 1300
5.27999994903803 1310
5.29999994859099 1472
5.31999994814396 1491
5.33999994769692 1525
5.35999994724989 1621
5.37999994680285 1684
5.39999994635582 1836
5.41999994590878 1849
5.43999994546175 1934
5.45999994501471 1863
5.47999994456768 1928
5.49999994412065 2013
5.51999994367361 1985
5.53999994322658 2198
5.55999994277954 2241
5.57999994233251 2450
5.59999994188547 2576
5.61999994143844 2728
5.6399999409914 2958
5.65999994054437 3186
5.67999994009733 3413
5.6999999396503 3954
5.71999993920326 4728
5.73999993875623 5828
5.75999993830919 6196
5.77999993786216 5009
5.79999993741512 3348
5.81999993696809 2160
5.83999993652105 1607
5.85999993607402 1386
5.87999993562698 1313
5.89999993517995 1264
5.91999993473291 1183
5.93999993428588 1135
5.95999993383884 1111
5.97999993339181 1105
5.99999993294477 1070
6.01999993249774 1001
6.0399999320507 1048
6.05999993160367 1059
6.07999993115663 1041
6.0999999307096 1030
6.11999993026257 1018
6.13999992981553 1027
6.1599999293685 1043
6.17999992892146 1073
6.19999992847443 1015
6.21999992802739 1021
6.23999992758036 1057
6.25999992713332 1100
6.27999992668629 1181
6.29999992623925 1157
6.31999992579222 1182
6.33999992534518 1233
6.35999992489815 1223
6.37999992445111 1176
6.39999992400408 1377
6.41999992355704 1409
6.43999992311001 1391
6.45999992266297 1576
6.47999992221594 1623
6.4999999217689 1702
6.51999992132187 1716
6.53999992087483 1890
6.5599999204278 2030
6.57999991998076 2305
6.59999991953373 2645
6.61999991908669 3173
6.63999991863966 3254
6.65999991819262 2846
6.67999991774559 1982
6.69999991729855 1468
6.71999991685152 1191
6.73999991640449 1061
6.75999991595745 1103
6.77999991551042 1058
6.79999991506338 1019
6.81999991461635 1043
6.83999991416931 1051
6.85999991372228 1092
6.87999991327524 1088
6.89999991282821 1086
6.91999991238117 1127
6.93999991193414 1111
6.9599999114871 1055
6.97999991104007 1089
6.99999991059303 1181
7.019999910146 1085
7.03999990969896 1102
7.05999990925193 1116
7.07999990880489 1157
7.09999990835786 1111
7.11999990791082 1088
7.13999990746379 1123
7.15999990701675 1143
7.17999990656972 1199
7.19999990612268 1217
7.21999990567565 1245
7.23999990522861 1272
7.25999990478158 1299
7.27999990433454 1260
7.29999990388751 1370
7.31999990344047 1404
7.33999990299344 1467
7.35999990254641 1514
7.37999990209937 1525
7.39999990165234 1637
7.4199999012053 1488
7.43999990075827 1364
7.45999990031123 1222
7.4799998998642 1183
7.49999989941716 1047
7.51999989897013 1025
7.53999989852309 990
7.55999989807606 982
7.57999989762902 882
7.59999989718199 914
7.61999989673495 893
7.63999989628792 917
7.65999989584088 907
7.67999989539385 900
7.69999989494681 875
7.71999989449978 880
7.73999989405274 913
7.75999989360571 876
7.77999989315867 878
7.79999989271164 864
7.8199998922646 872
7.83999989181757 865
7.85999989137053 818
7.8799998909235 850
7.89999989047646 827
7.91999989002943 861
7.9399998895824 866
7.95999988913536 894
7.97999988868833 892
7.99999988824129 848
8.01999988779426 883
8.03999988734722 910
8.05999988690019 856
8.07999988645315 842
8.09999988600612 841
8.11999988555908 871
8.13999988511205 792
8.15999988466501 803
8.17999988421798 882
8.19999988377094 878
8.21999988332391 857
8.23999988287687 888
8.25999988242984 898
8.2799998819828 846
8.29999988153577 872
8.31999988108873 886
8.3399998806417 871
8.35999988019466 913
8.37999987974763 869
8.39999987930059 858
8.41999987885356 934
8.43999987840652 882
8.45999987795949 915
8.47999987751245 902
8.49999987706542 894
8.51999987661839 921
8.53999987617135 933
8.55999987572432 940
8.57999987527728 928
8.59999987483025 901
8.61999987438321 890
8.63999987393618 900
8.65999987348914 854
8.67999987304211 834
8.69999987259507 842
8.71999987214804 831
8.739999871701 840
8.75999987125397 831
8.77999987080693 893
8.7999998703599 811
8.81999986991286 852
8.83999986946583 908
8.85999986901879 829
8.87999986857176 842
8.89999986812472 914
8.91999986767769 943
8.93999986723065 897
8.95999986678362 923
8.97999986633658 953
8.99999986588955 1007
9.01999986544251 954
9.03999986499548 953
9.05999986454844 1027
9.07999986410141 1051
9.09999986365438 1036
9.11999986320734 1161
9.13999986276031 1162
9.15999986231327 1180
9.17999986186624 1207
9.1999998614192 1286
9.21999986097217 1360
9.23999986052513 1479
9.2599998600781 1522
9.27999985963106 1628
9.29999985918403 1896
9.31999985873699 2077
9.33999985828996 2435
9.35999985784292 2731
9.37999985739589 2585
9.39999985694885 1944
9.41999985650182 1341
9.43999985605478 1027
9.45999985560775 968
9.47999985516071 927
9.49999985471368 919
9.51999985426664 919
9.53999985381961 909
9.55999985337257 934
9.57999985292554 909
9.5999998524785 856
9.61999985203147 865
9.63999985158443 858
9.6599998511374 872
9.67999985069037 903
9.69999985024333 876
9.7199998497963 872
9.73999984934926 872
9.75999984890223 906
9.77999984845519 843
9.79999984800816 863
9.81999984756112 849
9.83999984711409 913
9.85999984666705 883
9.87999984622002 864
9.89999984577298 888
9.91999984532595 931
9.93999984487891 866
9.95999984443188 857
9.97999984398484 889
9.99999984353781 895
10.0199998430908 920
10.0399998426437 852
10.0599998421967 855
10.0799998417497 838
10.0999998413026 903
10.1199998408556 836
10.1399998404086 879
10.1599998399615 894
10.1799998395145 943
10.1999998390675 881
10.2199998386204 905
10.2399998381734 919
10.2599998377264 955
10.2799998372793 886
10.2999998368323 864
10.3199998363853 864
10.3399998359382 891
10.3599998354912 838
10.3799998350441 871
10.3999998345971 894
10.4199998341501 909
10.439999833703 919
10.459999833256 915
10.479999832809 975
10.4999998323619 893
10.5199998319149 902
10.5399998314679 945
10.5599998310208 909
10.5799998305738 941
10.5999998301268 923
10.6199998296797 937
10.6399998292327 995
10.6599998287857 985
10.6799998283386 1071
10.6999998278916 1067
10.7199998274446 1077
10.7399998269975 1048
10.7599998265505 1142
10.7799998261034 1145
10.7999998256564 1258
10.8199998252094 1253
10.8399998247623 1287
10.8599998243153 1392
10.8799998238683 1388
10.8999998234212 1558
10.9199998229742 1699
10.9399998225272 2009
10.9599998220801 2329
10.9799998216331 2303
10.9999998211861 2117
11.019999820739 1761
11.039999820292 1310
11.059999819845 1143
11.0799998193979 1046
11.0999998189509 994
11.1199998185039 1001
11.1399998180568 924
11.1599998176098 1011
11.1799998171628 931
11.1999998167157 1011
11.2199998162687 1001
11.2399998158216 984
11.2599998153746 1008
11.2799998149276 1040
11.2999998144805 1057
11.3199998140335 1105
11.3399998135865 1080
11.3599998131394 1099
11.3799998126924 1143
11.3999998122454 1268
11.4199998117983 1367
11.4399998113513 1506
11.4599998109043 1582
11.4799998104572 1559
11.4999998100102 1398
11.5199998095632 1150
11.5399998091161 1084
11.5599998086691 1035
11.5799998082221 959
11.599999807775 960
11.619999807328 918
11.639999806881 974
11.6599998064339 974
11.6799998059869 918
11.6999998055398 974
11.7199998050928 960
11.7399998046458 947
11.7599998041987 975
11.7799998037517 972
11.7999998033047 979
11.8199998028576 991
11.8399998024106 946
11.8599998019636 993
11.8799998015165 958
11.8999998010695 1024
11.9199998006225 993
11.9399998001754 935
11.9599997997284 993
11.9799997992814 1000
11.9999997988343 1009
12.0199997983873 1087
12.0399997979403 1000
12.0599997974932 1060
12.0799997970462 1031
12.0999997965992 1004
12.1199997961521 1020
12.1399997957051 1001
12.159999795258 950
12.179999794811 986
12.199999794364 971
12.2199997939169 985
12.2399997934699 997
12.2599997930229 912
12.2799997925758 956
12.2999997921288 941
12.3199997916818 999
12.3399997912347 970
12.3599997907877 978
12.3799997903407 939
12.3999997898936 953
12.4199997894466 911
12.4399997889996 925
12.4599997885525 943
12.4799997881055 999
12.4999997876585 974
12.5199997872114 948
12.5399997867644 946
12.5599997863173 964
12.5799997858703 1010
12.5999997854233 1022
12.6199997849762 973
12.6399997845292 1006
12.6599997840822 946
12.6799997836351 1000
12.6999997831881 940
12.7199997827411 1003
12.739999782294 990
12.759999781847 983
12.7799997814 986
12.7999997809529 1015
12.8199997805059 992
12.8399997800589 985
12.8599997796118 953
12.8799997791648 949
12.8999997787178 1004
12.9199997782707 1041
12.9399997778237 1017
12.9599997773767 1021
12.9799997769296 1016
12.9999997764826 1048
13.0199997760355 1061
13.0399997755885 1031
13.0599997751415 1035
13.0799997746944 1031
13.0999997742474 1026
13.1199997738004 1074
13.1399997733533 1029
13.1599997729063 1114
13.1799997724593 1165
13.1999997720122 1168
13.2199997715652 1182
13.2399997711182 1215
13.2599997706711 1216
13.2799997702241 1155
13.2999997697771 1083
13.31999976933 1051
13.339999768883 1075
13.359999768436 1002
13.3799997679889 1028
13.3999997675419 1034
13.4199997670949 1027
13.4399997666478 1027
13.4599997662008 1004
13.4799997657537 1083
13.4999997653067 1054
13.5199997648597 1027
13.5399997644126 1108
13.5599997639656 985
13.5799997635186 1052
13.5999997630715 1036
13.6199997626245 1061
13.6399997621775 1053
13.6599997617304 1067
13.6799997612834 1022
13.6999997608364 1097
13.7199997603893 1106
13.7399997599423 1056
13.7599997594953 1034
13.7799997590482 1122
13.7999997586012 1121
13.8199997581542 1003
13.8399997577071 1075
13.8599997572601 1111
13.879999756813 1080
13.899999756366 1135
13.919999755919 1108
13.9399997554719 1093
13.9599997550249 1169
13.9799997545779 1169
13.9999997541308 1085
14.0199997536838 1116
14.0399997532368 1160
14.0599997527897 1133
14.0799997523427 1109
14.0999997518957 1187
14.1199997514486 1133
14.1399997510016 1102
14.1599997505546 1169
14.1799997501075 1160
14.1999997496605 1158
14.2199997492135 1161
14.2399997487664 1090
14.2599997483194 1137
14.2799997478724 1164
14.2999997474253 1142
14.3199997469783 1180
14.3399997465312 1269
14.3599997460842 1261
14.3799997456372 1266
14.3999997451901 1319
14.4199997447431 1315
14.4399997442961 1287
14.459999743849 1274
14.479999743402 1201
14.499999742955 1221
14.5199997425079 1161
14.5399997420609 1117
14.5599997416139 1169
14.5799997411668 1155
14.5999997407198 1209
14.6199997402728 1146
14.6399997398257 1144
14.6599997393787 1234
14.6799997389317 1200
14.6999997384846 1165
14.7199997380376 1217
14.7399997375906 1202
14.7599997371435 1177
14.7799997366965 1216
14.7999997362494 1192
14.8199997358024 1286
14.8399997353554 1241
14.8599997349083 1178
14.8799997344613 1248
14.8999997340143 1195
14.9199997335672 1234
14.9399997331202 1218
14.9599997326732 1300
14.9799997322261 1237
14.9999997317791 1219
15.0199997313321 1181
15.039999730885 1191
15.059999730438 1259
15.079999729991 1232
15.0999997295439 1256
15.1199997290969 1236
15.1399997286499 1254
15.1599997282028 1216
15.1799997277558 1204
15.1999997273088 1276
15.2199997268617 1272
15.2399997264147 1256
15.2599997259676 1219
15.2799997255206 1261
15.2999997250736 1266
15.3199997246265 1377
15.3399997241795 1227
15.3599997237325 1322
15.3799997232854 1280
15.3999997228384 1303
15.4199997223914 1326
15.4399997219443 1152
15.4599997214973 1329
15.4799997210503 1248
15.4999997206032 1295
15.5199997201562 1319
15.5399997197092 1314
15.5599997192621 1287
15.5799997188151 1225
15.5999997183681 1333
15.619999717921 1319
15.639999717474 1334
15.659999717027 1299
15.6799997165799 1293
15.6999997161329 1312
15.7199997156858 1344
15.7399997152388 1352
15.7599997147918 1394
15.7799997143447 1360
15.7999997138977 1353
15.8199997134507 1300
15.8399997130036 1320
15.8599997125566 1351
15.8799997121096 1314
15.8999997116625 1357
15.9199997112155 1365
15.9399997107685 1434
15.9599997103214 1384
15.9799997098744 1448
15.9999997094274 1398
16.0199997089803 1389
16.0399997085333 1407
16.0599997080863 1348
16.0799997076392 1371
16.0999997071922 1376
16.1199997067451 1400
16.1399997062981 1440
16.1599997058511 1376
16.179999705404 1373
16.199999704957 1445
16.21999970451 1462
16.2399997040629 1432
16.2599997036159 1487
16.2799997031689 1422
16.2999997027218 1369
16.3199997022748 1437
16.3399997018278 1423
16.3599997013807 1455
16.3799997009337 1416
16.3999997004867 1430
16.4199997000396 1452
16.4399996995926 1494
16.4599996991456 1439
16.4799996986985 1441
16.4999996982515 1386
16.5199996978045 1494
16.5399996973574 1484
16.5599996969104 1500
16.5799996964633 1438
16.5999996960163 1507
16.6199996955693 1532
16.6399996951222 1514
16.6599996946752 1434
16.6799996942282 1529
16.6999996937811 1532
16.7199996933341 1536
16.7399996928871 1564
16.75999969244 1499
16.779999691993 1516
16.799999691546 1565
16.8199996910989 1587
16.8399996906519 1535
16.8599996902049 1500
16.8799996897578 1563
16.8999996893108 1603
16.9199996888638 1545
16.9399996884167 1578
16.9599996879697 1622
16.9799996875226 1545
16.9999996870756 1634
17.0199996866286 1560
17.0399996861815 1606
17.0599996857345 1615
17.0799996852875 1671
17.0999996848404 1665
17.1199996843934 1666
17.1399996839464 1715
17.1599996834993 1767
17.1799996830523 1797
17.1999996826053 1740
17.2199996821582 1835
17.2399996817112 1731
17.2599996812642 1728
17.2799996808171 1722
17.2999996803701 1768
17.3199996799231 1685
17.339999679476 1625
17.359999679029 1646
17.379999678582 1676
17.3999996781349 1691
17.4199996776879 1662
17.4399996772408 1681
17.4599996767938 1642
17.4799996763468 1683
17.4999996758997 1674
17.5199996754527 1630
17.5399996750057 1665
17.5599996745586 1721
17.5799996741116 1756
17.5999996736646 1769
17.6199996732175 1692
17.6399996727705 1674
17.6599996723235 1714
17.6799996718764 1751
17.6999996714294 1786
17.7199996709824 1711
17.7399996705353 1730
17.7599996700883 1787
17.7799996696413 1762
17.7999996691942 1675
17.8199996687472 1857
17.8399996683002 1793
17.8599996678531 1811
17.8799996674061 1768
17.899999666959 1831
17.919999666512 1873
17.939999666065 1816
17.9599996656179 1804
17.9799996651709 1881
17.9999996647239 1866
18.0199996642768 1855
18.0399996638298 1836
18.0599996633828 1831
18.0799996629357 1815
18.0999996624887 1794
18.1199996620417 1900
18.1399996615946 1829
18.1599996611476 1899
18.1799996607006 1889
18.1999996602535 1831
18.2199996598065 1836
18.2399996593595 1841
18.2599996589124 1868
18.2799996584654 1934
18.2999996580184 1774
18.3199996575713 1955
18.3399996571243 1829
18.3599996566772 2016
18.3799996562302 1984
18.3999996557832 1835
18.4199996553361 1888
18.4399996548891 1918
18.4599996544421 1901
18.479999653995 1913
18.499999653548 1927
18.519999653101 2006
18.5399996526539 2031
18.5599996522069 1954
18.5799996517599 2014
18.5999996513128 1989
18.6199996508658 1969
18.6399996504188 1998
18.6599996499717 1992
18.6799996495247 1971
18.6999996490777 2002
18.7199996486306 2066
18.7399996481836 2013
18.7599996477366 2034
18.7799996472895 2038
18.7999996468425 2038
18.8199996463954 2038
18.8399996459484 1974
18.8599996455014 2079
18.8799996450543 2080
18.8999996446073 2057
18.9199996441603 2020
18.9399996437132 2095
18.9599996432662 2009
18.9799996428192 2052
18.9999996423721 2048
19.0199996419251 2118
19.0399996414781 2038
19.059999641031 2081
19.079999640584 2108
19.099999640137 2103
19.1199996396899 2064
19.1399996392429 2115
19.1599996387959 2054
19.1799996383488 2003
19.1999996379018 2081
19.2199996374547 2110
19.2399996370077 2117
19.2599996365607 2167
19.2799996361136 2166
19.2999996356666 2115
19.3199996352196 2105
19.3399996347725 2163
19.3599996343255 2270
19.3799996338785 2137
19.3999996334314 2238
19.4199996329844 2232
19.4399996325374 2195
19.4599996320903 2156
19.4799996316433 2200
19.4999996311963 2293
19.5199996307492 2296
19.5399996303022 2364
19.5599996298552 2522
19.5799996294081 2493
19.5999996289611 2615
19.6199996285141 2510
19.639999628067 2405
19.65999962762 2402
19.6799996271729 2337
19.6999996267259 2217
19.7199996262789 2298
19.7399996258318 2229
19.7599996253848 2251
19.7799996249378 2305
19.7999996244907 2338
19.8199996240437 2466
19.8399996235967 2657
19.8599996231496 2701
19.8799996227026 2791
19.8999996222556 2790
19.9199996218085 2601
19.9399996213615 2552
19.9599996209145 2321
19.9799996204674 2269
19.9999996200204 2217
20.0199996195734 2167
20.0399996191263 2212
20.0599996186793 2164
20.0799996182322 2244
20.0999996177852 2161
20.1199996173382 2245
20.1399996168911 2152
20.1599996164441 2211
20.1799996159971 2194
20.19999961555 2178
20.219999615103 2221
20.239999614656 2176
20.2599996142089 2175
20.2799996137619 2193
20.2999996133149 2195
20.3199996128678 2233
20.3399996124208 2205
20.3599996119738 2250
20.3799996115267 2121
20.3999996110797 2148
20.4199996106327 2161
20.4399996101856 2150
20.4599996097386 2314
20.4799996092916 2274
20.4999996088445 2205
20.5199996083975 2186
20.5399996079504 2258
20.5599996075034 2213
20.5799996070564 2169
20.5999996066093 2256
20.6199996061623 2210
20.6399996057153 2276
20.6599996052682 2198
20.6799996048212 2222
20.6999996043742 2179
20.7199996039271 2266
20.7399996034801 2227
20.7599996030331 2247
20.779999602586 2203
20.799999602139 2257
20.819999601692 2240
20.8399996012449 2301
20.8599996007979 2261
20.8799996003509 2238
20.8999995999038 2253
20.9199995994568 2204
20.9399995990098 2212
20.9599995985627 2303
20.9799995981157 2277
20.9999995976686 2244
21.0199995972216 2262
21.0399995967746 2269
21.0599995963275 2242
21.0799995958805 2223
21.0999995954335 2231
21.1199995949864 2320
21.1399995945394 2232
21.1599995940924 2243
21.1799995936453 2220
21.1999995931983 2151
21.2199995927513 2225
21.2399995923042 2350
21.2599995918572 2182
21.2799995914102 2214
21.2999995909631 2199
21.3199995905161 2142
21.3399995900691 2209
21.359999589622 2253
21.379999589175 2246
21.399999588728 2218
21.4199995882809 2258
21.4399995878339 2195
21.4599995873868 2225
21.4799995869398 2294
21.4999995864928 2200
21.5199995860457 2165
21.5399995855987 2282
21.5599995851517 2270
21.5799995847046 2216
21.5999995842576 2202
21.6199995838106 2247
21.6399995833635 2277
21.6599995829165 2287
21.6799995824695 2289
21.6999995820224 2328
21.7199995815754 2353
21.7399995811284 2355
21.7599995806813 2435
21.7799995802343 2398
21.7999995797873 2382
21.8199995793402 2217
21.8399995788932 2240
21.8599995784462 2181
21.8799995779991 2241
21.8999995775521 2183
21.919999577105 2211
21.939999576658 2153
21.959999576211 2277
21.9799995757639 2101
21.9999995753169 2175
22.0199995748699 2208
22.0399995744228 2194
22.0599995739758 2135
22.0799995735288 2220
22.0999995730817 2208
22.1199995726347 2163
22.1399995721877 2197
22.1599995717406 2219
22.1799995712936 2145
22.1999995708466 2223
22.2199995703995 2111
22.2399995699525 2248
22.2599995695055 2200
22.2799995690584 2160
22.2999995686114 2218
22.3199995681643 2174
22.3399995677173 2206
22.3599995672703 2175
22.3799995668232 2212
22.3999995663762 2240
22.4199995659292 2207
22.4399995654821 2131
22.4599995650351 2232
22.4799995645881 2129
22.499999564141 2080
22.519999563694 2076
22.539999563247 2060
22.5599995627999 2187
22.5799995623529 2086
22.5999995619059 2095
22.6199995614588 2172
22.6399995610118 2172
22.6599995605648 2064
22.6799995601177 2092
22.6999995596707 2173
22.7199995592237 2130
22.7399995587766 2040
22.7599995583296 2045
22.7799995578825 2156
22.7999995574355 2119
22.8199995569885 2125
22.8399995565414 2132
22.8599995560944 2027
22.8799995556474 2177
22.8999995552003 2031
22.9199995547533 2082
22.9399995543063 2136
22.9599995538592 2139
22.9799995534122 2184
22.9999995529652 2198
23.0199995525181 2069
23.0399995520711 2193
23.0599995516241 2128
23.079999551177 2115
23.09999955073 2104
23.119999550283 2116
23.1399995498359 2066
23.1599995493889 2097
23.1799995489418 1985
23.1999995484948 2006
23.2199995480478 2011
23.2399995476007 2041
23.2599995471537 2056
23.2799995467067 2050
23.2999995462596 1966
23.3199995458126 2077
23.3399995453656 2014
23.3599995449185 1984
23.3799995444715 2031
23.3999995440245 2020
23.4199995435774 1988
23.4399995431304 2007
23.4599995426834 2023
23.4799995422363 2025
23.4999995417893 2099
23.5199995413423 2067
23.5399995408952 2122
23.5599995404482 2132
23.5799995400012 2123
23.5999995395541 2163
23.6199995391071 2177
23.63999953866 2210
23.659999538213 2289
23.679999537766 2354
23.6999995373189 2537
23.7199995368719 2414
23.7399995364249 2184
23.7599995359778 2094
23.7799995355308 2169
23.7999995350838 2039
23.8199995346367 2067
23.8399995341897 1971
23.8599995337427 2021
23.8799995332956 2004
23.8999995328486 2128
23.9199995324016 2028
23.9399995319545 2041
23.9599995315075 1984
23.9799995310605 2007
23.9999995306134 1979
24.0199995301664 1893
24.0399995297194 1950
24.0599995292723 1932
24.0799995288253 1948
24.0999995283782 1916
24.1199995279312 1917
24.1399995274842 1913
24.1599995270371 1909
24.1799995265901 1933
24.1999995261431 1944
24.219999525696 1937
24.239999525249 1883
24.259999524802 1937
24.2799995243549 1832
24.2999995239079 1945
24.3199995234609 1882
24.3399995230138 1872
24.3599995225668 1902
24.3799995221198 1822
24.3999995216727 1892
24.4199995212257 1852
24.4399995207787 1896
24.4599995203316 1828
24.4799995198846 1907
24.4999995194376 1889
24.5199995189905 1871
24.5399995185435 1903
24.5599995180964 1901
24.5799995176494 1866
24.5999995172024 1906
24.6199995167553 1910
24.6399995163083 1867
24.6599995158613 1891
24.6799995154142 1824
24.6999995149672 1867
24.7199995145202 1874
24.7399995140731 1932
24.7599995136261 2007
24.7799995131791 2026
24.799999512732 2023
24.819999512285 2061
24.839999511838 2102
24.8599995113909 2159
24.8799995109439 2065
24.8999995104969 1925
24.9199995100498 1929
24.9399995096028 1915
24.9599995091558 1860
24.9799995087087 1834
24.9999995082617 1814
25.0199995078146 1825
25.0399995073676 1851
25.0599995069206 1778
25.0799995064735 1873
25.0999995060265 1890
25.1199995055795 1853
25.1399995051324 1772
25.1599995046854 1824
25.1799995042384 1885
25.1999995037913 1765
25.2199995033443 1809
25.2399995028973 1818
25.2599995024502 1776
25.2799995020032 1856
25.2999995015562 1841
25.3199995011091 1852
25.3399995006621 1801
25.3599995002151 1842
25.379999499768 1823
25.399999499321 1838
25.4199994988739 1939
25.4399994984269 1850
25.4599994979799 1923
25.4799994975328 2107
25.4999994970858 2161
25.5199994966388 2197
25.5399994961917 2130
25.5599994957447 2070
25.5799994952977 1975
25.5999994948506 1895
25.6199994944036 1911
25.6399994939566 1765
25.6599994935095 1815
25.6799994930625 1857
25.6999994926155 1791
25.7199994921684 1773
25.7399994917214 1723
25.7599994912744 1676
25.7799994908273 1713
25.7999994903803 1772
25.8199994899333 1751
25.8399994894862 1750
25.8599994890392 1727
25.8799994885921 1699
25.8999994881451 1762
25.9199994876981 1698
25.939999487251 1711
25.959999486804 1644
25.979999486357 1687
25.9999994859099 1739
26.0199994854629 1710
26.0399994850159 1653
26.0599994845688 1736
26.0799994841218 1631
26.0999994836748 1710
26.1199994832277 1727
26.1399994827807 1675
26.1599994823337 1634
26.1799994818866 1660
26.1999994814396 1691
26.2199994809926 1683
26.2399994805455 1703
26.2599994800985 1748
26.2799994796514 1624
26.2999994792044 1654
26.3199994787574 1703
26.3399994783103 1597
26.3599994778633 1650
26.3799994774163 1612
26.3999994769692 1691
26.4199994765222 1584
26.4399994760752 1670
26.4599994756281 1615
26.4799994751811 1700
26.4999994747341 1656
26.519999474287 1735
26.53999947384 1744
26.559999473393 1897
26.5799994729459 1806
26.5999994724989 1837
26.6199994720519 1911
26.6399994716048 1797
26.6599994711578 1699
26.6799994707108 1689
26.6999994702637 1642
26.7199994698167 1660
26.7399994693697 1648
26.7599994689226 1632
26.7799994684756 1587
26.7999994680285 1638
26.8199994675815 1612
26.8399994671345 1646
26.8599994666874 1629
26.8799994662404 1672
26.8999994657934 1549
26.9199994653463 1644
26.9399994648993 1661
26.9599994644523 1559
26.9799994640052 1701
26.9999994635582 1673
27.0199994631112 1562
27.0399994626641 1569
27.0599994622171 1605
27.0799994617701 1676
27.099999461323 1655
27.119999460876 1579
27.139999460429 1612
27.1599994599819 1598
27.1799994595349 1642
27.1999994590878 1633
27.2199994586408 1528
27.2399994581938 1622
27.2599994577467 1662
27.2799994572997 1604
27.2999994568527 1629
27.3199994564056 1634
27.3399994559586 1680
27.3599994555116 1721
27.3799994550645 1741
27.3999994546175 1832
27.4199994541705 1850
27.4399994537234 1851
27.4599994532764 1760
27.4799994528294 1713
27.4999994523823 1650
27.5199994519353 1631
27.5399994514883 1537
27.5599994510412 1550
27.5799994505942 1525
27.5999994501472 1544
27.6199994497001 1503
27.6399994492531 1482
27.659999448806 1419
27.679999448359 1523
27.699999447912 1484
27.7199994474649 1486
27.7399994470179 1559
27.7599994465709 1530
27.7799994461238 1508
27.7999994456768 1507
27.8199994452298 1520
27.8399994447827 1475
27.8599994443357 1516
27.8799994438887 1537
27.8999994434416 1498
27.9199994429946 1483
27.9399994425476 1417
27.9599994421005 1498
27.9799994416535 1471
27.9999994412065 1526
28.0199994407594 1547
28.0399994403124 1541
28.0599994398654 1488
28.0799994394183 1453
28.0999994389713 1478
28.1199994385242 1557
28.1399994380772 1569
28.1599994376302 1526
28.1799994371831 1548
28.1999994367361 1490
28.2199994362891 1580
28.239999435842 1601
28.259999435395 1568
28.279999434948 1504
28.2999994345009 1417
28.3199994340539 1464
28.3399994336069 1473
28.3599994331598 1470
28.3799994327128 1502
28.3999994322658 1513
28.4199994318187 1485
28.4399994313717 1463
28.4599994309247 1444
28.4799994304776 1490
28.4999994300306 1468
28.5199994295835 1429
28.5399994291365 1460
28.5599994286895 1472
28.5799994282424 1461
28.5999994277954 1405
28.6199994273484 1432
28.6399994269013 1400
28.6599994264543 1404
28.6799994260073 1411
28.6999994255602 1402
28.7199994251132 1489
28.7399994246662 1507
28.7599994242191 1528
28.7799994237721 1544
28.7999994233251 1567
28.819999422878 1650
28.839999422431 1636
28.859999421984 1622
28.8799994215369 1530
28.8999994210899 1457
28.9199994206429 1521
28.9399994201958 1473
28.9599994197488 1434
28.9799994193017 1539
28.9999994188547 1610
29.0199994184077 1627
29.0399994179606 1558
29.0599994175136 1530
29.0799994170666 1551
29.0999994166195 1444
29.1199994161725 1470
29.1399994157255 1345
29.1599994152784 1426
29.1799994148314 1363
29.1999994143844 1398
29.2199994139373 1361
29.2399994134903 1274
29.2599994130433 1361
29.2799994125962 1348
29.2999994121492 1388
29.3199994117022 1367
29.3399994112551 1407
29.3599994108081 1287
29.379999410361 1290
29.399999409914 1407
29.419999409467 1424
29.4399994090199 1401
29.4599994085729 1328
29.4799994081259 1300
29.4999994076788 1292
29.5199994072318 1297
29.5399994067848 1361
29.5599994063377 1327
29.5799994058907 1411
29.5999994054437 1353
29.6199994049966 1362
29.6399994045496 1360
29.6599994041026 1389
29.6799994036555 1377
29.6999994032085 1309
29.7199994027615 1276
29.7399994023144 1338
29.7599994018674 1355
29.7799994014204 1337
29.7999994009733 1245
29.8199994005263 1329
29.8399994000793 1326
29.8599993996322 1309
29.8799993991852 1311
29.8999993987381 1287
29.9199993982911 1290
29.9399993978441 1359
29.959999397397 1360
29.97999939695 1284
29.999999396503 1230
