3 2171
3.01999999955297 1972
3.03999999910593 1825
3.0599999986589 1723
3.07999999821186 1664
3.09999999776483 1565
3.11999999731779 1521
3.13999999687076 1446
3.15999999642372 1482
3.17999999597669 1479
3.19999999552965 1406
3.21999999508262 1445
3.23999999463558 1425
3.25999999418855 1408
3.27999999374151 1340
3.29999999329448 1342
3.31999999284744 1360
3.33999999240041 1292
3.35999999195337 1351
3.37999999150634 1193
3.3999999910593 1282
3.41999999061227 1292
3.43999999016523 1265
3.4599999897182 1245
3.47999998927116 1272
3.49999998882413 1258
3.51999998837709 1242
3.53999998793006 1200
3.55999998748302 1217
3.57999998703599 1182
3.59999998658895 1166
3.61999998614192 1167
3.63999998569489 1184
3.65999998524785 1181
3.67999998480082 1198
3.69999998435378 1231
3.71999998390675 1166
3.73999998345971 1147
3.75999998301268 1137
3.77999998256564 1164
3.79999998211861 1119
3.81999998167157 1119
3.83999998122454 1121
3.8599999807775 1086
3.87999998033047 1102
3.89999997988343 1093
3.9199999794364 1122
3.93999997898936 1077
3.95999997854233 1113
3.97999997809529 1090
3.99999997764826 1048
4.01999997720122 1109
4.03999997675419 1077
4.05999997630715 1066
4.07999997586012 1090
4.09999997541308 1033
4.11999997496605 973
4.13999997451901 1060
4.15999997407198 1057
4.17999997362494 1011
4.19999997317791 1032
4.21999997273087 1078
4.23999997228384 1014
4.25999997183681 1042
4.27999997138977 999
4.29999997094274 951
4.3199999704957 1015
4.33999997004867 1010
4.35999996960163 1001
4.3799999691546 1019
4.39999996870756 1003
4.41999996826053 961
4.43999996781349 959
4.45999996736646 954
4.47999996691942 993
4.49999996647239 994
4.51999996602535 980
4.53999996557832 954
4.55999996513128 933
4.57999996468425 956
4.59999996423721 1003
4.61999996379018 967
4.63999996334314 932
4.65999996289611 967
4.67999996244907 933
4.69999996200204 923
4.719999961555 961
4.73999996110797 983
4.75999996066093 958
4.7799999602139 977
4.79999995976686 943
4.81999995931983 929
4.83999995887279 928
4.85999995842576 925
4.87999995797873 950
4.89999995753169 937
4.91999995708466 947
4.93999995663762 932
4.95999995619059 996
4.97999995574355 928
4.99999995529652 931
5.01999995484948 961
5.03999995440245 909
5.05999995395541 995
5.07999995350838 1029
5.09999995306134 1007
5.11999995261431 962
5.13999995216727 972
5.15999995172024 975
5.1799999512732 904
5.19999995082617 983
5.21999995037913 989
5.2399999499321 978
5.25999994948506 1000
5.27999994903803 999
5.29999994859099 970
5.31999994814396 1002
5.33999994769692 1004
5.35999994724989 962
5.37999994680285 1054
5.39999994635582 1050
5.41999994590878 986
5.43999994546175 980
5.45999994501471 1112
5.47999994456768 1017
5.49999994412065 1001
5.51999994367361 1051
5.53999994322658 1083
5.55999994277954 1099
5.57999994233251 1044
5.59999994188547 1097
5.61999994143844 1056
5.6399999409914 1150
5.65999994054437 1106
5.67999994009733 1204
5.6999999396503 1215
5.71999993920326 1197
5.73999993875623 1434
5.75999993830919 1573
5.77999993786216 1563
5.79999993741512 1477
5.81999993696809 1242
5.83999993652105 1100
5.85999993607402 981
5.87999993562698 1020
5.89999993517995 1058
5.91999993473291 1009
5.93999993428588 1011
5.95999993383884 1003
5.97999993339181 1063
5.99999993294477 1115
6.01999993249774 1039
6.0399999320507 1001
6.05999993160367 1034
6.07999993115663 976
6.0999999307096 961
6.11999993026257 1022
6.13999992981553 986
6.1599999293685 978
6.17999992892146 1014
6.19999992847443 991
6.21999992802739 965
6.23999992758036 973
6.25999992713332 1021
6.27999992668629 1064
6.29999992623925 1014
6.31999992579222 1067
6.33999992534518 1028
6.35999992489815 1045
6.37999992445111 1034
6.39999992400408 1107
6.41999992355704 1070
6.43999992311001 1153
6.45999992266297 1149
6.47999992221594 1119
6.4999999217689 1100
6.51999992132187 1102
6.53999992087483 1095
6.5599999204278 1180
6.57999991998076 1179
6.59999991953373 1242
6.61999991908669 1296
6.63999991863966 1366
6.65999991819262 1345
6.67999991774559 1309
6.69999991729855 1232
6.71999991685152 1173
6.73999991640449 1048
6.75999991595745 1093
6.77999991551042 1043
6.79999991506338 1070
6.81999991461635 968
6.83999991416931 1001
6.85999991372228 1023
6.87999991327524 1051
6.89999991282821 1023
6.91999991238117 1110
6.93999991193414 1023
6.9599999114871 1052
6.97999991104007 1087
6.99999991059303 1049
7.019999910146 1161
7.03999990969896 1040
7.05999990925193 1029
7.07999990880489 1041
7.09999990835786 1056
7.11999990791082 1069
7.13999990746379 1088
7.15999990701675 1012
7.17999990656972 1004
7.19999990612268 1060
7.21999990567565 1079
7.23999990522861 1088
7.25999990478158 1066
7.27999990433454 1026
7.29999990388751 1037
7.31999990344047 1072
7.33999990299344 1032
7.35999990254641 1037
7.37999990209937 1016
7.39999990165234 1107
7.4199999012053 1041
7.43999990075827 1080
7.45999990031123 1105
7.4799998998642 1108
7.49999989941716 1109
7.51999989897013 1066
7.53999989852309 1045
7.55999989807606 1020
7.57999989762902 1064
7.59999989718199 1081
7.61999989673495 1091
7.63999989628792 1126
7.65999989584088 1082
7.67999989539385 1044
7.69999989494681 1065
7.71999989449978 1060
7.73999989405274 1071
7.75999989360571 1028
7.77999989315867 1029
7.79999989271164 1054
7.8199998922646 1058
7.83999989181757 1129
7.85999989137053 1063
7.8799998909235 1032
7.89999989047646 1084
7.91999989002943 1095
7.9399998895824 1057
7.95999988913536 1067
7.97999988868833 1084
7.99999988824129 1076
8.01999988779426 1110
8.03999988734722 1071
8.05999988690019 1146
8.07999988645315 1071
8.09999988600612 1060
8.11999988555908 1129
8.13999988511205 1123
8.15999988466501 1022
8.17999988421798 1074
8.19999988377094 1073
8.21999988332391 1127
8.23999988287687 1130
8.25999988242984 1056
8.2799998819828 1130
8.29999988153577 1060
8.31999988108873 1143
8.3399998806417 1095
8.35999988019466 1129
8.37999987974763 1111
8.39999987930059 1097
8.41999987885356 1079
8.43999987840652 1070
8.45999987795949 1074
8.47999987751245 1125
8.49999987706542 1146
8.51999987661839 1105
8.53999987617135 1131
8.55999987572432 1125
8.57999987527728 1104
8.59999987483025 1088
8.61999987438321 1080
8.63999987393618 1073
8.65999987348914 1154
8.67999987304211 1114
8.69999987259507 1165
8.71999987214804 1071
8.739999871701 1110
8.75999987125397 1145
8.77999987080693 1129
8.7999998703599 1165
8.81999986991286 1139
8.83999986946583 1124
8.85999986901879 1135
8.87999986857176 1166
8.89999986812472 1140
8.91999986767769 1119
8.93999986723065 1129
8.95999986678362 1168
8.97999986633658 1161
8.99999986588955 1114
9.01999986544251 1167
9.03999986499548 1127
9.05999986454844 1162
9.07999986410141 1185
9.09999986365438 1178
9.11999986320734 1224
9.13999986276031 1194
9.15999986231327 1220
9.17999986186624 1172
9.1999998614192 1202
9.21999986097217 1226
9.23999986052513 1297
9.2599998600781 1269
9.27999985963106 1296
9.29999985918403 1286
9.31999985873699 1345
9.33999985828996 1414
9.35999985784292 1608
9.37999985739589 1595
9.39999985694885 1574
9.41999985650182 1381
9.43999985605478 1280
9.45999985560775 1208
9.47999985516071 1213
9.49999985471368 1133
9.51999985426664 1129
9.53999985381961 1138
9.55999985337257 1170
9.57999985292554 1119
9.5999998524785 1151
9.61999985203147 1199
9.63999985158443 1166
9.6599998511374 1152
9.67999985069037 1211
9.69999985024333 1133
9.7199998497963 1196
9.73999984934926 1172
9.75999984890223 1167
9.77999984845519 1181
9.79999984800816 1138
9.81999984756112 1217
9.83999984711409 1230
9.85999984666705 1232
9.87999984622002 1177
9.89999984577298 1153
9.91999984532595 1218
9.93999984487891 1180
9.95999984443188 1132
9.97999984398484 1154
9.99999984353781 1174
10.0199998430908 1192
10.0399998426437 1137
10.0599998421967 1201
10.0799998417497 1144
10.0999998413026 1114
10.1199998408556 1145
10.1399998404086 1197
10.1599998399615 1132
10.1799998395145 1142
10.1999998390675 1269
10.2199998386204 1198
10.2399998381734 1137
10.2599998377264 1244
10.2799998372793 1187
10.2999998368323 1195
10.3199998363853 1193
10.3399998359382 1226
10.3599998354912 1240
10.3799998350441 1233
10.3999998345971 1203
10.4199998341501 1222
10.439999833703 1205
10.459999833256 1222
10.479999832809 1200
10.4999998323619 1227
10.5199998319149 1159
10.5399998314679 1244
10.5599998310208 1251
10.5799998305738 1225
10.5999998301268 1205
10.6199998296797 1224
10.6399998292327 1190
10.6599998287857 1190
10.6799998283386 1224
10.6999998278916 1315
10.7199998274446 1202
10.7399998269975 1264
10.7599998265505 1305
10.7799998261034 1232
10.7999998256564 1295
10.8199998252094 1333
10.8399998247623 1384
10.8599998243153 1395
10.8799998238683 1345
10.8999998234212 1430
10.9199998229742 1502
10.9399998225272 1545
10.9599998220801 1675
10.9799998216331 1785
10.9999998211861 1716
11.019999820739 1648
11.039999820292 1431
11.059999819845 1303
11.0799998193979 1308
11.0999998189509 1235
11.1199998185039 1203
11.1399998180568 1252
11.1599998176098 1282
11.1799998171628 1248
11.1999998167157 1301
11.2199998162687 1252
11.2399998158216 1257
11.2599998153746 1298
11.2799998149276 1262
11.2999998144805 1272
11.3199998140335 1341
11.3399998135865 1344
11.3599998131394 1315
11.3799998126924 1409
11.3999998122454 1376
11.4199998117983 1462
11.4399998113513 1533
11.4599998109043 1649
11.4799998104572 1672
11.4999998100102 1572
11.5199998095632 1485
11.5399998091161 1345
11.5599998086691 1282
11.5799998082221 1366
11.599999807775 1185
11.619999807328 1246
11.639999806881 1290
11.6599998064339 1224
11.6799998059869 1236
11.6999998055398 1333
11.7199998050928 1352
11.7399998046458 1231
11.7599998041987 1280
11.7799998037517 1330
11.7999998033047 1250
11.8199998028576 1233
11.8399998024106 1262
11.8599998019636 1382
11.8799998015165 1247
11.8999998010695 1296
11.9199998006225 1327
11.9399998001754 1270
11.9599997997284 1243
11.9799997992814 1350
11.9999997988343 1344
12.0199997983873 1297
12.0399997979403 1353
12.0599997974932 1346
12.0799997970462 1333
12.0999997965992 1368
12.1199997961521 1358
12.1399997957051 1342
12.159999795258 1300
12.179999794811 1306
12.199999794364 1324
12.2199997939169 1350
12.2399997934699 1325
12.2599997930229 1339
12.2799997925758 1377
12.2999997921288 1306
12.3199997916818 1277
12.3399997912347 1337
12.3599997907877 1302
12.3799997903407 1332
12.3999997898936 1369
12.4199997894466 1324
12.4399997889996 1296
12.4599997885525 1351
12.4799997881055 1385
12.4999997876585 1391
12.5199997872114 1423
12.5399997867644 1360
12.5599997863173 1415
12.5799997858703 1430
12.5999997854233 1322
12.6199997849762 1311
12.6399997845292 1409
12.6599997840822 1445
12.6799997836351 1435
12.6999997831881 1385
12.7199997827411 1433
12.739999782294 1408
12.759999781847 1355
12.7799997814 1380
12.7999997809529 1406
12.8199997805059 1370
12.8399997800589 1447
12.8599997796118 1379
12.8799997791648 1349
12.8999997787178 1429
12.9199997782707 1471
12.9399997778237 1404
12.9599997773767 1421
12.9799997769296 1417
12.9999997764826 1449
13.0199997760355 1432
13.0399997755885 1399
13.0599997751415 1541
13.0799997746944 1450
13.0999997742474 1443
13.1199997738004 1481
13.1399997733533 1459
13.1599997729063 1517
13.1799997724593 1495
13.1999997720122 1576
13.2199997715652 1591
13.2399997711182 1572
13.2599997706711 1627
13.2799997702241 1562
13.2999997697771 1578
13.31999976933 1440
13.339999768883 1396
13.359999768436 1515
13.3799997679889 1492
13.3999997675419 1529
13.4199997670949 1506
13.4399997666478 1517
13.4599997662008 1570
13.4799997657537 1554
13.4999997653067 1447
13.5199997648597 1512
13.5399997644126 1539
13.5599997639656 1547
13.5799997635186 1511
13.5999997630715 1548
13.6199997626245 1533
13.6399997621775 1544
13.6599997617304 1532
13.6799997612834 1527
13.6999997608364 1584
13.7199997603893 1562
13.7399997599423 1527
13.7599997594953 1533
13.7799997590482 1483
13.7999997586012 1524
13.8199997581542 1576
13.8399997577071 1562
13.8599997572601 1575
13.879999756813 1528
13.899999756366 1546
13.919999755919 1593
13.9399997554719 1592
13.9599997550249 1550
13.9799997545779 1557
13.9999997541308 1571
14.0199997536838 1531
14.0399997532368 1612
14.0599997527897 1636
14.0799997523427 1624
14.0999997518957 1615
14.1199997514486 1686
14.1399997510016 1586
14.1599997505546 1654
14.1799997501075 1684
14.1999997496605 1677
14.2199997492135 1677
14.2399997487664 1684
14.2599997483194 1649
14.2799997478724 1728
14.2999997474253 1727
14.3199997469783 1712
14.3399997465312 1689
14.3599997460842 1718
14.3799997456372 1739
14.3999997451901 1749
14.4199997447431 1777
14.4399997442961 1832
14.459999743849 1799
14.479999743402 1837
14.499999742955 1708
14.5199997425079 1660
14.5399997420609 1729
14.5599997416139 1714
14.5799997411668 1661
14.5999997407198 1768
14.6199997402728 1689
14.6399997398257 1705
14.6599997393787 1672
14.6799997389317 1733
14.6999997384846 1669
14.7199997380376 1699
14.7399997375906 1714
14.7599997371435 1735
14.7799997366965 1771
14.7999997362494 1761
14.8199997358024 1777
14.8399997353554 1780
14.8599997349083 1796
14.8799997344613 1794
14.8999997340143 1810
14.9199997335672 1776
14.9399997331202 1816
14.9599997326732 1819
14.9799997322261 1805
14.9999997317791 1798
15.0199997313321 1892
15.039999730885 1845
15.059999730438 1870
15.079999729991 1839
15.0999997295439 1845
15.1199997290969 1832
15.1399997286499 1812
15.1599997282028 1875
15.1799997277558 1854
15.1999997273088 1864
15.2199997268617 1837
15.2399997264147 1834
15.2599997259676 1882
15.2799997255206 1854
15.2999997250736 1854
15.3199997246265 1916
15.3399997241795 1920
15.3599997237325 1876
15.3799997232854 1936
15.3999997228384 1945
15.4199997223914 1960
15.4399997219443 1908
15.4599997214973 1899
15.4799997210503 1926
15.4999997206032 1966
15.5199997201562 1928
15.5399997197092 1965
15.5599997192621 1955
15.5799997188151 1962
15.5999997183681 2027
15.619999717921 1994
15.639999717474 1915
15.659999717027 1905
15.6799997165799 2025
15.6999997161329 2028
15.7199997156858 2024
15.7399997152388 2027
15.7599997147918 1918
15.7799997143447 1947
15.7999997138977 1923
15.8199997134507 2021
15.8399997130036 2076
15.8599997125566 2016
15.8799997121096 1945
15.8999997116625 2063
15.9199997112155 2105
15.9399997107685 2089
15.9599997103214 2117
15.9799997098744 2118
15.9999997094274 2122
16.0199997089803 2112
16.0399997085333 2151
16.0599997080863 2047
16.0799997076392 2062
16.0999997071922 2110
16.1199997067451 2079
16.1399997062981 2174
16.1599997058511 2127
16.179999705404 2096
16.199999704957 2099
16.21999970451 2219
16.2399997040629 2200
16.2599997036159 2166
16.2799997031689 2222
16.2999997027218 2132
16.3199997022748 2128
16.3399997018278 2221
16.3599997013807 2250
16.3799997009337 2273
16.3999997004867 2235
16.4199997000396 2296
16.4399996995926 2198
16.4599996991456 2211
16.4799996986985 2240
16.4999996982515 2219
16.5199996978045 2222
16.5399996973574 2249
16.5599996969104 2245
16.5799996964633 2342
16.5999996960163 2250
16.6199996955693 2368
16.6399996951222 2230
16.6599996946752 2361
16.6799996942282 2342
16.6999996937811 2377
16.7199996933341 2369
16.7399996928871 2326
16.75999969244 2376
16.779999691993 2347
16.799999691546 2305
16.8199996910989 2366
16.8399996906519 2315
16.8599996902049 2368
16.8799996897578 2365
16.8999996893108 2383
16.9199996888638 2406
16.9399996884167 2402
16.9599996879697 2401
16.9799996875226 2549
16.9999996870756 2401
17.0199996866286 2400
17.0399996861815 2447
17.0599996857345 2429
17.0799996852875 2485
17.0999996848404 2391
17.1199996843934 2515
17.1399996839464 2446
17.1599996834993 2564
17.1799996830523 2543
17.1999996826053 2628
17.2199996821582 2594
17.2399996817112 2662
17.2599996812642 2674
17.2799996808171 2598
17.2999996803701 2631
17.3199996799231 2528
17.339999679476 2484
17.359999679029 2525
17.379999678582 2664
17.3999996781349 2580
17.4199996776879 2640
17.4399996772408 2509
17.4599996767938 2588
17.4799996763468 2659
17.4999996758997 2650
17.5199996754527 2583
17.5399996750057 2550
17.5599996745586 2630
17.5799996741116 2627
17.5999996736646 2675
17.6199996732175 2669
17.6399996727705 2670
17.6599996723235 2617
17.6799996718764 2690
17.6999996714294 2629
17.7199996709824 2700
17.7399996705353 2601
17.7599996700883 2662
17.7799996696413 2728
17.7999996691942 2760
17.8199996687472 2756
17.8399996683002 2811
17.8599996678531 2747
17.8799996674061 2742
17.899999666959 2719
17.919999666512 2642
17.939999666065 2772
17.9599996656179 2853
17.9799996651709 2859
17.9999996647239 2819
18.0199996642768 2840
18.0399996638298 2815
18.0599996633828 2955
18.0799996629357 2914
18.0999996624887 2927
18.1199996620417 2943
18.1399996615946 2838
18.1599996611476 2921
18.1799996607006 2899
18.1999996602535 2829
18.2199996598065 2857
18.2399996593595 2976
18.2599996589124 3052
18.2799996584654 2933
18.2999996580184 2972
18.3199996575713 2927
18.3399996571243 2929
18.3599996566772 2988
18.3799996562302 3043
18.3999996557832 3041
18.4199996553361 2981
18.4399996548891 3064
18.4599996544421 2990
18.479999653995 3040
18.499999653548 2985
18.519999653101 2965
18.5399996526539 3040
18.5599996522069 2929
18.5799996517599 3036
18.5999996513128 3077
18.6199996508658 3021
18.6399996504188 3041
18.6599996499717 3067
18.6799996495247 3066
18.6999996490777 3194
18.7199996486306 3204
18.7399996481836 3155
18.7599996477366 3127
18.7799996472895 3004
18.7999996468425 3066
18.8199996463954 3168
18.8399996459484 3079
18.8599996455014 3145
18.8799996450543 3111
18.8999996446073 3229
18.9199996441603 3209
18.9399996437132 3218
18.9599996432662 3215
18.9799996428192 3289
18.9999996423721 3105
19.0199996419251 3150
19.0399996414781 3189
19.059999641031 3225
19.079999640584 3311
19.099999640137 3274
19.1199996396899 3227
19.1399996392429 3184
19.1599996387959 3308
19.1799996383488 3335
19.1999996379018 3308
19.2199996374547 3283
19.2399996370077 3313
19.2599996365607 3353
19.2799996361136 3298
19.2999996356666 3258
19.3199996352196 3393
19.3399996347725 3328
19.3599996343255 3333
19.3799996338785 3365
19.3999996334314 3323
19.4199996329844 3392
19.4399996325374 3375
19.4599996320903 3370
19.4799996316433 3476
19.4999996311963 3465
19.5199996307492 3461
19.5399996303022 3410
19.5599996298552 3512
19.5799996294081 3609
19.5999996289611 3660
19.6199996285141 3875
19.639999628067 3710
19.65999962762 3661
19.6799996271729 3517
19.6999996267259 3574
19.7199996262789 3522
19.7399996258318 3481
19.7599996253848 3503
19.7799996249378 3475
19.7999996244907 3569
19.8199996240437 3805
19.8399996235967 3733
19.8599996231496 3807
19.8799996227026 3924
19.8999996222556 4040
19.9199996218085 3923
19.9399996213615 3852
19.9599996209145 3669
19.9799996204674 3537
19.9999996200204 3489
20.0199996195734 3471
20.0399996191263 3478
20.0599996186793 3353
20.0799996182322 3492
20.0999996177852 3511
20.1199996173382 3490
20.1399996168911 3550
20.1599996164441 3498
20.1799996159971 3548
20.19999961555 3406
20.219999615103 3585
20.239999614656 3466
20.2599996142089 3548
20.2799996137619 3437
20.2999996133149 3457
20.3199996128678 3583
20.3399996124208 3552
20.3599996119738 3385
20.3799996115267 3571
20.3999996110797 3523
20.4199996106327 3556
20.4399996101856 3501
20.4599996097386 3573
20.4799996092916 3463
20.4999996088445 3578
20.5199996083975 3499
20.5399996079504 3487
20.5599996075034 3564
20.5799996070564 3606
20.5999996066093 3523
20.6199996061623 3449
20.6399996057153 3514
20.6599996052682 3525
20.6799996048212 3596
20.6999996043742 3552
20.7199996039271 3503
20.7399996034801 3491
20.7599996030331 3480
20.779999602586 3569
20.799999602139 3609
20.819999601692 3559
20.8399996012449 3552
20.8599996007979 3644
20.8799996003509 3653
20.8999995999038 3522
20.9199995994568 3566
20.9399995990098 3497
20.9599995985627 3642
20.9799995981157 3495
20.9999995976686 3464
21.0199995972216 3522
21.0399995967746 3500
21.0599995963275 3612
21.0799995958805 3463
21.0999995954335 3521
21.1199995949864 3508
21.1399995945394 3533
21.1599995940924 3573
21.1799995936453 3459
21.1999995931983 3483
21.2199995927513 3461
21.2399995923042 3575
21.2599995918572 3481
21.2799995914102 3559
21.2999995909631 3507
21.3199995905161 3454
21.3399995900691 3446
21.359999589622 3561
21.379999589175 3472
21.399999588728 3387
21.4199995882809 3450
21.4399995878339 3375
21.4599995873868 3481
21.4799995869398 3485
21.4999995864928 3403
21.5199995860457 3404
21.5399995855987 3546
21.5599995851517 3480
21.5799995847046 3434
21.5999995842576 3489
21.6199995838106 3460
21.6399995833635 3516
21.6599995829165 3535
21.6799995824695 3466
21.6999995820224 3568
21.7199995815754 3565
21.7399995811284 3819
21.7599995806813 3605
21.7799995802343 3676
21.7999995797873 3525
21.8199995793402 3552
21.8399995788932 3468
21.8599995784462 3424
21.8799995779991 3376
21.8999995775521 3375
21.919999577105 3431
21.939999576658 3432
21.959999576211 3467
21.9799995757639 3376
21.9999995753169 3423
22.0199995748699 3357
22.0399995744228 3432
22.0599995739758 3286
22.0799995735288 3401
22.0999995730817 3330
22.1199995726347 3294
22.1399995721877 3294
22.1599995717406 3324
22.1799995712936 3373
22.1999995708466 3300
22.2199995703995 3263
22.2399995699525 3319
22.2599995695055 3304
22.2799995690584 3211
22.2999995686114 3243
22.3199995681643 3216
22.3399995677173 3266
22.3599995672703 3282
22.3799995668232 3257
22.3999995663762 3316
22.4199995659292 3341
22.4399995654821 3204
22.4599995650351 3387
22.4799995645881 3299
22.499999564141 3251
22.519999563694 3319
22.539999563247 3212
22.5599995627999 3308
22.5799995623529 3212
22.5999995619059 3273
22.6199995614588 3242
22.6399995610118 3250
22.6599995605648 3251
22.6799995601177 3298
22.6999995596707 3135
22.7199995592237 3089
22.7399995587766 3164
22.7599995583296 3192
22.7799995578825 3152
22.7999995574355 3210
22.8199995569885 3230
22.8399995565414 3186
22.8599995560944 3132
22.8799995556474 3204
22.8999995552003 3162
22.9199995547533 3268
22.9399995543063 3224
22.9599995538592 3282
22.9799995534122 3300
22.9999995529652 3214
23.0199995525181 3333
23.0399995520711 3227
23.0599995516241 3223
23.079999551177 3206
23.09999955073 3078
23.119999550283 3128
23.1399995498359 3161
23.1599995493889 3185
23.1799995489418 3143
23.1999995484948 3203
23.2199995480478 3120
23.2399995476007 3014
23.2599995471537 3140
23.2799995467067 3109
23.2999995462596 2997
23.3199995458126 2994
23.3399995453656 3043
23.3599995449185 3052
23.3799995444715 3004
23.3999995440245 3074
23.4199995435774 3040
23.4399995431304 3080
23.4599995426834 3066
23.4799995422363 2978
23.4999995417893 3090
23.5199995413423 3014
23.5399995408952 3022
23.5599995404482 3101
23.5799995400012 2920
23.5999995395541 2940
23.6199995391071 3060
23.63999953866 3117
23.659999538213 3125
23.679999537766 3258
23.6999995373189 3387
23.7199995368719 3504
23.7399995364249 3378
23.7599995359778 3197
23.7799995355308 3066
23.7999995350838 3050
23.8199995346367 2969
23.8399995341897 2982
23.8599995337427 2871
23.8799995332956 2940
23.8999995328486 2895
23.9199995324016 3046
23.9399995319545 3001
23.9599995315075 2905
23.9799995310605 2948
23.9999995306134 2940
24.0199995301664 2898
24.0399995297194 2860
24.0599995292723 2850
24.0799995288253 2869
24.0999995283782 2842
24.1199995279312 2781
24.1399995274842 2828
24.1599995270371 2805
24.1799995265901 2868
24.1999995261431 2653
24.219999525696 2879
24.239999525249 2788
24.259999524802 2721
24.2799995243549 2805
24.2999995239079 2761
24.3199995234609 2725
24.3399995230138 2723
24.3599995225668 2818
24.3799995221198 2810
24.3999995216727 2812
24.4199995212257 2750
24.4399995207787 2741
24.4599995203316 2771
24.4799995198846 2726
24.4999995194376 2808
24.5199995189905 2732
24.5399995185435 2786
24.5599995180964 2683
24.5799995176494 2606
24.5999995172024 2691
24.6199995167553 2652
24.6399995163083 2694
24.6599995158613 2717
24.6799995154142 2665
24.6999995149672 2680
24.7199995145202 2690
24.7399995140731 2661
24.7599995136261 2677
24.7799995131791 2805
24.799999512732 2723
24.819999512285 2805
24.839999511838 2930
24.8599995113909 3035
24.8799995109439 2880
24.8999995104969 2810
24.9199995100498 2867
24.9399995096028 2782
24.9599995091558 2639
24.9799995087087 2478
24.9999995082617 2608
25.0199995078146 2639
25.0399995073676 2580
25.0599995069206 2653
25.0799995064735 2602
25.0999995060265 2574
25.1199995055795 2480
25.1399995051324 2603
25.1599995046854 2538
25.1799995042384 2630
25.1999995037913 2468
25.2199995033443 2688
25.2399995028973 2548
25.2599995024502 2581
25.2799995020032 2496
25.2999995015562 2497
25.3199995011091 2565
25.3399995006621 2570
25.3599995002151 2566
25.379999499768 2527
25.399999499321 2541
25.4199994988739 2608
25.4399994984269 2612
25.4599994979799 2680
25.4799994975328 2676
25.4999994970858 2847
25.5199994966388 3143
25.5399994961917 3050
25.5599994957447 2879
25.5799994952977 2809
25.5999994948506 2736
25.6199994944036 2599
25.6399994939566 2421
25.6599994935095 2471
25.6799994930625 2399
25.6999994926155 2421
25.7199994921684 2455
25.7399994917214 2369
25.7599994912744 2347
25.7799994908273 2436
25.7999994903803 2373
25.8199994899333 2303
25.8399994894862 2330
25.8599994890392 2335
25.8799994885921 2360
25.8999994881451 2364
25.9199994876981 2301
25.939999487251 2250
25.959999486804 2252
25.979999486357 2279
25.9999994859099 2299
26.0199994854629 2352
26.0399994850159 2241
26.0599994845688 2313
26.0799994841218 2331
26.0999994836748 2259
26.1199994832277 2274
26.1399994827807 2208
26.1599994823337 2242
26.1799994818866 2343
26.1999994814396 2280
26.2199994809926 2322
26.2399994805455 2300
26.2599994800985 2216
26.2799994796514 2260
26.2999994792044 2317
26.3199994787574 2296
26.3399994783103 2189
26.3599994778633 2259
26.3799994774163 2305
26.3999994769692 2250
26.4199994765222 2246
26.4399994760752 2304
26.4599994756281 2205
26.4799994751811 2224
26.4999994747341 2306
26.519999474287 2289
26.53999947384 2326
26.559999473393 2372
26.5799994729459 2413
26.5999994724989 2541
26.6199994720519 2526
26.6399994716048 2294
26.6599994711578 2382
26.6799994707108 2333
26.6999994702637 2235
26.7199994698167 2224
26.7399994693697 2276
26.7599994689226 2077
26.7799994684756 2181
26.7999994680285 2249
26.8199994675815 2240
26.8399994671345 2219
26.8599994666874 2221
26.8799994662404 2175
26.8999994657934 2103
26.9199994653463 2137
26.9399994648993 2174
26.9599994644523 2126
26.9799994640052 2168
26.9999994635582 2109
27.0199994631112 2142
27.0399994626641 2105
27.0599994622171 2071
27.0799994617701 2109
27.099999461323 2126
27.119999460876 2061
27.139999460429 2022
27.1599994599819 2098
27.1799994595349 2129
27.1999994590878 2080
27.2199994586408 2104
27.2399994581938 2049
27.2599994577467 2020
27.2799994572997 2107
27.2999994568527 2156
27.3199994564056 2070
27.3399994559586 2071
27.3599994555116 2235
27.3799994550645 2242
27.3999994546175 2271
27.4199994541705 2404
27.4399994537234 2374
27.4599994532764 2363
27.4799994528294 2306
27.4999994523823 2196
27.5199994519353 2171
27.5399994514883 2087
27.5599994510412 2065
27.5799994505942 1945
27.5999994501472 1986
27.6199994497001 2006
27.6399994492531 2024
27.659999448806 1945
27.679999448359 1992
27.699999447912 1956
27.7199994474649 1902
27.7399994470179 1971
27.7599994465709 2001
27.7799994461238 1930
27.7999994456768 1958
27.8199994452298 1952
27.8399994447827 2007
27.8599994443357 1923
27.8799994438887 1949
27.8999994434416 1912
27.9199994429946 1964
27.9399994425476 1928
27.9599994421005 1898
27.9799994416535 1967
27.9999994412065 1884
28.0199994407594 1943
28.0399994403124 1940
28.0599994398654 2037
28.0799994394183 1900
28.0999994389713 1841
28.1199994385242 1977
28.1399994380772 1950
28.1599994376302 1908
28.1799994371831 1949
28.1999994367361 2007
28.2199994362891 1919
28.239999435842 2038
28.259999435395 1978
28.279999434948 2023
28.2999994345009 2045
28.3199994340539 2032
28.3399994336069 1863
28.3599994331598 1883
28.3799994327128 1882
28.3999994322658 1842
28.4199994318187 1829
28.4399994313717 1859
28.4599994309247 1811
28.4799994304776 1866
28.4999994300306 1863
28.5199994295835 1820
28.5399994291365 1878
28.5599994286895 1834
28.5799994282424 1884
28.5999994277954 1785
28.6199994273484 1804
28.6399994269013 1824
28.6599994264543 1797
28.6799994260073 1818
28.6999994255602 1853
28.7199994251132 1933
28.7399994246662 1884
28.7599994242191 1875
28.7799994237721 1981
28.7999994233251 2047
28.819999422878 2252
28.839999422431 2219
28.859999421984 2195
28.8799994215369 2073
28.8999994210899 2010
28.9199994206429 2056
28.9399994201958 1967
28.9599994197488 1802
28.9799994193017 1879
28.9999994188547 2024
29.0199994184077 2143
29.0399994179606 2077
29.0599994175136 2014
29.0799994170666 1975
29.0999994166195 1922
29.1199994161725 1868
29.1399994157255 1875
29.1599994152784 1724
29.1799994148314 1808
29.1999994143844 1795
29.2199994139373 1717
29.2399994134903 1743
29.2599994130433 1752
29.2799994125962 1707
29.2999994121492 1721
29.3199994117022 1799
29.3399994112551 1772
29.3599994108081 1772
29.379999410361 1724
29.399999409914 1665
29.419999409467 1752
29.4399994090199 1714
29.4599994085729 1662
29.4799994081259 1643
29.4999994076788 1715
29.5199994072318 1746
29.5399994067848 1665
29.5599994063377 1691
29.5799994058907 1762
29.5999994054437 1660
29.6199994049966 1720
29.6399994045496 1763
29.6599994041026 1702
29.6799994036555 1703
29.6999994032085 1714
29.7199994027615 1679
29.7399994023144 1724
29.7599994018674 1627
29.7799994014204 1660
29.7999994009733 1648
29.8199994005263 1639
29.8399994000793 1700
29.8599993996322 1662
29.8799993991852 1644
29.8999993987381 1676
29.9199993982911 1660
29.9399993978441 1690
29.959999397397 1641
29.97999939695 1663
29.999999396503 1587
