3 1923
3.01999999955297 1767
3.03999999910593 1626
3.0599999986589 1552
3.07999999821186 1518
3.09999999776483 1400
3.11999999731779 1395
3.13999999687076 1351
3.15999999642372 1353
3.17999999597669 1351
3.19999999552965 1372
3.21999999508262 1345
3.23999999463558 1344
3.25999999418855 1319
3.27999999374151 1306
3.29999999329448 1369
3.31999999284744 1327
3.33999999240041 1293
3.35999999195337 1271
3.37999999150634 1271
3.3999999910593 1194
3.41999999061227 1237
3.43999999016523 1239
3.4599999897182 1202
3.47999998927116 1299
3.49999998882413 1230
3.51999998837709 1206
3.53999998793006 1224
3.55999998748302 1234
3.57999998703599 1210
3.59999998658895 1187
3.61999998614192 1202
3.63999998569489 1186
3.65999998524785 1217
3.67999998480082 1187
3.69999998435378 1175
3.71999998390675 1153
3.73999998345971 1144
3.75999998301268 1168
3.77999998256564 1057
3.79999998211861 1104
3.81999998167157 1213
3.83999998122454 1121
3.8599999807775 1120
3.87999998033047 1099
3.89999997988343 1086
3.9199999794364 1110
3.93999997898936 1125
3.95999997854233 1078
3.97999997809529 1045
3.99999997764826 1149
4.01999997720122 1106
4.03999997675419 1099
4.05999997630715 1025
4.07999997586012 1042
4.09999997541308 1045
4.11999997496605 1041
4.13999997451901 1043
4.15999997407198 1029
4.17999997362494 1007
4.19999997317791 1015
4.21999997273087 1090
4.23999997228384 1047
4.25999997183681 1037
4.27999997138977 1016
4.29999997094274 1014
4.3199999704957 1025
4.33999997004867 1057
4.35999996960163 1026
4.3799999691546 951
4.39999996870756 1001
4.41999996826053 1002
4.43999996781349 1010
4.45999996736646 1025
4.47999996691942 954
4.49999996647239 998
4.51999996602535 986
4.53999996557832 988
4.55999996513128 944
4.57999996468425 1005
4.59999996423721 994
4.61999996379018 999
4.63999996334314 960
4.65999996289611 921
4.67999996244907 965
4.69999996200204 957
4.719999961555 966
4.73999996110797 980
4.75999996066093 962
4.7799999602139 963
4.79999995976686 995
4.81999995931983 944
4.83999995887279 972
4.85999995842576 992
4.87999995797873 974
4.89999995753169 933
4.91999995708466 945
4.93999995663762 1004
4.95999995619059 938
4.97999995574355 916
4.99999995529652 948
5.01999995484948 933
5.03999995440245 979
5.05999995395541 925
5.07999995350838 948
5.09999995306134 922
5.11999995261431 1001
5.13999995216727 938
5.15999995172024 953
5.1799999512732 905
5.19999995082617 922
5.21999995037913 981
5.2399999499321 953
5.25999994948506 976
5.27999994903803 980
5.29999994859099 935
5.31999994814396 983
5.33999994769692 990
5.35999994724989 932
5.37999994680285 951
5.39999994635582 980
5.41999994590878 975
5.43999994546175 928
5.45999994501471 966
5.47999994456768 963
5.49999994412065 957
5.51999994367361 989
5.53999994322658 1028
5.55999994277954 965
5.57999994233251 979
5.59999994188547 1041
5.61999994143844 1012
5.6399999409914 992
5.65999994054437 979
5.67999994009733 1040
5.6999999396503 1079
5.71999993920326 1013
5.73999993875623 988
5.75999993830919 1120
5.77999993786216 1100
5.79999993741512 1030
5.81999993696809 1040
5.83999993652105 1114
5.85999993607402 1198
5.87999993562698 1344
5.89999993517995 1696
5.91999993473291 1843
5.93999993428588 1226
5.95999993383884 986
5.97999993339181 1107
5.99999993294477 1048
6.01999993249774 1064
6.0399999320507 1086
6.05999993160367 1032
6.07999993115663 1056
6.0999999307096 1085
6.11999993026257 976
6.13999992981553 985
6.1599999293685 1082
6.17999992892146 1045
6.19999992847443 1041
6.21999992802739 1041
6.23999992758036 1053
6.25999992713332 1006
6.27999992668629 1013
6.29999992623925 1032
6.31999992579222 968
6.33999992534518 1068
6.35999992489815 1071
6.37999992445111 998
6.39999992400408 1054
6.41999992355704 1101
6.43999992311001 989
6.45999992266297 1047
6.47999992221594 1093
6.4999999217689 1048
6.51999992132187 1048
6.53999992087483 1083
6.5599999204278 1088
6.57999991998076 1025
6.59999991953373 1055
6.61999991908669 1093
6.63999991863966 1067
6.65999991819262 1046
6.67999991774559 1029
6.69999991729855 1065
6.71999991685152 1111
6.73999991640449 1083
6.75999991595745 1084
6.77999991551042 1043
6.79999991506338 1053
6.81999991461635 1093
6.83999991416931 1074
6.85999991372228 1035
6.87999991327524 1073
6.89999991282821 1083
6.91999991238117 1074
6.93999991193414 1001
6.9599999114871 1092
6.97999991104007 1069
6.99999991059303 1041
7.019999910146 1121
7.03999990969896 1020
7.05999990925193 1047
7.07999990880489 1040
7.09999990835786 1105
7.11999990791082 1033
7.13999990746379 1087
7.15999990701675 1111
7.17999990656972 1117
7.19999990612268 1053
7.21999990567565 1068
7.23999990522861 1033
7.25999990478158 1069
7.27999990433454 1065
7.29999990388751 1049
7.31999990344047 1041
7.33999990299344 1128
7.35999990254641 1077
7.37999990209937 1055
7.39999990165234 1088
7.4199999012053 1105
7.43999990075827 1074
7.45999990031123 1136
7.4799998998642 1061
7.49999989941716 1140
7.51999989897013 1084
7.53999989852309 1015
7.55999989807606 1046
7.57999989762902 1087
7.59999989718199 1115
7.61999989673495 1113
7.63999989628792 1052
7.65999989584088 1083
7.67999989539385 1011
7.69999989494681 1125
7.71999989449978 1133
7.73999989405274 1066
7.75999989360571 1105
7.77999989315867 1117
7.79999989271164 1145
7.8199998922646 1125
7.83999989181757 1031
7.85999989137053 1040
7.8799998909235 1093
7.89999989047646 1059
7.91999989002943 1075
7.9399998895824 1079
7.95999988913536 1126
7.97999988868833 1079
7.99999988824129 1099
8.01999988779426 1109
8.03999988734722 1068
8.05999988690019 1095
8.07999988645315 1088
8.09999988600612 1106
8.11999988555908 1088
8.13999988511205 1113
8.15999988466501 1098
8.17999988421798 1083
8.19999988377094 1064
8.21999988332391 1110
8.23999988287687 1061
8.25999988242984 1083
8.2799998819828 1027
8.29999988153577 1147
8.31999988108873 1075
8.3399998806417 1080
8.35999988019466 1112
8.37999987974763 1123
8.39999987930059 1064
8.41999987885356 1104
8.43999987840652 1107
8.45999987795949 1093
8.47999987751245 1127
8.49999987706542 1085
8.51999987661839 1103
8.53999987617135 1090
8.55999987572432 1097
8.57999987527728 1129
8.59999987483025 1069
8.61999987438321 1120
8.63999987393618 1105
8.65999987348914 1140
8.67999987304211 1137
8.69999987259507 1095
8.71999987214804 1078
8.739999871701 1101
8.75999987125397 1125
8.77999987080693 1103
8.7999998703599 1106
8.81999986991286 1130
8.83999986946583 1067
8.85999986901879 1050
8.87999986857176 1148
8.89999986812472 1114
8.91999986767769 1091
8.93999986723065 1110
8.95999986678362 1107
8.97999986633658 1109
8.99999986588955 1076
9.01999986544251 1128
9.03999986499548 1124
9.05999986454844 1100
9.07999986410141 1119
9.09999986365438 1142
9.11999986320734 1096
9.13999986276031 1119
9.15999986231327 1104
9.17999986186624 1127
9.1999998614192 1132
9.21999986097217 1097
9.23999986052513 1138
9.2599998600781 1151
9.27999985963106 1203
9.29999985918403 1124
9.31999985873699 1097
9.33999985828996 1140
9.35999985784292 1122
9.37999985739589 1147
9.39999985694885 1103
9.41999985650182 1118
9.43999985605478 1112
9.45999985560775 1125
9.47999985516071 1135
9.49999985471368 1148
9.51999985426664 1086
9.53999985381961 1082
9.55999985337257 1113
9.57999985292554 1120
9.5999998524785 1092
9.61999985203147 1099
9.63999985158443 1138
9.6599998511374 1134
9.67999985069037 1122
9.69999985024333 1167
9.7199998497963 1140
9.73999984934926 1091
9.75999984890223 1080
9.77999984845519 1135
9.79999984800816 1076
9.81999984756112 1124
9.83999984711409 1119
9.85999984666705 1127
9.87999984622002 1067
9.89999984577298 1135
9.91999984532595 1124
9.93999984487891 1109
9.95999984443188 1113
9.97999984398484 1135
9.99999984353781 1101
10.0199998430908 1118
10.0399998426437 1154
10.0599998421967 1079
10.0799998417497 1117
10.0999998413026 1156
10.1199998408556 1132
10.1399998404086 1096
10.1599998399615 1133
10.1799998395145 1149
10.1999998390675 1156
10.2199998386204 1119
10.2399998381734 1141
10.2599998377264 1091
10.2799998372793 1141
10.2999998368323 1126
10.3199998363853 1141
10.3399998359382 1124
10.3599998354912 1119
10.3799998350441 1158
10.3999998345971 1134
10.4199998341501 1143
10.439999833703 1106
10.459999833256 1115
10.479999832809 1131
10.4999998323619 1100
10.5199998319149 1136
10.5399998314679 1138
10.5599998310208 1218
10.5799998305738 1174
10.5999998301268 1102
10.6199998296797 1189
10.6399998292327 1148
10.6599998287857 1141
10.6799998283386 1212
10.6999998278916 1121
10.7199998274446 1114
10.7399998269975 1146
10.7599998265505 1207
10.7799998261034 1174
10.7999998256564 1152
10.8199998252094 1183
10.8399998247623 1155
10.8599998243153 1164
10.8799998238683 1163
10.8999998234212 1172
10.9199998229742 1208
10.9399998225272 1231
10.9599998220801 1249
10.9799998216331 1215
10.9999998211861 1176
11.019999820739 1143
11.039999820292 1189
11.059999819845 1187
11.0799998193979 1188
11.0999998189509 1144
11.1199998185039 1202
11.1399998180568 1194
11.1599998176098 1209
11.1799998171628 1152
11.1999998167157 1174
11.2199998162687 1171
11.2399998158216 1181
11.2599998153746 1162
11.2799998149276 1199
11.2999998144805 1183
11.3199998140335 1218
11.3399998135865 1199
11.3599998131394 1125
11.3799998126924 1227
11.3999998122454 1186
11.4199998117983 1128
11.4399998113513 1228
11.4599998109043 1272
11.4799998104572 1335
11.4999998100102 1284
11.5199998095632 1258
11.5399998091161 1212
11.5599998086691 1211
11.5799998082221 1221
11.599999807775 1211
11.619999807328 1215
11.639999806881 1308
11.6599998064339 1275
11.6799998059869 1170
11.6999998055398 1204
11.7199998050928 1219
11.7399998046458 1165
11.7599998041987 1205
11.7799998037517 1280
11.7999998033047 1242
11.8199998028576 1161
11.8399998024106 1226
11.8599998019636 1224
11.8799998015165 1230
11.8999998010695 1215
11.9199998006225 1217
11.9399998001754 1252
11.9599997997284 1239
11.9799997992814 1205
11.9999997988343 1219
12.0199997983873 1205
12.0399997979403 1260
12.0599997974932 1200
12.0799997970462 1255
12.0999997965992 1279
12.1199997961521 1232
12.1399997957051 1262
12.159999795258 1202
12.179999794811 1208
12.199999794364 1272
12.2199997939169 1242
12.2399997934699 1203
12.2599997930229 1218
12.2799997925758 1311
12.2999997921288 1199
12.3199997916818 1251
12.3399997912347 1208
12.3599997907877 1316
12.3799997903407 1176
12.3999997898936 1239
12.4199997894466 1251
12.4399997889996 1220
12.4599997885525 1224
12.4799997881055 1281
12.4999997876585 1271
12.5199997872114 1292
12.5399997867644 1287
12.5599997863173 1228
12.5799997858703 1297
12.5999997854233 1287
12.6199997849762 1227
12.6399997845292 1232
12.6599997840822 1315
12.6799997836351 1310
12.6999997831881 1353
12.7199997827411 1235
12.739999782294 1321
12.759999781847 1234
12.7799997814 1265
12.7999997809529 1301
12.8199997805059 1294
12.8399997800589 1329
12.8599997796118 1305
12.8799997791648 1285
12.8999997787178 1256
12.9199997782707 1320
12.9399997778237 1291
12.9599997773767 1309
12.9799997769296 1221
12.9999997764826 1333
13.0199997760355 1291
13.0399997755885 1257
13.0599997751415 1321
13.0799997746944 1296
13.0999997742474 1301
13.1199997738004 1314
13.1399997733533 1271
13.1599997729063 1338
13.1799997724593 1354
13.1999997720122 1344
13.2199997715652 1375
13.2399997711182 1291
13.2599997706711 1329
13.2799997702241 1418
13.2999997697771 1388
13.31999976933 1339
13.339999768883 1293
13.359999768436 1394
13.3799997679889 1329
13.3999997675419 1404
13.4199997670949 1373
13.4399997666478 1388
13.4599997662008 1357
13.4799997657537 1349
13.4999997653067 1312
13.5199997648597 1338
13.5399997644126 1394
13.5599997639656 1372
13.5799997635186 1393
13.5999997630715 1409
13.6199997626245 1419
13.6399997621775 1403
13.6599997617304 1416
13.6799997612834 1427
13.6999997608364 1410
13.7199997603893 1345
13.7399997599423 1427
13.7599997594953 1390
13.7799997590482 1457
13.7999997586012 1425
13.8199997581542 1460
13.8399997577071 1383
13.8599997572601 1400
13.879999756813 1437
13.899999756366 1455
13.919999755919 1437
13.9399997554719 1401
13.9599997550249 1426
13.9799997545779 1397
13.9999997541308 1488
14.0199997536838 1439
14.0399997532368 1442
14.0599997527897 1475
14.0799997523427 1493
14.0999997518957 1501
14.1199997514486 1504
14.1399997510016 1497
14.1599997505546 1472
14.1799997501075 1417
14.1999997496605 1461
14.2199997492135 1472
14.2399997487664 1502
14.2599997483194 1520
14.2799997478724 1486
14.2999997474253 1553
14.3199997469783 1574
14.3399997465312 1467
14.3599997460842 1532
14.3799997456372 1499
14.3999997451901 1507
14.4199997447431 1524
14.4399997442961 1586
14.459999743849 1550
14.479999743402 1491
14.499999742955 1632
14.5199997425079 1586
14.5399997420609 1609
14.5599997416139 1518
14.5799997411668 1542
14.5999997407198 1574
14.6199997402728 1481
14.6399997398257 1629
14.6599997393787 1592
14.6799997389317 1535
14.6999997384846 1605
14.7199997380376 1548
14.7399997375906 1560
14.7599997371435 1532
14.7799997366965 1576
14.7999997362494 1625
14.8199997358024 1651
14.8399997353554 1669
14.8599997349083 1628
14.8799997344613 1623
14.8999997340143 1581
14.9199997335672 1690
14.9399997331202 1630
14.9599997326732 1698
14.9799997322261 1674
14.9999997317791 1621
15.0199997313321 1629
15.039999730885 1677
15.059999730438 1725
15.079999729991 1705
15.0999997295439 1636
15.1199997290969 1675
15.1399997286499 1624
15.1599997282028 1661
15.1799997277558 1660
15.1999997273088 1701
15.2199997268617 1622
15.2399997264147 1746
15.2599997259676 1666
15.2799997255206 1772
15.2999997250736 1684
15.3199997246265 1657
15.3399997241795 1640
15.3599997237325 1734
15.3799997232854 1649
15.3999997228384 1716
15.4199997223914 1709
15.4399997219443 1686
15.4599997214973 1743
15.4799997210503 1757
15.4999997206032 1765
15.5199997201562 1712
15.5399997197092 1774
15.5599997192621 1674
15.5799997188151 1748
15.5999997183681 1803
15.619999717921 1806
15.639999717474 1741
15.659999717027 1854
15.6799997165799 1809
15.6999997161329 1834
15.7199997156858 1799
15.7399997152388 1790
15.7599997147918 1719
15.7799997143447 1803
15.7999997138977 1863
15.8199997134507 1829
15.8399997130036 1736
15.8599997125566 1855
15.8799997121096 1838
15.8999997116625 1829
15.9199997112155 1833
15.9399997107685 1800
15.9599997103214 1904
15.9799997098744 1933
15.9999997094274 1782
16.0199997089803 1883
16.0399997085333 1984
16.0599997080863 1922
16.0799997076392 1937
16.0999997071922 1921
16.1199997067451 1935
16.1399997062981 1962
16.1599997058511 1927
16.179999705404 1908
16.199999704957 1893
16.21999970451 1913
16.2399997040629 1916
16.2599997036159 1881
16.2799997031689 2005
16.2999997027218 1901
16.3199997022748 2011
16.3399997018278 1932
16.3599997013807 1967
16.3799997009337 1939
16.3999997004867 1977
16.4199997000396 1969
16.4399996995926 1977
16.4599996991456 2039
16.4799996986985 2017
16.4999996982515 1942
16.5199996978045 2022
16.5399996973574 1954
16.5599996969104 2034
16.5799996964633 1983
16.5999996960163 2003
16.6199996955693 2046
16.6399996951222 2164
16.6599996946752 2052
16.6799996942282 2088
16.6999996937811 2038
16.7199996933341 2031
16.7399996928871 2178
16.75999969244 2162
16.779999691993 2106
16.799999691546 2103
16.8199996910989 2085
16.8399996906519 2127
16.8599996902049 2158
16.8799996897578 2151
16.8999996893108 2195
16.9199996888638 2256
16.9399996884167 2254
16.9599996879697 2251
16.9799996875226 2332
16.9999996870756 2288
17.0199996866286 2296
17.0399996861815 2201
17.0599996857345 2259
17.0799996852875 2185
17.0999996848404 2225
17.1199996843934 2277
17.1399996839464 2252
17.1599996834993 2214
17.1799996830523 2251
17.1999996826053 2267
17.2199996821582 2227
17.2399996817112 2196
17.2599996812642 2298
17.2799996808171 2281
17.2999996803701 2300
17.3199996799231 2341
17.339999679476 2304
17.359999679029 2269
17.379999678582 2211
17.3999996781349 2247
17.4199996776879 2347
17.4399996772408 2288
17.4599996767938 2339
17.4799996763468 2243
17.4999996758997 2363
17.5199996754527 2289
17.5399996750057 2244
17.5599996745586 2325
17.5799996741116 2329
17.5999996736646 2420
17.6199996732175 2301
17.6399996727705 2392
17.6599996723235 2457
17.6799996718764 2437
17.6999996714294 2357
17.7199996709824 2427
17.7399996705353 2315
17.7599996700883 2391
17.7799996696413 2379
17.7999996691942 2483
17.8199996687472 2460
17.8399996683002 2478
17.8599996678531 2440
17.8799996674061 2411
17.899999666959 2455
17.919999666512 2466
17.939999666065 2519
17.9599996656179 2518
17.9799996651709 2521
17.9999996647239 2503
18.0199996642768 2521
18.0399996638298 2425
18.0599996633828 2652
18.0799996629357 2576
18.0999996624887 2599
18.1199996620417 2504
18.1399996615946 2517
18.1599996611476 2603
18.1799996607006 2591
18.1999996602535 2532
18.2199996598065 2546
18.2399996593595 2497
18.2599996589124 2529
18.2799996584654 2614
18.2999996580184 2647
18.3199996575713 2579
18.3399996571243 2672
18.3599996566772 2610
18.3799996562302 2626
18.3999996557832 2596
18.4199996553361 2687
18.4399996548891 2598
18.4599996544421 2744
18.479999653995 2739
18.499999653548 2709
18.519999653101 2748
18.5399996526539 2831
18.5599996522069 2701
18.5799996517599 2598
18.5999996513128 2665
18.6199996508658 2639
18.6399996504188 2657
18.6599996499717 2820
18.6799996495247 2718
18.6999996490777 2704
18.7199996486306 2826
18.7399996481836 2734
18.7599996477366 2747
18.7799996472895 2767
18.7999996468425 2712
18.8199996463954 2708
18.8399996459484 2872
18.8599996455014 2896
18.8799996450543 2824
18.8999996446073 2866
18.9199996441603 2770
18.9399996437132 2823
18.9599996432662 2863
18.9799996428192 2887
18.9999996423721 2850
19.0199996419251 2850
19.0399996414781 2818
19.059999641031 2859
19.079999640584 2901
19.099999640137 2932
19.1199996396899 2940
19.1399996392429 2860
19.1599996387959 2956
19.1799996383488 2933
19.1999996379018 2845
19.2199996374547 2964
19.2399996370077 2883
19.2599996365607 2900
19.2799996361136 2855
19.2999996356666 2933
19.3199996352196 2921
19.3399996347725 2882
19.3599996343255 3023
19.3799996338785 2880
19.3999996334314 3021
19.4199996329844 2916
19.4399996325374 2929
19.4599996320903 2991
19.4799996316433 2990
19.4999996311963 3075
19.5199996307492 2954
19.5399996303022 2995
19.5599996298552 3139
19.5799996294081 3143
19.5999996289611 3245
19.6199996285141 3060
19.639999628067 2991
19.65999962762 2984
19.6799996271729 3045
19.6999996267259 3071
19.7199996262789 2999
19.7399996258318 2957
19.7599996253848 3095
19.7799996249378 3072
19.7999996244907 3047
19.8199996240437 3030
19.8399996235967 3078
19.8599996231496 3113
19.8799996227026 3226
19.8999996222556 3050
19.9199996218085 3135
19.9399996213615 3115
19.9599996209145 3123
19.9799996204674 3094
19.9999996200204 3111
20.0199996195734 3045
20.0399996191263 3084
20.0599996186793 3166
20.0799996182322 3071
20.0999996177852 3114
20.1199996173382 3118
20.1399996168911 3176
20.1599996164441 3143
20.1799996159971 3279
20.19999961555 3174
20.219999615103 3080
20.239999614656 3103
20.2599996142089 3173
20.2799996137619 3115
20.2999996133149 3185
20.3199996128678 3025
20.3399996124208 3233
20.3599996119738 3276
20.3799996115267 3108
20.3999996110797 3065
20.4199996106327 3187
20.4399996101856 3221
20.4599996097386 3120
20.4799996092916 3084
20.4999996088445 3294
20.5199996083975 3272
20.5399996079504 3162
20.5599996075034 3133
20.5799996070564 3197
20.5999996066093 3194
20.6199996061623 3190
20.6399996057153 3111
20.6599996052682 3218
20.6799996048212 3130
20.6999996043742 3167
20.7199996039271 3296
20.7399996034801 3253
20.7599996030331 3158
20.779999602586 3167
20.799999602139 3210
20.819999601692 3140
20.8399996012449 3237
20.8599996007979 3084
20.8799996003509 3207
20.8999995999038 3190
20.9199995994568 3196
20.9399995990098 3170
20.9599995985627 3238
20.9799995981157 3260
20.9999995976686 3186
21.0199995972216 3195
21.0399995967746 3102
21.0599995963275 3241
21.0799995958805 3218
21.0999995954335 3130
21.1199995949864 3217
21.1399995945394 3124
21.1599995940924 3165
21.1799995936453 3041
21.1999995931983 3324
21.2199995927513 3147
21.2399995923042 3189
21.2599995918572 3233
21.2799995914102 3044
21.2999995909631 3129
21.3199995905161 3197
21.3399995900691 3212
21.359999589622 3116
21.379999589175 3116
21.399999588728 3091
21.4199995882809 3070
21.4399995878339 3156
21.4599995873868 3199
21.4799995869398 3068
21.4999995864928 3089
21.5199995860457 3219
21.5399995855987 3054
21.5599995851517 3140
21.5799995847046 3039
21.5999995842576 3133
21.6199995838106 3226
21.6399995833635 3194
21.6599995829165 3094
21.6799995824695 3116
21.6999995820224 3186
21.7199995815754 3085
21.7399995811284 3110
21.7599995806813 3159
21.7799995802343 3088
21.7999995797873 3079
21.8199995793402 3104
21.8399995788932 3144
21.8599995784462 3028
21.8799995779991 3070
21.8999995775521 3097
21.919999577105 3076
21.939999576658 3066
21.959999576211 3067
21.9799995757639 3006
21.9999995753169 3102
22.0199995748699 3100
22.0399995744228 3020
22.0599995739758 3005
22.0799995735288 3065
22.0999995730817 3038
22.1199995726347 2974
22.1399995721877 3059
22.1599995717406 3098
22.1799995712936 2939
22.1999995708466 2907
22.2199995703995 3020
22.2399995699525 3008
22.2599995695055 2988
22.2799995690584 3057
22.2999995686114 3048
22.3199995681643 3087
22.3399995677173 3000
22.3599995672703 3026
22.3799995668232 3011
22.3999995663762 3035
22.4199995659292 3011
22.4399995654821 2958
22.4599995650351 2910
22.4799995645881 2921
22.499999564141 2968
22.519999563694 2955
22.539999563247 2886
22.5599995627999 2942
22.5799995623529 3073
22.5999995619059 2902
22.6199995614588 2959
22.6399995610118 3104
22.6599995605648 2849
22.6799995601177 2897
22.6999995596707 2981
22.7199995592237 2898
22.7399995587766 2914
22.7599995583296 2924
22.7799995578825 2890
22.7999995574355 2969
22.8199995569885 2912
22.8399995565414 2911
22.8599995560944 2835
22.8799995556474 2781
22.8999995552003 2788
22.9199995547533 2878
22.9399995543063 2813
22.9599995538592 2856
22.9799995534122 2872
22.9999995529652 2958
23.0199995525181 2924
23.0399995520711 2875
23.0599995516241 2822
23.079999551177 2809
23.09999955073 2810
23.119999550283 2926
23.1399995498359 2821
23.1599995493889 2786
23.1799995489418 2752
23.1999995484948 2815
23.2199995480478 2685
23.2399995476007 2807
23.2599995471537 2793
23.2799995467067 2791
23.2999995462596 2752
23.3199995458126 2664
23.3399995453656 2767
23.3599995449185 2809
23.3799995444715 2723
23.3999995440245 2753
23.4199995435774 2745
23.4399995431304 2605
23.4599995426834 2791
23.4799995422363 2709
23.4999995417893 2785
23.5199995413423 2740
23.5399995408952 2740
23.5599995404482 2686
23.5799995400012 2716
23.5999995395541 2777
23.6199995391071 2711
23.63999953866 2780
23.659999538213 2732
23.679999537766 2666
23.6999995373189 2824
23.7199995368719 2735
23.7399995364249 2782
23.7599995359778 2768
23.7799995355308 2668
23.7999995350838 2689
23.8199995346367 2696
23.8399995341897 2663
23.8599995337427 2577
23.8799995332956 2611
23.8999995328486 2659
23.9199995324016 2590
23.9399995319545 2630
23.9599995315075 2542
23.9799995310605 2646
23.9999995306134 2649
24.0199995301664 2522
24.0399995297194 2622
24.0599995292723 2546
24.0799995288253 2623
24.0999995283782 2572
24.1199995279312 2609
24.1399995274842 2534
24.1599995270371 2539
24.1799995265901 2626
24.1999995261431 2540
24.219999525696 2556
24.239999525249 2527
24.259999524802 2496
24.2799995243549 2560
24.2999995239079 2492
24.3199995234609 2520
24.3399995230138 2585
24.3599995225668 2518
24.3799995221198 2511
24.3999995216727 2597
24.4199995212257 2594
24.4399995207787 2520
24.4599995203316 2521
24.4799995198846 2509
24.4999995194376 2429
24.5199995189905 2502
24.5399995185435 2449
24.5599995180964 2407
24.5799995176494 2508
24.5999995172024 2382
24.6199995167553 2445
24.6399995163083 2436
24.6599995158613 2450
24.6799995154142 2444
24.6999995149672 2436
24.7199995145202 2395
24.7399995140731 2323
24.7599995136261 2433
24.7799995131791 2436
24.799999512732 2368
24.819999512285 2485
24.839999511838 2385
24.8599995113909 2446
24.8799995109439 2523
24.8999995104969 2381
24.9199995100498 2483
24.9399995096028 2417
24.9599995091558 2416
24.9799995087087 2364
24.9999995082617 2349
25.0199995078146 2394
25.0399995073676 2333
25.0599995069206 2238
25.0799995064735 2320
25.0999995060265 2337
25.1199995055795 2381
25.1399995051324 2454
25.1599995046854 2349
25.1799995042384 2402
25.1999995037913 2385
25.2199995033443 2404
25.2399995028973 2465
25.2599995024502 2470
25.2799995020032 2434
25.2999995015562 2382
25.3199995011091 2378
25.3399995006621 2305
25.3599995002151 2330
25.379999499768 2206
25.399999499321 2307
25.4199994988739 2345
25.4399994984269 2342
25.4599994979799 2282
25.4799994975328 2378
25.4999994970858 2323
25.5199994966388 2486
25.5399994961917 2435
25.5599994957447 2304
25.5799994952977 2306
25.5999994948506 2285
25.6199994944036 2238
25.6399994939566 2225
25.6599994935095 2270
25.6799994930625 2229
25.6999994926155 2194
25.7199994921684 2223
25.7399994917214 2122
25.7599994912744 2174
25.7799994908273 2126
25.7999994903803 2197
25.8199994899333 2210
25.8399994894862 2126
25.8599994890392 2121
25.8799994885921 2101
25.8999994881451 2201
25.9199994876981 2114
25.939999487251 2133
25.959999486804 2163
25.979999486357 2128
25.9999994859099 2107
26.0199994854629 2166
26.0399994850159 2077
26.0599994845688 2107
26.0799994841218 2136
26.0999994836748 2041
26.1199994832277 2038
26.1399994827807 2099
26.1599994823337 2229
26.1799994818866 2104
26.1999994814396 1944
26.2199994809926 2093
26.2399994805455 2075
26.2599994800985 1991
26.2799994796514 2094
26.2999994792044 2101
26.3199994787574 2067
26.3399994783103 2055
26.3599994778633 2049
26.3799994774163 2029
26.3999994769692 2053
26.4199994765222 2031
26.4399994760752 2010
26.4599994756281 2067
26.4799994751811 2018
26.4999994747341 2092
26.519999474287 2019
26.53999947384 2005
26.559999473393 2085
26.5799994729459 2009
26.5999994724989 2127
26.6199994720519 2119
26.6399994716048 2103
26.6599994711578 2084
26.6799994707108 2099
26.6999994702637 2039
26.7199994698167 2020
26.7399994693697 1929
26.7599994689226 2019
26.7799994684756 2118
26.7999994680285 2024
26.8199994675815 2058
26.8399994671345 1971
26.8599994666874 2051
26.8799994662404 2006
26.8999994657934 2067
26.9199994653463 2092
26.9399994648993 2000
26.9599994644523 2029
26.9799994640052 1979
26.9999994635582 2051
27.0199994631112 2001
27.0399994626641 2026
27.0599994622171 1982
27.0799994617701 1950
27.099999461323 2035
27.119999460876 2018
27.139999460429 2015
27.1599994599819 2017
27.1799994595349 1909
27.1999994590878 1950
27.2199994586408 2007
27.2399994581938 1907
27.2599994577467 1939
27.2799994572997 1993
27.2999994568527 1920
27.3199994564056 1965
27.3399994559586 1892
27.3599994555116 1972
27.3799994550645 1915
27.3999994546175 1916
27.4199994541705 1943
27.4399994537234 2075
27.4599994532764 1943
27.4799994528294 1886
27.4999994523823 1912
27.5199994519353 1909
27.5399994514883 1914
27.5599994510412 1928
27.5799994505942 1847
27.5999994501472 1860
27.6199994497001 1814
27.6399994492531 1820
27.659999448806 1841
27.679999448359 1926
27.699999447912 1859
27.7199994474649 1863
27.7399994470179 1866
27.7599994465709 1817
27.7799994461238 1752
27.7999994456768 1788
27.8199994452298 1790
27.8399994447827 1773
27.8599994443357 1753
27.8799994438887 1814
27.8999994434416 1766
27.9199994429946 1847
27.9399994425476 1842
27.9599994421005 1788
27.9799994416535 1791
27.9999994412065 1814
28.0199994407594 1805
28.0399994403124 1768
28.0599994398654 1834
28.0799994394183 1817
28.0999994389713 1769
28.1199994385242 1758
28.1399994380772 1838
28.1599994376302 1871
28.1799994371831 1719
28.1999994367361 1822
28.2199994362891 1713
28.239999435842 1793
28.259999435395 1838
28.279999434948 1813
28.2999994345009 1840
28.3199994340539 1731
28.3399994336069 1734
28.3599994331598 1659
28.3799994327128 1755
28.3999994322658 1700
28.4199994318187 1657
28.4399994313717 1768
28.4599994309247 1732
28.4799994304776 1703
28.4999994300306 1731
28.5199994295835 1669
28.5399994291365 1749
28.5599994286895 1722
28.5799994282424 1732
28.5999994277954 1735
28.6199994273484 1767
28.6399994269013 1720
28.6599994264543 1632
28.6799994260073 1730
28.6999994255602 1756
28.7199994251132 1749
28.7399994246662 1676
28.7599994242191 1773
28.7799994237721 1781
28.7999994233251 1815
28.819999422878 1941
28.839999422431 1941
28.859999421984 1791
28.8799994215369 1795
28.8999994210899 1809
28.9199994206429 1804
28.9399994201958 1652
28.9599994197488 1745
28.9799994193017 1760
28.9999994188547 1741
29.0199994184077 1767
29.0399994179606 1789
29.0599994175136 1688
29.0799994170666 1712
29.0999994166195 1692
29.1199994161725 1683
29.1399994157255 1643
29.1599994152784 1684
29.1799994148314 1691
29.1999994143844 1645
29.2199994139373 1671
29.2399994134903 1693
29.2599994130433 1679
29.2799994125962 1649
29.2999994121492 1629
29.3199994117022 1560
29.3399994112551 1576
29.3599994108081 1589
29.379999410361 1654
29.399999409914 1620
29.419999409467 1621
29.4399994090199 1614
29.4599994085729 1526
29.4799994081259 1525
29.4999994076788 1560
29.5199994072318 1563
29.5399994067848 1600
29.5599994063377 1573
29.5799994058907 1551
29.5999994054437 1556
29.6199994049966 1530
29.6399994045496 1579
29.6599994041026 1594
29.6799994036555 1539
29.6999994032085 1529
29.7199994027615 1537
29.7399994023144 1572
29.7599994018674 1514
29.7799994014204 1578
29.7999994009733 1588
29.8199994005263 1501
29.8399994000793 1585
29.8599993996322 1536
29.8799993991852 1602
29.8999993987381 1527
29.9199993982911 1496
29.9399993978441 1501
29.959999397397 1507
29.97999939695 1474
29.999999396503 1504
