3 2148
3.01999999955297 1994
3.03999999910593 1872
3.0599999986589 1720
3.07999999821186 1734
3.09999999776483 1681
3.11999999731779 1628
3.13999999687076 1641
3.15999999642372 1539
3.17999999597669 1581
3.19999999552965 1518
3.21999999508262 1550
3.23999999463558 1546
3.25999999418855 1544
3.27999999374151 1557
3.29999999329448 1557
3.31999999284744 1491
3.33999999240041 1471
3.35999999195337 1423
3.37999999150634 1412
3.3999999910593 1440
3.41999999061227 1447
3.43999999016523 1399
3.4599999897182 1393
3.47999998927116 1410
3.49999998882413 1370
3.51999998837709 1415
3.53999998793006 1407
3.55999998748302 1351
3.57999998703599 1307
3.59999998658895 1265
3.61999998614192 1326
3.63999998569489 1285
3.65999998524785 1386
3.67999998480082 1357
3.69999998435378 1285
3.71999998390675 1299
3.73999998345971 1321
3.75999998301268 1174
3.77999998256564 1289
3.79999998211861 1240
3.81999998167157 1272
3.83999998122454 1215
3.8599999807775 1214
3.87999998033047 1231
3.89999997988343 1251
3.9199999794364 1298
3.93999997898936 1215
3.95999997854233 1221
3.97999997809529 1171
3.99999997764826 1157
4.01999997720122 1122
4.03999997675419 1163
4.05999997630715 1148
4.07999997586012 1140
4.09999997541308 1149
4.11999997496605 1123
4.13999997451901 1147
4.15999997407198 1123
4.17999997362494 1183
4.19999997317791 1137
4.21999997273087 1121
4.23999997228384 1066
4.25999997183681 1132
4.27999997138977 1063
4.29999997094274 1079
4.3199999704957 1143
4.33999997004867 1051
4.35999996960163 1068
4.3799999691546 1089
4.39999996870756 1090
4.41999996826053 1029
4.43999996781349 1089
4.45999996736646 1098
4.47999996691942 1031
4.49999996647239 1028
4.51999996602535 998
4.53999996557832 1048
4.55999996513128 1035
4.57999996468425 1067
4.59999996423721 1073
4.61999996379018 990
4.63999996334314 1054
4.65999996289611 1010
4.67999996244907 1042
4.69999996200204 1039
4.719999961555 1024
4.73999996110797 986
4.75999996066093 1026
4.7799999602139 1011
4.79999995976686 985
4.81999995931983 1042
4.83999995887279 1011
4.85999995842576 1031
4.87999995797873 990
4.89999995753169 1045
4.91999995708466 988
4.93999995663762 1005
4.95999995619059 978
4.97999995574355 971
4.99999995529652 996
5.01999995484948 986
5.03999995440245 990
5.05999995395541 1034
5.07999995350838 978
5.09999995306134 962
5.11999995261431 974
5.13999995216727 960
5.15999995172024 982
5.1799999512732 969
5.19999995082617 973
5.21999995037913 1013
5.2399999499321 978
5.25999994948506 947
5.27999994903803 1003
5.29999994859099 1017
5.31999994814396 978
5.33999994769692 1015
5.35999994724989 1026
5.37999994680285 1010
5.39999994635582 987
5.41999994590878 967
5.43999994546175 985
5.45999994501471 951
5.47999994456768 985
5.49999994412065 986
5.51999994367361 991
5.53999994322658 973
5.55999994277954 946
5.57999994233251 965
5.59999994188547 991
5.61999994143844 961
5.6399999409914 978
5.65999994054437 943
5.67999994009733 983
5.6999999396503 991
5.71999993920326 940
5.73999993875623 998
5.75999993830919 1039
5.77999993786216 978
5.79999993741512 994
5.81999993696809 987
5.83999993652105 997
5.85999993607402 952
5.87999993562698 983
5.89999993517995 1046
5.91999993473291 1056
5.93999993428588 1038
5.95999993383884 990
5.97999993339181 990
5.99999993294477 1016
6.01999993249774 968
6.0399999320507 1001
6.05999993160367 1020
6.07999993115663 981
6.0999999307096 949
6.11999993026257 1011
6.13999992981553 958
6.1599999293685 972
6.17999992892146 1011
6.19999992847443 1026
6.21999992802739 1051
6.23999992758036 998
6.25999992713332 1063
6.27999992668629 1006
6.29999992623925 1014
6.31999992579222 1029
6.33999992534518 999
6.35999992489815 1011
6.37999992445111 968
6.39999992400408 973
6.41999992355704 1032
6.43999992311001 1063
6.45999992266297 1040
6.47999992221594 1047
6.4999999217689 1013
6.51999992132187 1011
6.53999992087483 1024
6.5599999204278 1015
6.57999991998076 988
6.59999991953373 1018
6.61999991908669 1082
6.63999991863966 1063
6.65999991819262 1034
6.67999991774559 1000
6.69999991729855 1099
6.71999991685152 1034
6.73999991640449 1013
6.75999991595745 1057
6.77999991551042 1002
6.79999991506338 1050
6.81999991461635 1075
6.83999991416931 1048
6.85999991372228 1099
6.87999991327524 1057
6.89999991282821 1031
6.91999991238117 1035
6.93999991193414 1075
6.9599999114871 1004
6.97999991104007 1023
6.99999991059303 1009
7.019999910146 1015
7.03999990969896 1050
7.05999990925193 1038
7.07999990880489 1083
7.09999990835786 1005
7.11999990791082 1051
7.13999990746379 995
7.15999990701675 1022
7.17999990656972 1050
7.19999990612268 1107
7.21999990567565 1035
7.23999990522861 1015
7.25999990478158 1049
7.27999990433454 1014
7.29999990388751 1047
7.31999990344047 1019
7.33999990299344 1031
7.35999990254641 1053
7.37999990209937 1037
7.39999990165234 1094
7.4199999012053 1041
7.43999990075827 1075
7.45999990031123 1041
7.4799998998642 1060
7.49999989941716 1090
7.51999989897013 1001
7.53999989852309 1052
7.55999989807606 1102
7.57999989762902 1046
7.59999989718199 1031
7.61999989673495 1077
7.63999989628792 1087
7.65999989584088 1041
7.67999989539385 1099
7.69999989494681 1086
7.71999989449978 1012
7.73999989405274 1042
7.75999989360571 1041
7.77999989315867 1023
7.79999989271164 1046
7.8199998922646 1038
7.83999989181757 1055
7.85999989137053 1062
7.8799998909235 1065
7.89999989047646 1023
7.91999989002943 1039
7.9399998895824 1066
7.95999988913536 1066
7.97999988868833 1021
7.99999988824129 1038
8.01999988779426 1043
8.03999988734722 1122
8.05999988690019 1078
8.07999988645315 1078
8.09999988600612 1027
8.11999988555908 1094
8.13999988511205 1073
8.15999988466501 1089
8.17999988421798 1151
8.19999988377094 1041
8.21999988332391 1052
8.23999988287687 1056
8.25999988242984 1072
8.2799998819828 1064
8.29999988153577 1071
8.31999988108873 1077
8.3399998806417 1081
8.35999988019466 1025
8.37999987974763 1035
8.39999987930059 1073
8.41999987885356 1111
8.43999987840652 1010
8.45999987795949 1088
8.47999987751245 1090
8.49999987706542 1082
8.51999987661839 1035
8.53999987617135 1122
8.55999987572432 1064
8.57999987527728 1058
8.59999987483025 1084
8.61999987438321 1070
8.63999987393618 1029
8.65999987348914 1095
8.67999987304211 1088
8.69999987259507 1061
8.71999987214804 1079
8.739999871701 1059
8.75999987125397 1079
8.77999987080693 1144
8.7999998703599 1119
8.81999986991286 1089
8.83999986946583 1089
8.85999986901879 1101
8.87999986857176 1120
8.89999986812472 1073
8.91999986767769 1079
8.93999986723065 1080
8.95999986678362 1021
8.97999986633658 1088
8.99999986588955 1108
9.01999986544251 1135
9.03999986499548 1084
9.05999986454844 1076
9.07999986410141 1086
9.09999986365438 1118
9.11999986320734 1048
9.13999986276031 1102
9.15999986231327 1110
9.17999986186624 1091
9.1999998614192 1083
9.21999986097217 1078
9.23999986052513 1067
9.2599998600781 1090
9.27999985963106 1120
9.29999985918403 1098
9.31999985873699 1104
9.33999985828996 1155
9.35999985784292 1073
9.37999985739589 1038
9.39999985694885 1070
9.41999985650182 1047
9.43999985605478 1106
9.45999985560775 1137
9.47999985516071 1095
9.49999985471368 1126
9.51999985426664 1040
9.53999985381961 1068
9.55999985337257 1140
9.57999985292554 1087
9.5999998524785 1111
9.61999985203147 1132
9.63999985158443 1094
9.6599998511374 1057
9.67999985069037 1132
9.69999985024333 1037
9.7199998497963 1073
9.73999984934926 1067
9.75999984890223 1113
9.77999984845519 1107
9.79999984800816 1085
9.81999984756112 1100
9.83999984711409 1050
9.85999984666705 1113
9.87999984622002 1068
9.89999984577298 1105
9.91999984532595 1118
9.93999984487891 1081
9.95999984443188 1097
9.97999984398484 1105
9.99999984353781 1126
10.0199998430908 1100
10.0399998426437 1070
10.0599998421967 1107
10.0799998417497 1057
10.0999998413026 1054
10.1199998408556 1065
10.1399998404086 1134
10.1599998399615 1111
10.1799998395145 1047
10.1999998390675 1108
10.2199998386204 1082
10.2399998381734 1124
10.2599998377264 1167
10.2799998372793 1045
10.2999998368323 1097
10.3199998363853 1113
10.3399998359382 1097
10.3599998354912 1079
10.3799998350441 1092
10.3999998345971 1067
10.4199998341501 1048
10.439999833703 1082
10.459999833256 1155
10.479999832809 1074
10.4999998323619 1083
10.5199998319149 1099
10.5399998314679 1130
10.5599998310208 1128
10.5799998305738 1142
10.5999998301268 1164
10.6199998296797 1134
10.6399998292327 1126
10.6599998287857 1102
10.6799998283386 1119
10.6999998278916 1154
10.7199998274446 1080
10.7399998269975 1164
10.7599998265505 1093
10.7799998261034 1197
10.7999998256564 1145
10.8199998252094 1170
10.8399998247623 1157
10.8599998243153 1086
10.8799998238683 1104
10.8999998234212 1099
10.9199998229742 1145
10.9399998225272 1099
10.9599998220801 1151
10.9799998216331 1094
10.9999998211861 1162
11.019999820739 1166
11.039999820292 1115
11.059999819845 1089
11.0799998193979 1157
11.0999998189509 1149
11.1199998185039 1172
11.1399998180568 1161
11.1599998176098 1150
11.1799998171628 1088
11.1999998167157 1126
11.2199998162687 1090
11.2399998158216 1108
11.2599998153746 1141
11.2799998149276 1120
11.2999998144805 1143
11.3199998140335 1139
11.3399998135865 1130
11.3599998131394 1116
11.3799998126924 1119
11.3999998122454 1145
11.4199998117983 1163
11.4399998113513 1138
11.4599998109043 1104
11.4799998104572 1128
11.4999998100102 1252
11.5199998095632 1163
11.5399998091161 1189
11.5599998086691 1132
11.5799998082221 1141
11.599999807775 1117
11.619999807328 1207
11.639999806881 1122
11.6599998064339 1159
11.6799998059869 1139
11.6999998055398 1127
11.7199998050928 1191
11.7399998046458 1169
11.7599998041987 1192
11.7799998037517 1119
11.7999998033047 1085
11.8199998028576 1127
11.8399998024106 1222
11.8599998019636 1162
11.8799998015165 1094
11.8999998010695 1202
11.9199998006225 1140
11.9399998001754 1234
11.9599997997284 1201
11.9799997992814 1179
11.9999997988343 1187
12.0199997983873 1167
12.0399997979403 1213
12.0599997974932 1266
12.0799997970462 1182
12.0999997965992 1234
12.1199997961521 1201
12.1399997957051 1182
12.159999795258 1176
12.179999794811 1217
12.199999794364 1191
12.2199997939169 1285
12.2399997934699 1216
12.2599997930229 1182
12.2799997925758 1216
12.2999997921288 1210
12.3199997916818 1241
12.3399997912347 1241
12.3599997907877 1158
12.3799997903407 1250
12.3999997898936 1219
12.4199997894466 1179
12.4399997889996 1182
12.4599997885525 1228
12.4799997881055 1182
12.4999997876585 1219
12.5199997872114 1228
12.5399997867644 1191
12.5599997863173 1214
12.5799997858703 1234
12.5999997854233 1280
12.6199997849762 1192
12.6399997845292 1257
12.6599997840822 1233
12.6799997836351 1243
12.6999997831881 1215
12.7199997827411 1226
12.739999782294 1242
12.759999781847 1232
12.7799997814 1234
12.7999997809529 1275
12.8199997805059 1232
12.8399997800589 1225
12.8599997796118 1253
12.8799997791648 1243
12.8999997787178 1267
12.9199997782707 1297
12.9399997778237 1261
12.9599997773767 1281
12.9799997769296 1269
12.9999997764826 1279
13.0199997760355 1295
13.0399997755885 1252
13.0599997751415 1309
13.0799997746944 1273
13.0999997742474 1324
13.1199997738004 1263
13.1399997733533 1322
13.1599997729063 1325
13.1799997724593 1334
13.1999997720122 1321
13.2199997715652 1352
13.2399997711182 1334
13.2599997706711 1336
13.2799997702241 1382
13.2999997697771 1356
13.31999976933 1342
13.339999768883 1341
13.359999768436 1344
13.3799997679889 1265
13.3999997675419 1266
13.4199997670949 1269
13.4399997666478 1305
13.4599997662008 1339
13.4799997657537 1282
13.4999997653067 1335
13.5199997648597 1336
13.5399997644126 1320
13.5599997639656 1333
13.5799997635186 1335
13.5999997630715 1365
13.6199997626245 1310
13.6399997621775 1420
13.6599997617304 1369
13.6799997612834 1327
13.6999997608364 1260
13.7199997603893 1367
13.7399997599423 1380
13.7599997594953 1344
13.7799997590482 1296
13.7999997586012 1331
13.8199997581542 1383
13.8399997577071 1317
13.8599997572601 1380
13.879999756813 1292
13.899999756366 1348
13.919999755919 1406
13.9399997554719 1394
13.9599997550249 1386
13.9799997545779 1339
13.9999997541308 1446
14.0199997536838 1459
14.0399997532368 1372
14.0599997527897 1470
14.0799997523427 1376
14.0999997518957 1387
14.1199997514486 1426
14.1399997510016 1383
14.1599997505546 1420
14.1799997501075 1493
14.1999997496605 1400
14.2199997492135 1368
14.2399997487664 1482
14.2599997483194 1405
14.2799997478724 1449
14.2999997474253 1487
14.3199997469783 1544
14.3399997465312 1374
14.3599997460842 1465
14.3799997456372 1424
14.3999997451901 1502
14.4199997447431 1500
14.4399997442961 1488
14.459999743849 1486
14.479999743402 1485
14.499999742955 1461
14.5199997425079 1516
14.5399997420609 1407
14.5599997416139 1486
14.5799997411668 1488
14.5999997407198 1468
14.6199997402728 1495
14.6399997398257 1492
14.6599997393787 1530
14.6799997389317 1564
14.6999997384846 1510
14.7199997380376 1529
14.7399997375906 1485
14.7599997371435 1483
14.7799997366965 1562
14.7999997362494 1561
14.8199997358024 1464
14.8399997353554 1542
14.8599997349083 1520
14.8799997344613 1566
14.8999997340143 1499
14.9199997335672 1526
14.9399997331202 1573
14.9599997326732 1552
14.9799997322261 1573
14.9999997317791 1531
15.0199997313321 1598
15.039999730885 1566
15.059999730438 1645
15.079999729991 1632
15.0999997295439 1624
15.1199997290969 1627
15.1399997286499 1580
15.1599997282028 1564
15.1799997277558 1596
15.1999997273088 1600
15.2199997268617 1571
15.2399997264147 1638
15.2599997259676 1581
15.2799997255206 1625
15.2999997250736 1651
15.3199997246265 1631
15.3399997241795 1652
15.3599997237325 1686
15.3799997232854 1740
15.3999997228384 1688
15.4199997223914 1702
15.4399997219443 1673
15.4599997214973 1669
15.4799997210503 1665
15.4999997206032 1676
15.5199997201562 1604
15.5399997197092 1719
15.5599997192621 1725
15.5799997188151 1671
15.5999997183681 1706
15.619999717921 1680
15.639999717474 1786
15.659999717027 1675
15.6799997165799 1720
15.6999997161329 1767
15.7199997156858 1696
15.7399997152388 1752
15.7599997147918 1719
15.7799997143447 1773
15.7999997138977 1729
15.8199997134507 1680
15.8399997130036 1764
15.8599997125566 1776
15.8799997121096 1765
15.8999997116625 1816
15.9199997112155 1789
15.9399997107685 1866
15.9599997103214 1720
15.9799997098744 1764
15.9999997094274 1797
16.0199997089803 1808
16.0399997085333 1819
16.0599997080863 1877
16.0799997076392 1839
16.0999997071922 1862
16.1199997067451 1825
16.1399997062981 1794
16.1599997058511 1890
16.179999705404 1872
16.199999704957 1921
16.21999970451 1918
16.2399997040629 1899
16.2599997036159 1854
16.2799997031689 1835
16.2999997027218 1917
16.3199997022748 1968
16.3399997018278 1940
16.3599997013807 1949
16.3799997009337 1968
16.3999997004867 1949
16.4199997000396 1958
16.4399996995926 2070
16.4599996991456 1993
16.4799996986985 2005
16.4999996982515 1981
16.5199996978045 1987
16.5399996973574 2003
16.5599996969104 2134
16.5799996964633 2031
16.5999996960163 2046
16.6199996955693 2081
16.6399996951222 2167
16.6599996946752 2146
16.6799996942282 2063
16.6999996937811 2189
16.7199996933341 2189
16.7399996928871 2318
16.75999969244 2339
16.779999691993 2394
16.799999691546 2431
16.8199996910989 2573
16.8399996906519 2652
16.8599996902049 2865
16.8799996897578 3027
16.8999996893108 3236
16.9199996888638 3622
16.9399996884167 4040
16.9599996879697 4679
16.9799996875226 5500
16.9999996870756 6523
17.0199996866286 7855
17.0399996861815 9850
17.0599996857345 12444
17.0799996852875 12949
17.0999996848404 9640
17.1199996843934 7117
17.1399996839464 4576
17.1599996834993 3044
17.1799996830523 2587
17.1999996826053 2492
17.2199996821582 2438
17.2399996817112 2384
17.2599996812642 2366
17.2799996808171 2281
17.2999996803701 2344
17.3199996799231 2391
17.339999679476 2269
17.359999679029 2292
17.379999678582 2222
17.3999996781349 2305
17.4199996776879 2288
17.4399996772408 2306
17.4599996767938 2351
17.4799996763468 2311
17.4999996758997 2255
17.5199996754527 2319
17.5399996750057 2353
17.5599996745586 2383
17.5799996741116 2331
17.5999996736646 2391
17.6199996732175 2270
17.6399996727705 2348
17.6599996723235 2366
17.6799996718764 2330
17.6999996714294 2386
17.7199996709824 2354
17.7399996705353 2384
17.7599996700883 2371
17.7799996696413 2355
17.7999996691942 2297
17.8199996687472 2473
17.8399996683002 2457
17.8599996678531 2438
17.8799996674061 2431
17.899999666959 2392
17.919999666512 2498
17.939999666065 2483
17.9599996656179 2555
17.9799996651709 2439
17.9999996647239 2478
18.0199996642768 2482
18.0399996638298 2454
18.0599996633828 2497
18.0799996629357 2528
18.0999996624887 2447
18.1199996620417 2487
18.1399996615946 2590
18.1599996611476 2453
18.1799996607006 2525
18.1999996602535 2491
18.2199996598065 2517
18.2399996593595 2584
18.2599996589124 2602
18.2799996584654 2550
18.2999996580184 2573
18.3199996575713 2610
18.3399996571243 2588
18.3599996566772 2650
18.3799996562302 2555
18.3999996557832 2619
18.4199996553361 2632
18.4399996548891 2617
18.4599996544421 2595
18.479999653995 2623
18.499999653548 2660
18.519999653101 2630
18.5399996526539 2755
18.5599996522069 2528
18.5799996517599 2730
18.5999996513128 2693
18.6199996508658 2593
18.6399996504188 2698
18.6599996499717 2705
18.6799996495247 2748
18.6999996490777 2743
18.7199996486306 2639
18.7399996481836 2703
18.7599996477366 2726
18.7799996472895 2788
18.7999996468425 2737
18.8199996463954 2750
18.8399996459484 2737
18.8599996455014 2789
18.8799996450543 2782
18.8999996446073 2848
18.9199996441603 2792
18.9399996437132 2860
18.9599996432662 2824
18.9799996428192 2829
18.9999996423721 2814
19.0199996419251 2808
19.0399996414781 2788
19.059999641031 2817
19.079999640584 2776
19.099999640137 2846
19.1199996396899 2852
19.1399996392429 2784
19.1599996387959 2871
19.1799996383488 2908
19.1999996379018 2830
19.2199996374547 2925
19.2399996370077 2902
19.2599996365607 2881
19.2799996361136 2926
19.2999996356666 2907
19.3199996352196 2904
19.3399996347725 2977
19.3599996343255 2931
19.3799996338785 2937
19.3999996334314 2947
19.4199996329844 2960
19.4399996325374 2911
19.4599996320903 2887
19.4799996316433 2973
19.4999996311963 2927
19.5199996307492 2945
19.5399996303022 2928
19.5599996298552 2890
19.5799996294081 2962
19.5999996289611 3019
19.6199996285141 2974
19.639999628067 2950
19.65999962762 2984
19.6799996271729 3031
19.6999996267259 2920
19.7199996262789 3024
19.7399996258318 2980
19.7599996253848 3085
19.7799996249378 3075
19.7999996244907 3041
19.8199996240437 3065
19.8399996235967 3067
19.8599996231496 3023
19.8799996227026 3003
19.8999996222556 3066
19.9199996218085 3067
19.9399996213615 3023
19.9599996209145 3114
19.9799996204674 3091
19.9999996200204 3005
20.0199996195734 3032
20.0399996191263 3031
20.0599996186793 3068
20.0799996182322 3044
20.0999996177852 3032
20.1199996173382 3121
20.1399996168911 3058
20.1599996164441 3062
20.1799996159971 3071
20.19999961555 3064
20.219999615103 3097
20.239999614656 3093
20.2599996142089 3047
20.2799996137619 3118
20.2999996133149 3130
20.3199996128678 3038
20.3399996124208 3145
20.3599996119738 3115
20.3799996115267 3065
20.3999996110797 3134
20.4199996106327 3128
20.4399996101856 3320
20.4599996097386 3156
20.4799996092916 3200
20.4999996088445 3097
20.5199996083975 3081
20.5399996079504 3098
20.5599996075034 3182
20.5799996070564 3157
20.5999996066093 3139
20.6199996061623 3089
20.6399996057153 3242
20.6599996052682 3182
20.6799996048212 3182
20.6999996043742 3212
20.7199996039271 3182
20.7399996034801 3142
20.7599996030331 3149
20.779999602586 3158
20.799999602139 3164
20.819999601692 3236
20.8399996012449 3133
20.8599996007979 3223
20.8799996003509 3281
20.8999995999038 3224
20.9199995994568 3113
20.9399995990098 3257
20.9599995985627 3242
20.9799995981157 3142
20.9999995976686 3126
21.0199995972216 3196
21.0399995967746 3152
21.0599995963275 3146
21.0799995958805 3116
21.0999995954335 3213
21.1199995949864 3239
21.1399995945394 3198
21.1599995940924 3228
21.1799995936453 3192
21.1999995931983 3123
21.2199995927513 3191
21.2399995923042 3028
21.2599995918572 3217
21.2799995914102 3192
21.2999995909631 3226
21.3199995905161 3275
21.3399995900691 3106
21.359999589622 3108
21.379999589175 3188
21.399999588728 3203
21.4199995882809 3103
21.4399995878339 3159
21.4599995873868 3117
21.4799995869398 3187
21.4999995864928 3141
21.5199995860457 3226
21.5399995855987 3109
21.5599995851517 3091
21.5799995847046 3144
21.5999995842576 3156
21.6199995838106 3181
21.6399995833635 3134
21.6599995829165 3213
21.6799995824695 3001
21.6999995820224 3052
21.7199995815754 3058
21.7399995811284 3105
21.7599995806813 3049
21.7799995802343 3119
21.7999995797873 3086
21.8199995793402 3095
21.8399995788932 3085
21.8599995784462 3059
21.8799995779991 3119
21.8999995775521 3130
21.919999577105 3050
21.939999576658 3022
21.959999576211 3052
21.9799995757639 3089
21.9999995753169 3187
22.0199995748699 3086
22.0399995744228 3089
22.0599995739758 3140
22.0799995735288 3087
22.0999995730817 3026
22.1199995726347 3131
22.1399995721877 3071
22.1599995717406 3072
22.1799995712936 3099
22.1999995708466 3024
22.2199995703995 2935
22.2399995699525 3106
22.2599995695055 3009
22.2799995690584 3022
22.2999995686114 3091
22.3199995681643 2994
22.3399995677173 3054
22.3599995672703 3094
22.3799995668232 2974
22.3999995663762 3091
22.4199995659292 3055
22.4399995654821 3033
22.4599995650351 3060
22.4799995645881 3039
22.499999564141 2918
22.519999563694 2933
22.539999563247 2989
22.5599995627999 3002
22.5799995623529 2928
22.5999995619059 2980
22.6199995614588 2930
22.6399995610118 2953
22.6599995605648 2858
22.6799995601177 2933
22.6999995596707 3046
22.7199995592237 3079
22.7399995587766 3023
22.7599995583296 2955
22.7799995578825 3010
22.7999995574355 2915
22.8199995569885 2922
22.8399995565414 2858
22.8599995560944 2872
22.8799995556474 2903
22.8999995552003 2883
22.9199995547533 2879
22.9399995543063 2945
22.9599995538592 2909
22.9799995534122 2915
22.9999995529652 2884
23.0199995525181 2876
23.0399995520711 2865
23.0599995516241 2907
23.079999551177 3010
23.09999955073 2870
23.119999550283 2908
23.1399995498359 2804
23.1599995493889 2820
23.1799995489418 2791
23.1999995484948 2895
23.2199995480478 2919
23.2399995476007 2834
23.2599995471537 2831
23.2799995467067 2831
23.2999995462596 2854
23.3199995458126 2808
23.3399995453656 2778
23.3599995449185 2807
23.3799995444715 2776
23.3999995440245 2797
23.4199995435774 2726
23.4399995431304 2934
23.4599995426834 2789
23.4799995422363 2901
23.4999995417893 2818
23.5199995413423 2797
23.5399995408952 2748
23.5599995404482 2809
23.5799995400012 2833
23.5999995395541 2789
23.6199995391071 2754
23.63999953866 2769
23.659999538213 2695
23.679999537766 2818
23.6999995373189 2760
23.7199995368719 2741
23.7399995364249 2806
23.7599995359778 2727
23.7799995355308 2777
23.7999995350838 2690
23.8199995346367 2794
23.8399995341897 2749
23.8599995337427 2670
23.8799995332956 2740
23.8999995328486 2694
23.9199995324016 2671
23.9399995319545 2655
23.9599995315075 2709
23.9799995310605 2711
23.9999995306134 2649
24.0199995301664 2666
24.0399995297194 2681
24.0599995292723 2702
24.0799995288253 2600
24.0999995283782 2646
24.1199995279312 2699
24.1399995274842 2704
24.1599995270371 2780
24.1799995265901 2741
24.1999995261431 2687
24.219999525696 2674
24.239999525249 2633
24.259999524802 2769
24.2799995243549 2864
24.2999995239079 2728
24.3199995234609 2832
24.3399995230138 2776
24.3599995225668 2869
24.3799995221198 3030
24.3999995216727 2961
24.4199995212257 2829
24.4399995207787 3020
24.4599995203316 3027
24.4799995198846 3159
24.4999995194376 3140
24.5199995189905 3244
24.5399995185435 3232
24.5599995180964 3235
24.5799995176494 3230
24.5999995172024 3202
24.6199995167553 3237
24.6399995163083 3067
24.6599995158613 3078
24.6799995154142 2964
24.6999995149672 2854
24.7199995145202 2860
24.7399995140731 2716
24.7599995136261 2716
24.7799995131791 2626
24.799999512732 2661
24.819999512285 2687
24.839999511838 2617
24.8599995113909 2661
24.8799995109439 2559
24.8999995104969 2550
24.9199995100498 2521
24.9399995096028 2655
24.9599995091558 2483
24.9799995087087 2631
24.9999995082617 2584
25.0199995078146 2664
25.0399995073676 2661
25.0599995069206 2698
25.0799995064735 2713
25.0999995060265 2726
25.1199995055795 2910
25.1399995051324 2906
25.1599995046854 3108
25.1799995042384 3271
25.1999995037913 3392
25.2199995033443 3698
25.2399995028973 3899
25.2599995024502 3945
25.2799995020032 4019
25.2999995015562 4205
25.3199995011091 4214
25.3399995006621 4160
25.3599995002151 4022
25.379999499768 3878
25.399999499321 3374
25.4199994988739 3169
25.4399994984269 2946
25.4599994979799 2819
25.4799994975328 2726
25.4999994970858 2688
25.5199994966388 2531
25.5399994961917 2536
25.5599994957447 2473
25.5799994952977 2399
25.5999994948506 2360
25.6199994944036 2347
25.6399994939566 2328
25.6599994935095 2374
25.6799994930625 2314
25.6999994926155 2302
25.7199994921684 2264
25.7399994917214 2275
25.7599994912744 2375
25.7799994908273 2324
25.7999994903803 2308
25.8199994899333 2298
25.8399994894862 2324
25.8599994890392 2256
25.8799994885921 2332
25.8999994881451 2293
25.9199994876981 2302
25.939999487251 2298
25.959999486804 2262
25.979999486357 2187
25.9999994859099 2260
26.0199994854629 2262
26.0399994850159 2271
26.0599994845688 2245
26.0799994841218 2295
26.0999994836748 2265
26.1199994832277 2238
26.1399994827807 2234
26.1599994823337 2250
26.1799994818866 2291
26.1999994814396 2166
26.2199994809926 2240
26.2399994805455 2164
26.2599994800985 2206
26.2799994796514 2219
26.2999994792044 2090
26.3199994787574 2203
26.3399994783103 2220
26.3599994778633 2232
26.3799994774163 2120
26.3999994769692 2267
26.4199994765222 2211
26.4399994760752 2174
26.4599994756281 2226
26.4799994751811 2206
26.4999994747341 2316
26.519999474287 2310
26.53999947384 2261
26.559999473393 2269
26.5799994729459 2320
26.5999994724989 2347
26.6199994720519 2552
26.6399994716048 2404
26.6599994711578 2568
26.6799994707108 2711
26.6999994702637 2753
26.7199994698167 2804
26.7399994693697 2858
26.7599994689226 3005
26.7799994684756 2973
26.7999994680285 2978
26.8199994675815 3166
26.8399994671345 3298
26.8599994666874 3431
26.8799994662404 3398
26.8999994657934 3503
26.9199994653463 3523
26.9399994648993 3483
26.9599994644523 3421
26.9799994640052 3268
26.9999994635582 3072
27.0199994631112 2907
27.0399994626641 2759
27.0599994622171 2574
27.0799994617701 2501
27.099999461323 2407
27.119999460876 2363
27.139999460429 2247
27.1599994599819 2260
27.1799994595349 2204
27.1999994590878 2118
27.2199994586408 2102
27.2399994581938 2133
27.2599994577467 2079
27.2799994572997 2073
27.2999994568527 2079
27.3199994564056 2042
27.3399994559586 2079
27.3599994555116 2049
27.3799994550645 1953
27.3999994546175 2073
27.4199994541705 2092
27.4399994537234 2048
27.4599994532764 1997
27.4799994528294 1988
27.4999994523823 2036
27.5199994519353 2005
27.5399994514883 1974
27.5599994510412 1935
27.5799994505942 1979
27.5999994501472 1978
27.6199994497001 1957
27.6399994492531 1966
27.659999448806 1861
27.679999448359 1970
27.699999447912 2014
27.7199994474649 1976
27.7399994470179 1950
27.7599994465709 1857
27.7799994461238 2000
27.7999994456768 1959
27.8199994452298 2003
27.8399994447827 1946
27.8599994443357 2010
27.8799994438887 1976
27.8999994434416 1888
27.9199994429946 1946
27.9399994425476 1888
27.9599994421005 1962
27.9799994416535 1899
27.9999994412065 1933
28.0199994407594 1882
28.0399994403124 1913
28.0599994398654 2007
28.0799994394183 1979
28.0999994389713 1961
28.1199994385242 2009
28.1399994380772 2048
28.1599994376302 1993
28.1799994371831 2048
28.1999994367361 2009
28.2199994362891 1938
28.239999435842 1924
28.259999435395 2012
28.279999434948 1870
28.2999994345009 1902
28.3199994340539 1919
28.3399994336069 1852
28.3599994331598 1896
28.3799994327128 1928
28.3999994322658 1824
28.4199994318187 1894
28.4399994313717 1864
28.4599994309247 1869
28.4799994304776 1854
28.4999994300306 1867
28.5199994295835 1880
28.5399994291365 1934
28.5599994286895 1867
28.5799994282424 1893
28.5999994277954 1909
28.6199994273484 1923
28.6399994269013 1968
28.6599994264543 1930
28.6799994260073 1966
28.6999994255602 1895
28.7199994251132 1791
28.7399994246662 1804
28.7599994242191 1843
28.7799994237721 1886
28.7999994233251 1797
28.819999422878 1808
28.839999422431 1863
28.859999421984 1836
28.8799994215369 1903
28.8999994210899 1874
28.9199994206429 1831
28.9399994201958 1847
28.9599994197488 1881
28.9799994193017 1925
28.9999994188547 1859
29.0199994184077 1846
29.0399994179606 1972
29.0599994175136 1970
29.0799994170666 1837
29.0999994166195 1915
29.1199994161725 1960
29.1399994157255 2002
29.1599994152784 2025
29.1799994148314 2037
29.1999994143844 2033
29.2199994139373 2054
29.2399994134903 2089
29.2599994130433 1992
29.2799994125962 1991
29.2999994121492 1989
29.3199994117022 1916
29.3399994112551 1991
29.3599994108081 2021
29.379999410361 1902
29.399999409914 1809
29.419999409467 1805
29.4399994090199 1811
29.4599994085729 1803
29.4799994081259 1752
29.4999994076788 1749
29.5199994072318 1725
29.5399994067848 1790
29.5599994063377 1731
29.5799994058907 1825
29.5999994054437 1678
29.6199994049966 1715
29.6399994045496 1725
29.6599994041026 1707
29.6799994036555 1712
29.6999994032085 1712
29.7199994027615 1711
29.7399994023144 1613
29.7599994018674 1643
29.7799994014204 1643
29.7999994009733 1702
29.8199994005263 1654
29.8399994000793 1658
29.8599993996322 1706
29.8799993991852 1650
29.8999993987381 1643
29.9199993982911 1657
29.9399993978441 1708
29.959999397397 1667
29.97999939695 1617
29.999999396503 1682
