3 1718
3.01999999955297 1585
3.03999999910593 1510
3.0599999986589 1483
3.07999999821186 1370
3.09999999776483 1386
3.11999999731779 1279
3.13999999687076 1204
3.15999999642372 1210
3.17999999597669 1256
3.19999999552965 1238
3.21999999508262 1283
3.23999999463558 1215
3.25999999418855 1218
3.27999999374151 1219
3.29999999329448 1189
3.31999999284744 1136
3.33999999240041 1213
3.35999999195337 1166
3.37999999150634 1222
3.3999999910593 1168
3.41999999061227 1120
3.43999999016523 1117
3.4599999897182 1145
3.47999998927116 1183
3.49999998882413 1164
3.51999998837709 1173
3.53999998793006 1118
3.55999998748302 1086
3.57999998703599 1114
3.59999998658895 1089
3.61999998614192 1101
3.63999998569489 1150
3.65999998524785 1115
3.67999998480082 1074
3.69999998435378 1081
3.71999998390675 1076
3.73999998345971 1125
3.75999998301268 1135
3.77999998256564 1142
3.79999998211861 1115
3.81999998167157 1121
3.83999998122454 1033
3.8599999807775 1100
3.87999998033047 1119
3.89999997988343 1123
3.9199999794364 1151
3.93999997898936 1194
3.95999997854233 1160
3.97999997809529 1171
3.99999997764826 1189
4.01999997720122 1261
4.03999997675419 1219
4.05999997630715 1264
4.07999997586012 1323
4.09999997541308 1334
4.11999997496605 1304
4.13999997451901 1415
4.15999997407198 1356
4.17999997362494 1385
4.19999997317791 1306
4.21999997273087 1278
4.23999997228384 1247
4.25999997183681 1234
4.27999997138977 1091
4.29999997094274 1090
4.3199999704957 1005
4.33999997004867 998
4.35999996960163 994
4.3799999691546 915
4.39999996870756 963
4.41999996826053 915
4.43999996781349 943
4.45999996736646 905
4.47999996691942 910
4.49999996647239 940
4.51999996602535 915
4.53999996557832 937
4.55999996513128 866
4.57999996468425 932
4.59999996423721 950
4.61999996379018 956
4.63999996334314 886
4.65999996289611 947
4.67999996244907 964
4.69999996200204 967
4.719999961555 950
4.73999996110797 949
4.75999996066093 1004
4.7799999602139 975
4.79999995976686 1026
4.81999995931983 1048
4.83999995887279 1008
4.85999995842576 1068
4.87999995797873 1115
4.89999995753169 1069
4.91999995708466 1122
4.93999995663762 1200
4.95999995619059 1244
4.97999995574355 1198
4.99999995529652 1296
5.01999995484948 1222
5.03999995440245 1259
5.05999995395541 1307
5.07999995350838 1340
5.09999995306134 1417
5.11999995261431 1494
5.13999995216727 1553
5.15999995172024 1594
5.1799999512732 1714
5.19999995082617 1680
5.21999995037913 1866
5.2399999499321 1916
5.25999994948506 2136
5.27999994903803 2244
5.29999994859099 2308
5.31999994814396 2440
5.33999994769692 2608
5.35999994724989 2832
5.37999994680285 2961
5.39999994635582 3426
5.41999994590878 3688
5.43999994546175 3944
5.45999994501471 4303
5.47999994456768 4423
5.49999994412065 4552
5.51999994367361 4279
5.53999994322658 3882
5.55999994277954 3372
5.57999994233251 3179
5.59999994188547 3055
5.61999994143844 3049
5.6399999409914 3197
5.65999994054437 3242
5.67999994009733 3404
5.6999999396503 3669
5.71999993920326 3998
5.73999993875623 4267
5.75999993830919 4692
5.77999993786216 4997
5.79999993741512 5254
5.81999993696809 5568
5.83999993652105 5601
5.85999993607402 5311
5.87999993562698 4717
5.89999993517995 3754
5.91999993473291 2877
5.93999993428588 2129
5.95999993383884 1650
5.97999993339181 1474
5.99999993294477 1214
6.01999993249774 1155
6.0399999320507 1065
6.05999993160367 1031
6.07999993115663 983
6.0999999307096 931
6.11999993026257 979
6.13999992981553 936
6.1599999293685 911
6.17999992892146 917
6.19999992847443 958
6.21999992802739 918
6.23999992758036 940
6.25999992713332 895
6.27999992668629 902
6.29999992623925 899
6.31999992579222 864
6.33999992534518 855
6.35999992489815 874
6.37999992445111 869
6.39999992400408 908
6.41999992355704 864
6.43999992311001 857
6.45999992266297 834
6.47999992221594 966
6.4999999217689 960
6.51999992132187 930
6.53999992087483 887
6.5599999204278 953
6.57999991998076 927
6.59999991953373 923
6.61999991908669 980
6.63999991863966 993
6.65999991819262 997
6.67999991774559 987
6.69999991729855 1099
6.71999991685152 1171
6.73999991640449 1130
6.75999991595745 1214
6.77999991551042 1167
6.79999991506338 1248
6.81999991461635 1234
6.83999991416931 1144
6.85999991372228 1092
6.87999991327524 1046
6.89999991282821 1072
6.91999991238117 983
6.93999991193414 901
6.9599999114871 893
6.97999991104007 856
6.99999991059303 794
7.019999910146 820
7.03999990969896 805
7.05999990925193 813
7.07999990880489 797
7.09999990835786 823
7.11999990791082 809
7.13999990746379 801
7.15999990701675 858
7.17999990656972 739
7.19999990612268 746
7.21999990567565 750
7.23999990522861 758
7.25999990478158 732
7.27999990433454 773
7.29999990388751 782
7.31999990344047 786
7.33999990299344 754
7.35999990254641 752
7.37999990209937 747
7.39999990165234 771
7.4199999012053 812
7.43999990075827 797
7.45999990031123 767
7.4799998998642 735
7.49999989941716 774
7.51999989897013 781
7.53999989852309 757
7.55999989807606 769
7.57999989762902 801
7.59999989718199 740
7.61999989673495 768
7.63999989628792 751
7.65999989584088 762
7.67999989539385 789
7.69999989494681 765
7.71999989449978 788
7.73999989405274 776
7.75999989360571 742
7.77999989315867 822
7.79999989271164 714
7.8199998922646 740
7.83999989181757 815
7.85999989137053 775
7.8799998909235 767
7.89999989047646 783
7.91999989002943 808
7.9399998895824 782
7.95999988913536 733
7.97999988868833 760
7.99999988824129 838
8.01999988779426 773
8.03999988734722 797
8.05999988690019 775
8.07999988645315 834
8.09999988600612 826
8.11999988555908 808
8.13999988511205 827
8.15999988466501 875
8.17999988421798 842
8.19999988377094 825
8.21999988332391 878
8.23999988287687 863
8.25999988242984 787
8.2799998819828 792
8.29999988153577 788
8.31999988108873 775
8.3399998806417 773
8.35999988019466 762
8.37999987974763 778
8.39999987930059 738
8.41999987885356 800
8.43999987840652 764
8.45999987795949 785
8.47999987751245 723
8.49999987706542 706
8.51999987661839 721
8.53999987617135 727
8.55999987572432 756
8.57999987527728 748
8.59999987483025 757
8.61999987438321 770
8.63999987393618 778
8.65999987348914 721
8.67999987304211 736
8.69999987259507 755
8.71999987214804 767
8.739999871701 821
8.75999987125397 752
8.77999987080693 780
8.7999998703599 783
8.81999986991286 807
8.83999986946583 783
8.85999986901879 773
8.87999986857176 839
8.89999986812472 835
8.91999986767769 818
8.93999986723065 832
8.95999986678362 875
8.97999986633658 901
8.99999986588955 902
9.01999986544251 925
9.03999986499548 945
9.05999986454844 948
9.07999986410141 989
9.09999986365438 1022
9.11999986320734 1041
9.13999986276031 1137
9.15999986231327 1152
9.17999986186624 1242
9.1999998614192 1341
9.21999986097217 1402
9.23999986052513 1543
9.2599998600781 1644
9.27999985963106 1755
9.29999985918403 2005
9.31999985873699 2071
9.33999985828996 2312
9.35999985784292 2410
9.37999985739589 2405
9.39999985694885 2338
9.41999985650182 2180
9.43999985605478 1847
9.45999985560775 1641
9.47999985516071 1316
9.49999985471368 1127
9.51999985426664 952
9.53999985381961 857
9.55999985337257 874
9.57999985292554 846
9.5999998524785 825
9.61999985203147 817
9.63999985158443 834
9.6599998511374 836
9.67999985069037 775
9.69999985024333 792
9.7199998497963 823
9.73999984934926 819
9.75999984890223 776
9.77999984845519 861
9.79999984800816 872
9.81999984756112 748
9.83999984711409 800
9.85999984666705 814
9.87999984622002 814
9.89999984577298 775
9.91999984532595 853
9.93999984487891 859
9.95999984443188 855
9.97999984398484 916
9.99999984353781 862
10.0199998430908 919
10.0399998426437 973
10.0599998421967 916
10.0799998417497 902
10.0999998413026 961
10.1199998408556 1061
10.1399998404086 1088
10.1599998399615 1087
10.1799998395145 1149
10.1999998390675 1209
10.2199998386204 1167
10.2399998381734 1172
10.2599998377264 1125
10.2799998372793 1092
10.2999998368323 989
10.3199998363853 943
10.3399998359382 923
10.3599998354912 842
10.3799998350441 824
10.3999998345971 837
10.4199998341501 789
10.439999833703 834
10.459999833256 802
10.479999832809 793
10.4999998323619 831
10.5199998319149 845
10.5399998314679 845
10.5599998310208 908
10.5799998305738 873
10.5999998301268 899
10.6199998296797 956
10.6399998292327 958
10.6599998287857 1002
10.6799998283386 988
10.6999998278916 1047
10.7199998274446 1096
10.7399998269975 1233
10.7599998265505 1241
10.7799998261034 1322
10.7999998256564 1363
10.8199998252094 1389
10.8399998247623 1459
10.8599998243153 1483
10.8799998238683 1408
10.8999998234212 1452
10.9199998229742 1472
10.9399998225272 1516
10.9599998220801 1682
10.9799998216331 1705
10.9999998211861 1721
11.019999820739 1624
11.039999820292 1488
11.059999819845 1344
11.0799998193979 1213
11.0999998189509 1093
11.1199998185039 1024
11.1399998180568 912
11.1599998176098 820
11.1799998171628 878
11.1999998167157 812
11.2199998162687 805
11.2399998158216 830
11.2599998153746 852
11.2799998149276 799
11.2999998144805 794
11.3199998140335 823
11.3399998135865 882
11.3599998131394 849
11.3799998126924 913
11.3999998122454 908
11.4199998117983 934
11.4399998113513 918
11.4599998109043 1014
11.4799998104572 1015
11.4999998100102 1064
11.5199998095632 1071
11.5399998091161 1164
11.5599998086691 1131
11.5799998082221 1069
11.599999807775 1025
11.619999807328 968
11.639999806881 988
11.6599998064339 934
11.6799998059869 874
11.6999998055398 849
11.7199998050928 796
11.7399998046458 841
11.7599998041987 798
11.7799998037517 778
11.7999998033047 796
11.8199998028576 805
11.8399998024106 735
11.8599998019636 789
11.8799998015165 737
11.8999998010695 793
11.9199998006225 734
11.9399998001754 783
11.9599997997284 786
11.9799997992814 789
11.9999997988343 787
12.0199997983873 817
12.0399997979403 796
12.0599997974932 836
12.0799997970462 821
12.0999997965992 856
12.1199997961521 861
12.1399997957051 918
12.159999795258 904
12.179999794811 907
12.199999794364 897
12.2199997939169 928
12.2399997934699 962
12.2599997930229 927
12.2799997925758 1034
12.2999997921288 952
12.3199997916818 961
12.3399997912347 922
12.3599997907877 881
12.3799997903407 880
12.3999997898936 815
12.4199997894466 829
12.4399997889996 805
12.4599997885525 799
12.4799997881055 828
12.4999997876585 828
12.5199997872114 747
12.5399997867644 773
12.5599997863173 790
12.5799997858703 760
12.5999997854233 824
12.6199997849762 800
12.6399997845292 769
12.6599997840822 785
12.6799997836351 774
12.6999997831881 749
12.7199997827411 792
12.739999782294 767
12.759999781847 787
12.7799997814 770
12.7999997809529 798
12.8199997805059 791
12.8399997800589 783
12.8599997796118 754
12.8799997791648 814
12.8999997787178 799
12.9199997782707 790
12.9399997778237 783
12.9599997773767 781
12.9799997769296 762
12.9999997764826 816
13.0199997760355 774
13.0399997755885 788
13.0599997751415 784
13.0799997746944 756
13.0999997742474 838
13.1199997738004 831
13.1399997733533 764
13.1599997729063 819
13.1799997724593 784
13.1999997720122 837
13.2199997715652 787
13.2399997711182 835
13.2599997706711 838
13.2799997702241 834
13.2999997697771 849
13.31999976933 846
13.339999768883 854
13.359999768436 873
13.3799997679889 863
13.3999997675419 877
13.4199997670949 858
13.4399997666478 829
13.4599997662008 843
13.4799997657537 897
13.4999997653067 849
13.5199997648597 933
13.5399997644126 856
13.5599997639656 917
13.5799997635186 822
13.5999997630715 883
13.6199997626245 799
13.6399997621775 853
13.6599997617304 848
13.6799997612834 804
13.6999997608364 849
13.7199997603893 808
13.7399997599423 812
13.7599997594953 847
13.7799997590482 875
13.7999997586012 818
13.8199997581542 765
13.8399997577071 845
13.8599997572601 851
13.879999756813 837
13.899999756366 799
13.919999755919 831
13.9399997554719 838
13.9599997550249 827
13.9799997545779 853
13.9999997541308 843
14.0199997536838 821
14.0399997532368 829
14.0599997527897 801
14.0799997523427 822
14.0999997518957 882
14.1199997514486 840
14.1399997510016 886
14.1599997505546 868
14.1799997501075 877
14.1999997496605 871
14.2199997492135 853
14.2399997487664 934
14.2599997483194 946
14.2799997478724 904
14.2999997474253 941
14.3199997469783 988
14.3399997465312 931
14.3599997460842 919
14.3799997456372 953
14.3999997451901 937
14.4199997447431 972
14.4399997442961 940
14.459999743849 984
14.479999743402 912
14.499999742955 922
14.5199997425079 891
14.5399997420609 940
14.5599997416139 893
14.5799997411668 929
14.5999997407198 889
14.6199997402728 973
14.6399997398257 871
14.6599997393787 968
14.6799997389317 924
14.6999997384846 865
14.7199997380376 941
14.7399997375906 941
14.7599997371435 967
14.7799997366965 998
14.7999997362494 985
14.8199997358024 979
14.8399997353554 1077
14.8599997349083 983
14.8799997344613 1016
14.8999997340143 997
14.9199997335672 990
14.9399997331202 980
14.9599997326732 1026
14.9799997322261 956
14.9999997317791 972
15.0199997313321 964
15.039999730885 931
15.059999730438 983
15.079999729991 909
15.0999997295439 956
15.1199997290969 917
15.1399997286499 1001
15.1599997282028 991
15.1799997277558 990
15.1999997273088 1014
15.2199997268617 1001
15.2399997264147 1044
15.2599997259676 1006
15.2799997255206 1076
15.2999997250736 1010
15.3199997246265 979
15.3399997241795 945
15.3599997237325 965
15.3799997232854 968
15.3999997228384 1015
15.4199997223914 974
15.4399997219443 1017
15.4599997214973 962
15.4799997210503 985
15.4999997206032 976
15.5199997201562 968
15.5399997197092 1031
15.5599997192621 1022
15.5799997188151 889
15.5999997183681 933
15.619999717921 991
15.639999717474 978
15.659999717027 1004
15.6799997165799 1011
15.6999997161329 984
15.7199997156858 958
15.7399997152388 1035
15.7599997147918 1017
15.7799997143447 1080
15.7999997138977 1034
15.8199997134507 1023
15.8399997130036 1049
15.8599997125566 1032
15.8799997121096 983
15.8999997116625 1044
15.9199997112155 1002
15.9399997107685 1008
15.9599997103214 1017
15.9799997098744 994
15.9999997094274 1079
16.0199997089803 1046
16.0399997085333 1043
16.0599997080863 1000
16.0799997076392 1063
16.0999997071922 1043
16.1199997067451 1095
16.1399997062981 1081
16.1599997058511 1055
16.179999705404 1078
16.199999704957 1140
16.21999970451 1098
16.2399997040629 1180
16.2599997036159 1126
16.2799997031689 1180
16.2999997027218 1198
16.3199997022748 1191
16.3399997018278 1189
16.3599997013807 1173
16.3799997009337 1200
16.3999997004867 1128
16.4199997000396 1169
16.4399996995926 1129
16.4599996991456 1127
16.4799996986985 1162
16.4999996982515 1147
16.5199996978045 1144
16.5399996973574 1175
16.5599996969104 1164
16.5799996964633 1151
16.5999996960163 1127
16.6199996955693 1024
16.6399996951222 1117
16.6599996946752 1138
16.6799996942282 1131
16.6999996937811 1107
16.7199996933341 1100
16.7399996928871 1054
16.75999969244 1113
16.779999691993 1178
16.799999691546 1098
16.8199996910989 1131
16.8399996906519 1134
16.8599996902049 1203
16.8799996897578 1111
16.8999996893108 1157
16.9199996888638 1220
16.9399996884167 1178
16.9599996879697 1264
16.9799996875226 1275
16.9999996870756 1217
17.0199996866286 1277
17.0399996861815 1322
17.0599996857345 1225
17.0799996852875 1256
17.0999996848404 1257
17.1199996843934 1233
17.1399996839464 1141
17.1599996834993 1229
17.1799996830523 1222
17.1999996826053 1219
17.2199996821582 1222
17.2399996817112 1299
17.2599996812642 1272
17.2799996808171 1277
17.2999996803701 1330
17.3199996799231 1264
17.339999679476 1287
17.359999679029 1272
17.379999678582 1293
17.3999996781349 1295
17.4199996776879 1276
17.4399996772408 1285
17.4599996767938 1199
17.4799996763468 1266
17.4999996758997 1261
17.5199996754527 1284
17.5399996750057 1302
17.5599996745586 1273
17.5799996741116 1271
17.5999996736646 1279
17.6199996732175 1329
17.6399996727705 1303
17.6599996723235 1298
17.6799996718764 1322
17.6999996714294 1295
17.7199996709824 1238
17.7399996705353 1333
17.7599996700883 1233
17.7799996696413 1261
17.7999996691942 1372
17.8199996687472 1329
17.8399996683002 1345
17.8599996678531 1403
17.8799996674061 1402
17.899999666959 1419
17.919999666512 1399
17.939999666065 1333
17.9599996656179 1365
17.9799996651709 1347
17.9999996647239 1398
18.0199996642768 1282
18.0399996638298 1377
18.0599996633828 1387
18.0799996629357 1352
18.0999996624887 1312
18.1199996620417 1307
18.1399996615946 1297
18.1599996611476 1350
18.1799996607006 1371
18.1999996602535 1394
18.2199996598065 1394
18.2399996593595 1368
18.2599996589124 1387
18.2799996584654 1357
18.2999996580184 1336
18.3199996575713 1348
18.3399996571243 1423
18.3599996566772 1349
18.3799996562302 1393
18.3999996557832 1428
18.4199996553361 1429
18.4399996548891 1479
18.4599996544421 1384
18.479999653995 1400
18.499999653548 1400
18.519999653101 1345
18.5399996526539 1484
18.5599996522069 1477
18.5799996517599 1457
18.5999996513128 1450
18.6199996508658 1450
18.6399996504188 1496
18.6599996499717 1556
18.6799996495247 1476
18.6999996490777 1516
18.7199996486306 1539
18.7399996481836 1651
18.7599996477366 1588
18.7799996472895 1626
18.7999996468425 1593
18.8199996463954 1596
18.8399996459484 1594
18.8599996455014 1593
18.8799996450543 1545
18.8999996446073 1575
18.9199996441603 1543
18.9399996437132 1538
18.9599996432662 1572
18.9799996428192 1570
18.9999996423721 1604
19.0199996419251 1560
19.0399996414781 1610
19.059999641031 1539
19.079999640584 1611
19.099999640137 1715
19.1199996396899 1800
19.1399996392429 1834
19.1599996387959 1773
19.1799996383488 1786
19.1999996379018 1763
19.2199996374547 1703
19.2399996370077 1708
19.2599996365607 1623
19.2799996361136 1675
19.2999996356666 1639
19.3199996352196 1638
19.3399996347725 1610
19.3599996343255 1643
19.3799996338785 1715
19.3999996334314 1653
19.4199996329844 1796
19.4399996325374 1754
19.4599996320903 1905
19.4799996316433 1870
19.4999996311963 1856
19.5199996307492 1902
19.5399996303022 1916
19.5599996298552 1928
19.5799996294081 2047
19.5999996289611 2014
19.6199996285141 1912
19.639999628067 1793
19.65999962762 1850
19.6799996271729 1722
19.6999996267259 1721
19.7199996262789 1643
19.7399996258318 1647
19.7599996253848 1643
19.7799996249378 1686
19.7999996244907 1621
19.8199996240437 1677
19.8399996235967 1699
19.8599996231496 1796
19.8799996227026 1795
19.8999996222556 1852
19.9199996218085 1781
19.9399996213615 1689
19.9599996209145 1660
19.9799996204674 1719
19.9999996200204 1690
20.0199996195734 1686
20.0399996191263 1678
20.0599996186793 1727
20.0799996182322 1619
20.0999996177852 1711
20.1199996173382 1728
20.1399996168911 1701
20.1599996164441 1713
20.1799996159971 1737
20.19999961555 1819
20.219999615103 1723
20.239999614656 1743
20.2599996142089 1746
20.2799996137619 1780
20.2999996133149 1857
20.3199996128678 1854
20.3399996124208 1816
20.3599996119738 1835
20.3799996115267 1792
20.3999996110797 1714
20.4199996106327 1836
20.4399996101856 1858
20.4599996097386 1739
20.4799996092916 1852
20.4999996088445 1739
20.5199996083975 1698
20.5399996079504 1705
20.5599996075034 1735
20.5799996070564 1796
20.5999996066093 1701
20.6199996061623 1748
20.6399996057153 1766
20.6599996052682 1796
20.6799996048212 1694
20.6999996043742 1774
20.7199996039271 1722
20.7399996034801 1745
20.7599996030331 1735
20.779999602586 1715
20.799999602139 1772
20.819999601692 1740
20.8399996012449 1709
20.8599996007979 1672
20.8799996003509 1770
20.8999995999038 1709
20.9199995994568 1666
20.9399995990098 1803
20.9599995985627 1671
20.9799995981157 1767
20.9999995976686 1698
21.0199995972216 1825
21.0399995967746 1737
21.0599995963275 1799
21.0799995958805 1772
21.0999995954335 1756
21.1199995949864 1782
21.1399995945394 1769
21.1599995940924 1790
21.1799995936453 1799
21.1999995931983 1833
21.2199995927513 1692
21.2399995923042 1707
21.2599995918572 1664
21.2799995914102 1744
21.2999995909631 1763
21.3199995905161 1751
21.3399995900691 1702
21.359999589622 1714
21.379999589175 1755
21.399999588728 1668
21.4199995882809 1676
21.4399995878339 1701
21.4599995873868 1705
21.4799995869398 1806
21.4999995864928 1801
21.5199995860457 1723
21.5399995855987 1787
21.5599995851517 1771
21.5799995847046 1741
21.5999995842576 1758
21.6199995838106 1753
21.6399995833635 1794
21.6599995829165 1701
21.6799995824695 1744
21.6999995820224 1796
21.7199995815754 1767
21.7399995811284 1759
21.7599995806813 1717
21.7799995802343 1769
21.7999995797873 1773
21.8199995793402 1828
21.8399995788932 1810
21.8599995784462 1768
21.8799995779991 1772
21.8999995775521 1778
21.919999577105 1799
21.939999576658 1846
21.959999576211 1893
21.9799995757639 1931
21.9999995753169 1902
22.0199995748699 1906
22.0399995744228 1882
22.0599995739758 1895
22.0799995735288 1805
22.0999995730817 1822
22.1199995726347 1791
22.1399995721877 1792
22.1599995717406 1771
22.1799995712936 1721
22.1999995708466 1709
22.2199995703995 1691
22.2399995699525 1719
22.2599995695055 1748
22.2799995690584 1728
22.2999995686114 1758
22.3199995681643 1746
22.3399995677173 1723
22.3599995672703 1670
22.3799995668232 1710
22.3999995663762 1701
22.4199995659292 1762
22.4399995654821 1812
22.4599995650351 1743
22.4799995645881 1806
22.499999564141 1789
22.519999563694 1847
22.539999563247 1760
22.5599995627999 1798
22.5799995623529 1699
22.5999995619059 1746
22.6199995614588 1735
22.6399995610118 1708
22.6599995605648 1707
22.6799995601177 1699
22.6999995596707 1655
22.7199995592237 1704
22.7399995587766 1672
22.7599995583296 1680
22.7799995578825 1665
22.7999995574355 1691
22.8199995569885 1698
22.8399995565414 1706
22.8599995560944 1684
22.8799995556474 1726
22.8999995552003 1747
22.9199995547533 1725
22.9399995543063 1724
22.9599995538592 1650
22.9799995534122 1705
22.9999995529652 1682
23.0199995525181 1704
23.0399995520711 1768
23.0599995516241 1845
23.079999551177 1819
23.09999955073 1836
23.119999550283 1823
23.1399995498359 1823
23.1599995493889 1889
23.1799995489418 1746
23.1999995484948 1791
23.2199995480478 1798
23.2399995476007 1713
23.2599995471537 1759
23.2799995467067 1670
23.2999995462596 1700
23.3199995458126 1589
23.3399995453656 1646
23.3599995449185 1695
23.3799995444715 1640
23.3999995440245 1557
23.4199995435774 1645
23.4399995431304 1632
23.4599995426834 1677
23.4799995422363 1638
23.4999995417893 1651
23.5199995413423 1720
23.5399995408952 1678
23.5599995404482 1698
23.5799995400012 1739
23.5999995395541 1856
23.6199995391071 1740
23.63999953866 1808
23.659999538213 1855
23.679999537766 1877
23.6999995373189 1785
23.7199995368719 1710
23.7399995364249 1667
23.7599995359778 1601
23.7799995355308 1634
23.7999995350838 1591
23.8199995346367 1609
23.8399995341897 1618
23.8599995337427 1612
23.8799995332956 1620
23.8999995328486 1607
23.9199995324016 1641
23.9399995319545 1669
23.9599995315075 1562
23.9799995310605 1602
23.9999995306134 1596
24.0199995301664 1617
24.0399995297194 1485
24.0599995292723 1511
24.0799995288253 1502
24.0999995283782 1523
24.1199995279312 1521
24.1399995274842 1436
24.1599995270371 1520
24.1799995265901 1489
24.1999995261431 1505
24.219999525696 1478
24.239999525249 1490
24.259999524802 1494
24.2799995243549 1532
24.2999995239079 1464
24.3199995234609 1536
24.3399995230138 1541
24.3599995225668 1512
24.3799995221198 1554
24.3999995216727 1439
24.4199995212257 1615
24.4399995207787 1575
24.4599995203316 1580
24.4799995198846 1562
24.4999995194376 1603
24.5199995189905 1625
24.5399995185435 1650
24.5599995180964 1634
24.5799995176494 1639
24.5999995172024 1665
24.6199995167553 1566
24.6399995163083 1643
24.6599995158613 1589
24.6799995154142 1653
24.6999995149672 1641
24.7199995145202 1680
24.7399995140731 1744
24.7599995136261 1767
24.7799995131791 1795
24.799999512732 1826
24.819999512285 1899
24.839999511838 1899
24.8599995113909 1842
24.8799995109439 1740
24.8999995104969 1650
24.9199995100498 1741
24.9399995096028 1656
24.9599995091558 1678
24.9799995087087 1615
24.9999995082617 1535
25.0199995078146 1542
25.0399995073676 1595
25.0599995069206 1599
25.0799995064735 1664
25.0999995060265 1658
25.1199995055795 1691
25.1399995051324 1684
25.1599995046854 1699
25.1799995042384 1653
25.1999995037913 1604
25.2199995033443 1560
25.2399995028973 1507
25.2599995024502 1455
25.2799995020032 1538
25.2999995015562 1450
25.3199995011091 1516
25.3399995006621 1459
25.3599995002151 1449
25.379999499768 1489
25.399999499321 1525
25.4199994988739 1428
25.4399994984269 1463
25.4599994979799 1492
25.4799994975328 1558
25.4999994970858 1549
25.5199994966388 1628
25.5399994961917 1634
25.5599994957447 1633
25.5799994952977 1618
25.5999994948506 1616
25.6199994944036 1603
25.6399994939566 1545
25.6599994935095 1604
25.6799994930625 1536
25.6999994926155 1483
25.7199994921684 1455
25.7399994917214 1473
25.7599994912744 1479
25.7799994908273 1403
25.7999994903803 1401
25.8199994899333 1366
25.8399994894862 1360
25.8599994890392 1355
25.8799994885921 1355
25.8999994881451 1445
25.9199994876981 1447
25.939999487251 1308
25.959999486804 1347
25.979999486357 1413
25.9999994859099 1377
26.0199994854629 1398
26.0399994850159 1402
26.0599994845688 1366
26.0799994841218 1291
26.0999994836748 1341
26.1199994832277 1408
26.1399994827807 1418
26.1599994823337 1387
26.1799994818866 1342
26.1999994814396 1380
26.2199994809926 1321
26.2399994805455 1410
26.2599994800985 1386
26.2799994796514 1440
26.2999994792044 1431
26.3199994787574 1384
26.3399994783103 1351
26.3599994778633 1390
26.3799994774163 1355
26.3999994769692 1362
26.4199994765222 1318
26.4399994760752 1376
26.4599994756281 1337
26.4799994751811 1357
26.4999994747341 1322
26.519999474287 1359
26.53999947384 1388
26.559999473393 1300
26.5799994729459 1254
26.5999994724989 1308
26.6199994720519 1337
26.6399994716048 1318
26.6599994711578 1290
26.6799994707108 1322
26.6999994702637 1316
26.7199994698167 1432
26.7399994693697 1355
26.7599994689226 1387
26.7799994684756 1395
26.7999994680285 1409
26.8199994675815 1458
26.8399994671345 1527
26.8599994666874 1492
26.8799994662404 1502
26.8999994657934 1459
26.9199994653463 1488
26.9399994648993 1432
26.9599994644523 1412
26.9799994640052 1440
26.9999994635582 1473
27.0199994631112 1440
27.0399994626641 1404
27.0599994622171 1453
27.0799994617701 1471
27.099999461323 1568
27.119999460876 1541
27.139999460429 1586
27.1599994599819 1630
27.1799994595349 1622
27.1999994590878 1629
27.2199994586408 1615
27.2399994581938 1611
27.2599994577467 1518
27.2799994572997 1454
27.2999994568527 1424
27.3199994564056 1415
27.3399994559586 1367
27.3599994555116 1397
27.3799994550645 1385
27.3999994546175 1390
27.4199994541705 1401
27.4399994537234 1380
27.4599994532764 1425
27.4799994528294 1322
27.4999994523823 1286
27.5199994519353 1249
27.5399994514883 1298
27.5599994510412 1271
27.5799994505942 1231
27.5999994501472 1221
27.6199994497001 1236
27.6399994492531 1279
27.659999448806 1296
27.679999448359 1266
27.699999447912 1388
27.7199994474649 1276
27.7399994470179 1328
27.7599994465709 1336
27.7799994461238 1262
27.7999994456768 1376
27.8199994452298 1337
27.8399994447827 1324
27.8599994443357 1342
27.8799994438887 1347
27.8999994434416 1309
27.9199994429946 1301
27.9399994425476 1249
27.9599994421005 1322
27.9799994416535 1339
27.9999994412065 1262
28.0199994407594 1284
28.0399994403124 1250
28.0599994398654 1201
28.0799994394183 1248
28.0999994389713 1270
28.1199994385242 1307
28.1399994380772 1298
28.1599994376302 1304
28.1799994371831 1331
28.1999994367361 1359
28.2199994362891 1394
28.239999435842 1396
28.259999435395 1361
28.279999434948 1460
28.2999994345009 1459
28.3199994340539 1568
28.3399994336069 1497
28.3599994331598 1449
28.3799994327128 1495
28.3999994322658 1350
28.4199994318187 1387
28.4399994313717 1344
28.4599994309247 1333
28.4799994304776 1285
28.4999994300306 1442
28.5199994295835 1274
28.5399994291365 1369
28.5599994286895 1307
28.5799994282424 1315
28.5999994277954 1327
28.6199994273484 1325
28.6399994269013 1350
28.6599994264543 1369
28.6799994260073 1393
28.6999994255602 1457
28.7199994251132 1499
28.7399994246662 1498
28.7599994242191 1559
28.7799994237721 1457
28.7999994233251 1519
28.819999422878 1488
28.839999422431 1427
28.859999421984 1352
28.8799994215369 1381
28.8999994210899 1339
28.9199994206429 1297
28.9399994201958 1271
28.9599994197488 1301
28.9799994193017 1276
28.9999994188547 1265
29.0199994184077 1285
29.0399994179606 1332
29.0599994175136 1275
29.0799994170666 1237
29.0999994166195 1193
29.1199994161725 1268
29.1399994157255 1240
29.1599994152784 1181
29.1799994148314 1236
29.1999994143844 1234
29.2199994139373 1210
29.2399994134903 1246
29.2599994130433 1127
29.2799994125962 1212
29.2999994121492 1166
29.3199994117022 1144
29.3399994112551 1152
29.3599994108081 1099
29.379999410361 1057
29.399999409914 1155
29.419999409467 1187
29.4399994090199 1076
29.4599994085729 1126
29.4799994081259 1094
29.4999994076788 1164
29.5199994072318 1144
29.5399994067848 1144
29.5599994063377 1133
29.5799994058907 1131
29.5999994054437 1056
29.6199994049966 1118
29.6399994045496 1149
29.6599994041026 1125
29.6799994036555 1192
29.6999994032085 1135
29.7199994027615 1199
29.7399994023144 1201
29.7599994018674 1173
29.7799994014204 1226
29.7999994009733 1266
29.8199994005263 1314
29.8399994000793 1363
29.8599993996322 1315
29.8799993991852 1380
29.8999993987381 1378
29.9199993982911 1290
29.9399993978441 1317
29.959999397397 1257
29.97999939695 1276
29.999999396503 1147
