3 2166
3.01999999955297 1930
3.03999999910593 1827
3.0599999986589 1757
3.07999999821186 1631
3.09999999776483 1657
3.11999999731779 1605
3.13999999687076 1519
3.15999999642372 1585
3.17999999597669 1513
3.19999999552965 1524
3.21999999508262 1517
3.23999999463558 1530
3.25999999418855 1503
3.27999999374151 1537
3.29999999329448 1472
3.31999999284744 1446
3.33999999240041 1494
3.35999999195337 1448
3.37999999150634 1409
3.3999999910593 1409
3.41999999061227 1455
3.43999999016523 1428
3.4599999897182 1389
3.47999998927116 1348
3.49999998882413 1419
3.51999998837709 1274
3.53999998793006 1364
3.55999998748302 1377
3.57999998703599 1340
3.59999998658895 1337
3.61999998614192 1337
3.63999998569489 1298
3.65999998524785 1315
3.67999998480082 1300
3.69999998435378 1313
3.71999998390675 1319
3.73999998345971 1253
3.75999998301268 1210
3.77999998256564 1236
3.79999998211861 1254
3.81999998167157 1224
3.83999998122454 1252
3.8599999807775 1220
3.87999998033047 1262
3.89999997988343 1260
3.9199999794364 1225
3.93999997898936 1213
3.95999997854233 1216
3.97999997809529 1250
3.99999997764826 1337
4.01999997720122 1256
4.03999997675419 1362
4.05999997630715 1305
4.07999997586012 1286
4.09999997541308 1306
4.11999997496605 1346
4.13999997451901 1308
4.15999997407198 1336
4.17999997362494 1322
4.19999997317791 1283
4.21999997273087 1275
4.23999997228384 1213
4.25999997183681 1209
4.27999997138977 1133
4.29999997094274 1198
4.3199999704957 1131
4.33999997004867 1076
4.35999996960163 1119
4.3799999691546 1132
4.39999996870756 1109
4.41999996826053 1096
4.43999996781349 1058
4.45999996736646 1095
4.47999996691942 1145
4.49999996647239 1138
4.51999996602535 1061
4.53999996557832 1085
4.55999996513128 1146
4.57999996468425 1128
4.59999996423721 1071
4.61999996379018 1116
4.63999996334314 1101
4.65999996289611 1044
4.67999996244907 1123
4.69999996200204 1131
4.719999961555 1087
4.73999996110797 1080
4.75999996066093 1126
4.7799999602139 1157
4.79999995976686 1106
4.81999995931983 1079
4.83999995887279 1086
4.85999995842576 1084
4.87999995797873 1169
4.89999995753169 1082
4.91999995708466 1130
4.93999995663762 1034
4.95999995619059 1073
4.97999995574355 1144
4.99999995529652 1179
5.01999995484948 1087
5.03999995440245 1120
5.05999995395541 1195
5.07999995350838 1150
5.09999995306134 1138
5.11999995261431 1196
5.13999995216727 1177
5.15999995172024 1160
5.1799999512732 1176
5.19999995082617 1225
5.21999995037913 1239
5.2399999499321 1326
5.25999994948506 1302
5.27999994903803 1262
5.29999994859099 1421
5.31999994814396 1411
5.33999994769692 1419
5.35999994724989 1503
5.37999994680285 1555
5.39999994635582 1578
5.41999994590878 1709
5.43999994546175 1783
5.45999994501471 2003
5.47999994456768 1991
5.49999994412065 1874
5.51999994367361 1619
5.53999994322658 1524
5.55999994277954 1538
5.57999994233251 1501
5.59999994188547 1478
5.61999994143844 1583
5.6399999409914 1630
5.65999994054437 1727
5.67999994009733 1717
5.6999999396503 1805
5.71999993920326 1909
5.73999993875623 1920
5.75999993830919 2235
5.77999993786216 2324
5.79999993741512 2639
5.81999993696809 2961
5.83999993652105 2849
5.85999993607402 2653
5.87999993562698 2107
5.89999993517995 1518
5.91999993473291 1258
5.93999993428588 1165
5.95999993383884 1110
5.97999993339181 1038
5.99999993294477 994
6.01999993249774 1016
6.0399999320507 975
6.05999993160367 996
6.07999993115663 1029
6.0999999307096 960
6.11999993026257 935
6.13999992981553 941
6.1599999293685 945
6.17999992892146 948
6.19999992847443 949
6.21999992802739 978
6.23999992758036 963
6.25999992713332 947
6.27999992668629 932
6.29999992623925 938
6.31999992579222 918
6.33999992534518 1004
6.35999992489815 920
6.37999992445111 927
6.39999992400408 963
6.41999992355704 885
6.43999992311001 945
6.45999992266297 877
6.47999992221594 883
6.4999999217689 891
6.51999992132187 872
6.53999992087483 900
6.5599999204278 967
6.57999991998076 911
6.59999991953373 958
6.61999991908669 908
6.63999991863966 959
6.65999991819262 979
6.67999991774559 960
6.69999991729855 1006
6.71999991685152 961
6.73999991640449 970
6.75999991595745 974
6.77999991551042 1041
6.79999991506338 1061
6.81999991461635 1088
6.83999991416931 1008
6.85999991372228 927
6.87999991327524 989
6.89999991282821 857
6.91999991238117 940
6.93999991193414 927
6.9599999114871 920
6.97999991104007 857
6.99999991059303 807
7.019999910146 886
7.03999990969896 882
7.05999990925193 823
7.07999990880489 849
7.09999990835786 866
7.11999990791082 826
7.13999990746379 900
7.15999990701675 881
7.17999990656972 841
7.19999990612268 833
7.21999990567565 875
7.23999990522861 838
7.25999990478158 824
7.27999990433454 784
7.29999990388751 850
7.31999990344047 871
7.33999990299344 808
7.35999990254641 817
7.37999990209937 796
7.39999990165234 820
7.4199999012053 818
7.43999990075827 805
7.45999990031123 799
7.4799998998642 846
7.49999989941716 865
7.51999989897013 840
7.53999989852309 814
7.55999989807606 826
7.57999989762902 840
7.59999989718199 884
7.61999989673495 820
7.63999989628792 788
7.65999989584088 810
7.67999989539385 832
7.69999989494681 771
7.71999989449978 841
7.73999989405274 868
7.75999989360571 816
7.77999989315867 801
7.79999989271164 819
7.8199998922646 786
7.83999989181757 828
7.85999989137053 868
7.8799998909235 802
7.89999989047646 797
7.91999989002943 837
7.9399998895824 859
7.95999988913536 873
7.97999988868833 819
7.99999988824129 824
8.01999988779426 832
8.03999988734722 826
8.05999988690019 888
8.07999988645315 797
8.09999988600612 823
8.11999988555908 879
8.13999988511205 836
8.15999988466501 878
8.17999988421798 846
8.19999988377094 917
8.21999988332391 862
8.23999988287687 852
8.25999988242984 869
8.2799998819828 850
8.29999988153577 848
8.31999988108873 875
8.3399998806417 844
8.35999988019466 802
8.37999987974763 811
8.39999987930059 826
8.41999987885356 844
8.43999987840652 845
8.45999987795949 833
8.47999987751245 849
8.49999987706542 815
8.51999987661839 882
8.53999987617135 835
8.55999987572432 793
8.57999987527728 806
8.59999987483025 814
8.61999987438321 747
8.63999987393618 843
8.65999987348914 812
8.67999987304211 837
8.69999987259507 849
8.71999987214804 835
8.739999871701 798
8.75999987125397 869
8.77999987080693 855
8.7999998703599 876
8.81999986991286 829
8.83999986946583 889
8.85999986901879 852
8.87999986857176 817
8.89999986812472 825
8.91999986767769 804
8.93999986723065 853
8.95999986678362 871
8.97999986633658 815
8.99999986588955 870
9.01999986544251 875
9.03999986499548 893
9.05999986454844 915
9.07999986410141 921
9.09999986365438 910
9.11999986320734 906
9.13999986276031 931
9.15999986231327 1014
9.17999986186624 914
9.1999998614192 939
9.21999986097217 1013
9.23999986052513 1018
9.2599998600781 1019
9.27999985963106 1106
9.29999985918403 1100
9.31999985873699 1193
9.33999985828996 1282
9.35999985784292 1368
9.37999985739589 1383
9.39999985694885 1472
9.41999985650182 1281
9.43999985605478 1160
9.45999985560775 1022
9.47999985516071 951
9.49999985471368 929
9.51999985426664 937
9.53999985381961 890
9.55999985337257 906
9.57999985292554 913
9.5999998524785 891
9.61999985203147 902
9.63999985158443 902
9.6599998511374 901
9.67999985069037 904
9.69999985024333 898
9.7199998497963 925
9.73999984934926 908
9.75999984890223 926
9.77999984845519 894
9.79999984800816 945
9.81999984756112 880
9.83999984711409 913
9.85999984666705 876
9.87999984622002 914
9.89999984577298 968
9.91999984532595 889
9.93999984487891 962
9.95999984443188 921
9.97999984398484 981
9.99999984353781 925
10.0199998430908 894
10.0399998426437 940
10.0599998421967 904
10.0799998417497 980
10.0999998413026 981
10.1199998408556 950
10.1399998404086 1001
10.1599998399615 1071
10.1799998395145 1055
10.1999998390675 1097
10.2199998386204 1076
10.2399998381734 1105
10.2599998377264 1055
10.2799998372793 1017
10.2999998368323 900
10.3199998363853 902
10.3399998359382 892
10.3599998354912 964
10.3799998350441 875
10.3999998345971 883
10.4199998341501 851
10.439999833703 900
10.459999833256 920
10.479999832809 885
10.4999998323619 870
10.5199998319149 877
10.5399998314679 970
10.5599998310208 883
10.5799998305738 881
10.5999998301268 893
10.6199998296797 890
10.6399998292327 918
10.6599998287857 935
10.6799998283386 936
10.6999998278916 895
10.7199998274446 928
10.7399998269975 1014
10.7599998265505 945
10.7799998261034 944
10.7999998256564 1058
10.8199998252094 1084
10.8399998247623 1112
10.8599998243153 1036
10.8799998238683 1029
10.8999998234212 1057
10.9199998229742 1053
10.9399998225272 1115
10.9599998220801 1144
10.9799998216331 1187
10.9999998211861 1284
11.019999820739 1316
11.039999820292 1181
11.059999819845 1076
11.0799998193979 981
11.0999998189509 924
11.1199998185039 855
11.1399998180568 898
11.1599998176098 910
11.1799998171628 882
11.1999998167157 926
11.2199998162687 907
11.2399998158216 913
11.2599998153746 845
11.2799998149276 869
11.2999998144805 881
11.3199998140335 900
11.3399998135865 911
11.3599998131394 909
11.3799998126924 898
11.3999998122454 836
11.4199998117983 883
11.4399998113513 930
11.4599998109043 984
11.4799998104572 938
11.4999998100102 989
11.5199998095632 970
11.5399998091161 987
11.5599998086691 990
11.5799998082221 988
11.599999807775 1002
11.619999807328 961
11.639999806881 894
11.6599998064339 952
11.6799998059869 869
11.6999998055398 915
11.7199998050928 893
11.7399998046458 885
11.7599998041987 874
11.7799998037517 901
11.7999998033047 853
11.8199998028576 866
11.8399998024106 864
11.8599998019636 825
11.8799998015165 863
11.8999998010695 860
11.9199998006225 893
11.9399998001754 863
11.9599997997284 877
11.9799997992814 863
11.9999997988343 912
12.0199997983873 866
12.0399997979403 871
12.0599997974932 885
12.0799997970462 871
12.0999997965992 857
12.1199997961521 875
12.1399997957051 912
12.159999795258 894
12.179999794811 895
12.199999794364 902
12.2199997939169 901
12.2399997934699 884
12.2599997930229 943
12.2799997925758 936
12.2999997921288 948
12.3199997916818 898
12.3399997912347 889
12.3599997907877 873
12.3799997903407 886
12.3999997898936 850
12.4199997894466 859
12.4399997889996 862
12.4599997885525 896
12.4799997881055 869
12.4999997876585 890
12.5199997872114 860
12.5399997867644 861
12.5599997863173 854
12.5799997858703 901
12.5999997854233 936
12.6199997849762 902
12.6399997845292 929
12.6599997840822 897
12.6799997836351 871
12.6999997831881 878
12.7199997827411 834
12.739999782294 938
12.759999781847 921
12.7799997814 876
12.7999997809529 903
12.8199997805059 856
12.8399997800589 927
12.8599997796118 884
12.8799997791648 904
12.8999997787178 893
12.9199997782707 880
12.9399997778237 894
12.9599997773767 869
12.9799997769296 896
12.9999997764826 910
13.0199997760355 883
13.0399997755885 948
13.0599997751415 856
13.0799997746944 823
13.0999997742474 901
13.1199997738004 842
13.1399997733533 869
13.1599997729063 904
13.1799997724593 910
13.1999997720122 915
13.2199997715652 970
13.2399997711182 940
13.2599997706711 882
13.2799997702241 923
13.2999997697771 908
13.31999976933 879
13.339999768883 915
13.359999768436 936
13.3799997679889 885
13.3999997675419 958
13.4199997670949 947
13.4399997666478 963
13.4599997662008 916
13.4799997657537 925
13.4999997653067 934
13.5199997648597 941
13.5399997644126 993
13.5599997639656 927
13.5799997635186 872
13.5999997630715 947
13.6199997626245 973
13.6399997621775 963
13.6599997617304 872
13.6799997612834 927
13.6999997608364 948
13.7199997603893 900
13.7399997599423 903
13.7599997594953 969
13.7799997590482 927
13.7999997586012 969
13.8199997581542 912
13.8399997577071 889
13.8599997572601 948
13.879999756813 875
13.899999756366 971
13.919999755919 1018
13.9399997554719 960
13.9599997550249 984
13.9799997545779 948
13.9999997541308 961
14.0199997536838 944
14.0399997532368 938
14.0599997527897 942
14.0799997523427 969
14.0999997518957 1003
14.1199997514486 945
14.1399997510016 965
14.1599997505546 957
14.1799997501075 976
14.1999997496605 964
14.2199997492135 1011
14.2399997487664 999
14.2599997483194 998
14.2799997478724 1038
14.2999997474253 989
14.3199997469783 1012
14.3399997465312 961
14.3599997460842 1001
14.3799997456372 995
14.3999997451901 1012
14.4199997447431 1022
14.4399997442961 1046
14.459999743849 996
14.479999743402 1016
14.499999742955 968
14.5199997425079 1013
14.5399997420609 1006
14.5599997416139 956
14.5799997411668 932
14.5999997407198 1018
14.6199997402728 994
14.6399997398257 981
14.6599997393787 1016
14.6799997389317 1063
14.6999997384846 973
14.7199997380376 954
14.7399997375906 1039
14.7599997371435 1077
14.7799997366965 961
14.7999997362494 1039
14.8199997358024 1059
14.8399997353554 1033
14.8599997349083 1050
14.8799997344613 1066
14.8999997340143 1103
14.9199997335672 976
14.9399997331202 1043
14.9599997326732 1020
14.9799997322261 1023
14.9999997317791 1016
15.0199997313321 1011
15.039999730885 1086
15.059999730438 1070
15.079999729991 994
15.0999997295439 1003
15.1199997290969 1067
15.1399997286499 1111
15.1599997282028 1086
15.1799997277558 1060
15.1999997273088 1122
15.2199997268617 1067
15.2399997264147 1040
15.2599997259676 1095
15.2799997255206 1045
15.2999997250736 1083
15.3199997246265 1083
15.3399997241795 1087
15.3599997237325 1093
15.3799997232854 1086
15.3999997228384 1086
15.4199997223914 1056
15.4399997219443 1053
15.4599997214973 1077
15.4799997210503 1092
15.4999997206032 1109
15.5199997201562 1147
15.5399997197092 993
15.5599997192621 1040
15.5799997188151 1030
15.5999997183681 1113
15.619999717921 1125
15.639999717474 1036
15.659999717027 1083
15.6799997165799 1118
15.6999997161329 1109
15.7199997156858 1092
15.7399997152388 1107
15.7599997147918 1125
15.7799997143447 1175
15.7999997138977 1155
15.8199997134507 1078
15.8399997130036 1125
15.8599997125566 1072
15.8799997121096 1080
15.8999997116625 1077
15.9199997112155 1101
15.9399997107685 1141
15.9599997103214 1080
15.9799997098744 1177
15.9999997094274 1153
16.0199997089803 1152
16.0399997085333 1159
16.0599997080863 1141
16.0799997076392 1100
16.0999997071922 1142
16.1199997067451 1186
16.1399997062981 1190
16.1599997058511 1136
16.179999705404 1210
16.199999704957 1147
16.21999970451 1111
16.2399997040629 1198
16.2599997036159 1206
16.2799997031689 1131
16.2999997027218 1247
16.3199997022748 1224
16.3399997018278 1232
16.3599997013807 1196
16.3799997009337 1203
16.3999997004867 1213
16.4199997000396 1201
16.4399996995926 1167
16.4599996991456 1225
16.4799996986985 1241
16.4999996982515 1239
16.5199996978045 1188
16.5399996973574 1259
16.5599996969104 1224
16.5799996964633 1235
16.5999996960163 1290
16.6199996955693 1216
16.6399996951222 1218
16.6599996946752 1192
16.6799996942282 1270
16.6999996937811 1245
16.7199996933341 1232
16.7399996928871 1245
16.75999969244 1273
16.779999691993 1254
16.799999691546 1253
16.8199996910989 1274
16.8399996906519 1279
16.8599996902049 1348
16.8799996897578 1308
16.8999996893108 1311
16.9199996888638 1378
16.9399996884167 1417
16.9599996879697 1460
16.9799996875226 1571
16.9999996870756 1669
17.0199996866286 1688
17.0399996861815 1709
17.0599996857345 1659
17.0799996852875 1584
17.0999996848404 1433
17.1199996843934 1384
17.1399996839464 1352
17.1599996834993 1311
17.1799996830523 1324
17.1999996826053 1275
17.2199996821582 1268
17.2399996817112 1327
17.2599996812642 1359
17.2799996808171 1350
17.2999996803701 1378
17.3199996799231 1425
17.339999679476 1337
17.359999679029 1416
17.379999678582 1331
17.3999996781349 1331
17.4199996776879 1366
17.4399996772408 1310
17.4599996767938 1305
17.4799996763468 1327
17.4999996758997 1327
17.5199996754527 1325
17.5399996750057 1325
17.5599996745586 1377
17.5799996741116 1376
17.5999996736646 1393
17.6199996732175 1323
17.6399996727705 1395
17.6599996723235 1406
17.6799996718764 1414
17.6999996714294 1361
17.7199996709824 1369
17.7399996705353 1408
17.7599996700883 1385
17.7799996696413 1290
17.7999996691942 1408
17.8199996687472 1421
17.8399996683002 1394
17.8599996678531 1418
17.8799996674061 1460
17.899999666959 1417
17.919999666512 1364
17.939999666065 1478
17.9599996656179 1444
17.9799996651709 1418
17.9999996647239 1413
18.0199996642768 1485
18.0399996638298 1432
18.0599996633828 1427
18.0799996629357 1485
18.0999996624887 1456
18.1199996620417 1478
18.1399996615946 1445
18.1599996611476 1432
18.1799996607006 1449
18.1999996602535 1462
18.2199996598065 1482
18.2399996593595 1480
18.2599996589124 1482
18.2799996584654 1460
18.2999996580184 1487
18.3199996575713 1474
18.3399996571243 1510
18.3599996566772 1532
18.3799996562302 1474
18.3999996557832 1438
18.4199996553361 1515
18.4399996548891 1475
18.4599996544421 1489
18.479999653995 1513
18.499999653548 1510
18.519999653101 1619
18.5399996526539 1539
18.5599996522069 1565
18.5799996517599 1496
18.5999996513128 1557
18.6199996508658 1552
18.6399996504188 1483
18.6599996499717 1534
18.6799996495247 1521
18.6999996490777 1626
18.7199996486306 1580
18.7399996481836 1613
18.7599996477366 1607
18.7799996472895 1680
18.7999996468425 1579
18.8199996463954 1631
18.8399996459484 1578
18.8599996455014 1595
18.8799996450543 1648
18.8999996446073 1571
18.9199996441603 1599
18.9399996437132 1642
18.9599996432662 1575
18.9799996428192 1604
18.9999996423721 1671
19.0199996419251 1639
19.0399996414781 1722
19.059999641031 1689
19.079999640584 1678
19.099999640137 1722
19.1199996396899 1702
19.1399996392429 1751
19.1599996387959 1812
19.1799996383488 1765
19.1999996379018 1707
19.2199996374547 1795
19.2399996370077 1724
19.2599996365607 1606
19.2799996361136 1630
19.2999996356666 1564
19.3199996352196 1700
19.3399996347725 1615
19.3599996343255 1624
19.3799996338785 1720
19.3999996334314 1682
19.4199996329844 1629
19.4399996325374 1754
19.4599996320903 1734
19.4799996316433 1815
19.4999996311963 1759
19.5199996307492 1807
19.5399996303022 1757
19.5599996298552 1799
19.5799996294081 1826
19.5999996289611 1935
19.6199996285141 1748
19.639999628067 1813
19.65999962762 1732
19.6799996271729 1677
19.6999996267259 1729
19.7199996262789 1710
19.7399996258318 1737
19.7599996253848 1714
19.7799996249378 1740
19.7999996244907 1713
19.8199996240437 1730
19.8399996235967 1772
19.8599996231496 1760
19.8799996227026 1835
19.8999996222556 1840
19.9199996218085 1822
19.9399996213615 1808
19.9599996209145 1774
19.9799996204674 1805
19.9999996200204 1748
20.0199996195734 1734
20.0399996191263 1765
20.0599996186793 1788
20.0799996182322 1734
20.0999996177852 1693
20.1199996173382 1807
20.1399996168911 1715
20.1599996164441 1843
20.1799996159971 1775
20.19999961555 1849
20.219999615103 1803
20.239999614656 1860
20.2599996142089 1818
20.2799996137619 1776
20.2999996133149 1851
20.3199996128678 1833
20.3399996124208 1823
20.3599996119738 1922
20.3799996115267 1798
20.3999996110797 1791
20.4199996106327 1708
20.4399996101856 1796
20.4599996097386 1827
20.4799996092916 1876
20.4999996088445 1785
20.5199996083975 1810
20.5399996079504 1780
20.5599996075034 1805
20.5799996070564 1817
20.5999996066093 1756
20.6199996061623 1778
20.6399996057153 1794
20.6599996052682 1836
20.6799996048212 1881
20.6999996043742 1813
20.7199996039271 1774
20.7399996034801 1831
20.7599996030331 1805
20.779999602586 1872
20.799999602139 1898
20.819999601692 1935
20.8399996012449 1849
20.8599996007979 1813
20.8799996003509 1831
20.8999995999038 1823
20.9199995994568 1735
20.9399995990098 1709
20.9599995985627 1808
20.9799995981157 1785
20.9999995976686 1866
21.0199995972216 1864
21.0399995967746 1867
21.0599995963275 1854
21.0799995958805 1858
21.0999995954335 1871
21.1199995949864 1861
21.1399995945394 1923
21.1599995940924 1883
21.1799995936453 1931
21.1999995931983 1940
21.2199995927513 1858
21.2399995923042 1865
21.2599995918572 1798
21.2799995914102 1842
21.2999995909631 1868
21.3199995905161 1840
21.3399995900691 1738
21.359999589622 1842
21.379999589175 1826
21.399999588728 1883
21.4199995882809 1734
21.4399995878339 1867
21.4599995873868 1812
21.4799995869398 1896
21.4999995864928 1883
21.5199995860457 1780
21.5399995855987 1844
21.5599995851517 1867
21.5799995847046 1861
21.5999995842576 1783
21.6199995838106 1853
21.6399995833635 1912
21.6599995829165 1859
21.6799995824695 1952
21.6999995820224 1863
21.7199995815754 1890
21.7399995811284 1902
21.7599995806813 1796
21.7799995802343 1869
21.7999995797873 1924
21.8199995793402 1923
21.8399995788932 1829
21.8599995784462 1852
21.8799995779991 1903
21.8999995775521 1917
21.919999577105 1905
21.939999576658 1893
21.959999576211 1893
21.9799995757639 1978
21.9999995753169 1973
22.0199995748699 1952
22.0399995744228 2028
22.0599995739758 1988
22.0799995735288 1984
22.0999995730817 1935
22.1199995726347 1829
22.1399995721877 1823
22.1599995717406 1890
22.1799995712936 1807
22.1999995708466 1851
22.2199995703995 1811
22.2399995699525 1899
22.2599995695055 1852
22.2799995690584 1837
22.2999995686114 1866
22.3199995681643 1742
22.3399995677173 1830
22.3599995672703 1892
22.3799995668232 1828
22.3999995663762 1835
22.4199995659292 1912
22.4399995654821 1873
22.4599995650351 1878
22.4799995645881 1893
22.499999564141 1925
22.519999563694 1844
22.539999563247 1900
22.5599995627999 1898
22.5799995623529 1825
22.5999995619059 1864
22.6199995614588 1808
22.6399995610118 1824
22.6599995605648 1789
22.6799995601177 1803
22.6999995596707 1831
22.7199995592237 1865
22.7399995587766 1833
22.7599995583296 1763
22.7799995578825 1850
22.7999995574355 1778
22.8199995569885 1822
22.8399995565414 1864
22.8599995560944 1821
22.8799995556474 1903
22.8999995552003 1861
22.9199995547533 1878
22.9399995543063 1798
22.9599995538592 1887
22.9799995534122 1849
22.9999995529652 1839
23.0199995525181 1850
23.0399995520711 1897
23.0599995516241 1865
23.079999551177 1902
23.09999955073 1946
23.119999550283 1993
23.1399995498359 1906
23.1599995493889 1927
23.1799995489418 1880
23.1999995484948 1920
23.2199995480478 1828
23.2399995476007 1785
23.2599995471537 1803
23.2799995467067 1803
23.2999995462596 1862
23.3199995458126 1952
23.3399995453656 1768
23.3599995449185 1816
23.3799995444715 1829
23.3999995440245 1750
23.4199995435774 1779
23.4399995431304 1824
23.4599995426834 1806
23.4799995422363 1755
23.4999995417893 1741
23.5199995413423 1775
23.5399995408952 1803
23.5599995404482 1707
23.5799995400012 1773
23.5999995395541 1832
23.6199995391071 1807
23.63999953866 1795
23.659999538213 1829
23.679999537766 1836
23.6999995373189 1837
23.7199995368719 1803
23.7399995364249 1846
23.7599995359778 1801
23.7799995355308 1797
23.7999995350838 1775
23.8199995346367 1745
23.8399995341897 1753
23.8599995337427 1738
23.8799995332956 1848
23.8999995328486 1801
23.9199995324016 1808
23.9399995319545 1754
23.9599995315075 1755
23.9799995310605 1821
23.9999995306134 1730
24.0199995301664 1736
24.0399995297194 1686
24.0599995292723 1701
24.0799995288253 1702
24.0999995283782 1768
24.1199995279312 1753
24.1399995274842 1786
24.1599995270371 1730
24.1799995265901 1793
24.1999995261431 1692
24.219999525696 1740
24.239999525249 1794
24.259999524802 1718
24.2799995243549 1727
24.2999995239079 1749
24.3199995234609 1800
24.3399995230138 1736
24.3599995225668 1666
24.3799995221198 1724
24.3999995216727 1731
24.4199995212257 1716
24.4399995207787 1774
24.4599995203316 1731
24.4799995198846 1788
24.4999995194376 1791
24.5199995189905 1838
24.5399995185435 1851
24.5599995180964 1805
24.5799995176494 1827
24.5999995172024 1830
24.6199995167553 1771
24.6399995163083 1742
24.6599995158613 1815
24.6799995154142 1821
24.6999995149672 1778
24.7199995145202 1780
24.7399995140731 1798
24.7599995136261 1833
24.7799995131791 1897
24.799999512732 1792
24.819999512285 1793
24.839999511838 1795
24.8599995113909 1860
24.8799995109439 1814
24.8999995104969 1792
24.9199995100498 1777
24.9399995096028 1710
24.9599995091558 1716
24.9799995087087 1731
24.9999995082617 1773
25.0199995078146 1748
25.0399995073676 1734
25.0599995069206 1782
25.0799995064735 1725
25.0999995060265 1742
25.1199995055795 1765
25.1399995051324 1741
25.1599995046854 1758
25.1799995042384 1760
25.1999995037913 1775
25.2199995033443 1755
25.2399995028973 1771
25.2599995024502 1731
25.2799995020032 1809
25.2999995015562 1713
25.3199995011091 1784
25.3399995006621 1747
25.3599995002151 1679
25.379999499768 1702
25.399999499321 1703
25.4199994988739 1661
25.4399994984269 1701
25.4599994979799 1688
25.4799994975328 1677
25.4999994970858 1708
25.5199994966388 1684
25.5399994961917 1766
25.5599994957447 1702
25.5799994952977 1739
25.5999994948506 1786
25.6199994944036 1675
25.6399994939566 1735
25.6599994935095 1588
25.6799994930625 1662
25.6999994926155 1515
25.7199994921684 1595
25.7399994917214 1567
25.7599994912744 1609
25.7799994908273 1595
25.7999994903803 1632
25.8199994899333 1554
25.8399994894862 1623
25.8599994890392 1585
25.8799994885921 1556
25.8999994881451 1533
25.9199994876981 1581
25.939999487251 1562
25.959999486804 1587
25.979999486357 1604
25.9999994859099 1546
26.0199994854629 1527
26.0399994850159 1584
26.0599994845688 1597
26.0799994841218 1528
26.0999994836748 1529
26.1199994832277 1583
26.1399994827807 1538
26.1599994823337 1577
26.1799994818866 1547
26.1999994814396 1583
26.2199994809926 1569
26.2399994805455 1548
26.2599994800985 1596
26.2799994796514 1625
26.2999994792044 1628
26.3199994787574 1637
26.3399994783103 1569
26.3599994778633 1566
26.3799994774163 1528
26.3999994769692 1577
26.4199994765222 1578
26.4399994760752 1530
26.4599994756281 1544
26.4799994751811 1584
26.4999994747341 1523
26.519999474287 1540
26.53999947384 1500
26.559999473393 1517
26.5799994729459 1576
26.5999994724989 1499
26.6199994720519 1522
26.6399994716048 1522
26.6599994711578 1551
26.6799994707108 1559
26.6999994702637 1505
26.7199994698167 1564
26.7399994693697 1523
26.7599994689226 1587
26.7799994684756 1597
26.7999994680285 1688
26.8199994675815 1644
26.8399994671345 1654
26.8599994666874 1632
26.8799994662404 1679
26.8999994657934 1670
26.9199994653463 1644
26.9399994648993 1663
26.9599994644523 1552
26.9799994640052 1560
26.9999994635582 1606
27.0199994631112 1520
27.0399994626641 1549
27.0599994622171 1504
27.0799994617701 1604
27.099999461323 1650
27.119999460876 1631
27.139999460429 1593
27.1599994599819 1678
27.1799994595349 1611
27.1999994590878 1664
27.2199994586408 1638
27.2399994581938 1627
27.2599994577467 1528
27.2799994572997 1552
27.2999994568527 1524
27.3199994564056 1463
27.3399994559586 1418
27.3599994555116 1474
27.3799994550645 1518
27.3999994546175 1488
27.4199994541705 1482
27.4399994537234 1551
27.4599994532764 1524
27.4799994528294 1453
27.4999994523823 1431
27.5199994519353 1439
27.5399994514883 1458
27.5599994510412 1462
27.5799994505942 1366
27.5999994501472 1486
27.6199994497001 1441
27.6399994492531 1486
27.659999448806 1459
27.679999448359 1512
27.699999447912 1453
27.7199994474649 1510
27.7399994470179 1544
27.7599994465709 1426
27.7799994461238 1471
27.7999994456768 1458
27.8199994452298 1490
27.8399994447827 1512
27.8599994443357 1441
27.8799994438887 1467
27.8999994434416 1441
27.9199994429946 1436
27.9399994425476 1463
27.9599994421005 1434
27.9799994416535 1417
27.9999994412065 1378
28.0199994407594 1462
28.0399994403124 1413
28.0599994398654 1457
28.0799994394183 1399
28.0999994389713 1373
28.1199994385242 1416
28.1399994380772 1409
28.1599994376302 1426
28.1799994371831 1421
28.1999994367361 1454
28.2199994362891 1510
28.239999435842 1490
28.259999435395 1537
28.279999434948 1542
28.2999994345009 1506
28.3199994340539 1599
28.3399994336069 1558
28.3599994331598 1571
28.3799994327128 1495
28.3999994322658 1536
28.4199994318187 1454
28.4399994313717 1504
28.4599994309247 1464
28.4799994304776 1458
28.4999994300306 1454
28.5199994295835 1432
28.5399994291365 1399
28.5599994286895 1456
28.5799994282424 1401
28.5999994277954 1355
28.6199994273484 1411
28.6399994269013 1433
28.6599994264543 1378
28.6799994260073 1459
28.6999994255602 1456
28.7199994251132 1505
28.7399994246662 1449
28.7599994242191 1507
28.7799994237721 1470
28.7999994233251 1505
28.819999422878 1488
28.839999422431 1455
28.859999421984 1378
28.8799994215369 1417
28.8999994210899 1386
28.9199994206429 1359
28.9399994201958 1396
28.9599994197488 1441
28.9799994193017 1418
28.9999994188547 1391
29.0199994184077 1462
29.0399994179606 1399
29.0599994175136 1398
29.0799994170666 1415
29.0999994166195 1356
29.1199994161725 1418
29.1399994157255 1377
29.1599994152784 1350
29.1799994148314 1387
29.1999994143844 1373
29.2199994139373 1299
29.2399994134903 1390
29.2599994130433 1330
29.2799994125962 1399
29.2999994121492 1331
29.3199994117022 1300
29.3399994112551 1345
29.3599994108081 1328
29.379999410361 1244
29.399999409914 1297
29.419999409467 1254
29.4399994090199 1268
29.4599994085729 1292
29.4799994081259 1260
29.4999994076788 1353
29.5199994072318 1354
29.5399994067848 1269
29.5599994063377 1283
29.5799994058907 1285
29.5999994054437 1320
29.6199994049966 1303
29.6399994045496 1266
29.6599994041026 1289
29.6799994036555 1267
29.6999994032085 1301
29.7199994027615 1315
29.7399994023144 1374
29.7599994018674 1295
29.7799994014204 1368
29.7999994009733 1403
29.8199994005263 1380
29.8399994000793 1363
29.8599993996322 1419
29.8799993991852 1471
29.8999993987381 1354
29.9199993982911 1399
29.9399993978441 1309
29.959999397397 1360
29.97999939695 1305
29.999999396503 1284
