3 2520
3.01999999955297 2307
3.03999999910593 2184
3.0599999986589 2144
3.07999999821186 2121
3.09999999776483 1968
3.11999999731779 1917
3.13999999687076 1930
3.15999999642372 1888
3.17999999597669 1917
3.19999999552965 1803
3.21999999508262 1793
3.23999999463558 1792
3.25999999418855 1775
3.27999999374151 1653
3.29999999329448 1761
3.31999999284744 1739
3.33999999240041 1656
3.35999999195337 1634
3.37999999150634 1621
3.3999999910593 1645
3.41999999061227 1610
3.43999999016523 1623
3.4599999897182 1631
3.47999998927116 1531
3.49999998882413 1509
3.51999998837709 1584
3.53999998793006 1633
3.55999998748302 1542
3.57999998703599 1476
3.59999998658895 1543
3.61999998614192 1494
3.63999998569489 1469
3.65999998524785 1482
3.67999998480082 1458
3.69999998435378 1457
3.71999998390675 1499
3.73999998345971 1453
3.75999998301268 1397
3.77999998256564 1408
3.79999998211861 1428
3.81999998167157 1349
3.83999998122454 1386
3.8599999807775 1400
3.87999998033047 1339
3.89999997988343 1350
3.9199999794364 1360
3.93999997898936 1340
3.95999997854233 1274
3.97999997809529 1354
3.99999997764826 1250
4.01999997720122 1305
4.03999997675419 1246
4.05999997630715 1252
4.07999997586012 1283
4.09999997541308 1247
4.11999997496605 1229
4.13999997451901 1221
4.15999997407198 1229
4.17999997362494 1250
4.19999997317791 1238
4.21999997273087 1208
4.23999997228384 1197
4.25999997183681 1259
4.27999997138977 1195
4.29999997094274 1203
4.3199999704957 1190
4.33999997004867 1264
4.35999996960163 1177
4.3799999691546 1158
4.39999996870756 1121
4.41999996826053 1140
4.43999996781349 1178
4.45999996736646 1151
4.47999996691942 1100
4.49999996647239 1194
4.51999996602535 1103
4.53999996557832 1143
4.55999996513128 1113
4.57999996468425 1158
4.59999996423721 1144
4.61999996379018 1175
4.63999996334314 1174
4.65999996289611 1104
4.67999996244907 1125
4.69999996200204 1111
4.719999961555 1087
4.73999996110797 1093
4.75999996066093 1086
4.7799999602139 1084
4.79999995976686 1057
4.81999995931983 1080
4.83999995887279 1054
4.85999995842576 1103
4.87999995797873 1027
4.89999995753169 1077
4.91999995708466 1083
4.93999995663762 1112
4.95999995619059 1065
4.97999995574355 1062
4.99999995529652 1047
5.01999995484948 1049
5.03999995440245 1043
5.05999995395541 1059
5.07999995350838 1026
5.09999995306134 1068
5.11999995261431 1049
5.13999995216727 1045
5.15999995172024 1069
5.1799999512732 1082
5.19999995082617 1097
5.21999995037913 1073
5.2399999499321 1053
5.25999994948506 1037
5.27999994903803 1077
5.29999994859099 1061
5.31999994814396 1026
5.33999994769692 1041
5.35999994724989 1035
5.37999994680285 1054
5.39999994635582 1020
5.41999994590878 1063
5.43999994546175 1014
5.45999994501471 1005
5.47999994456768 998
5.49999994412065 1053
5.51999994367361 1020
5.53999994322658 1020
5.55999994277954 1036
5.57999994233251 1024
5.59999994188547 1043
5.61999994143844 1044
5.6399999409914 1069
5.65999994054437 1019
5.67999994009733 997
5.6999999396503 1063
5.71999993920326 1000
5.73999993875623 1002
5.75999993830919 1011
5.77999993786216 1011
5.79999993741512 1013
5.81999993696809 1030
5.83999993652105 1010
5.85999993607402 1008
5.87999993562698 1034
5.89999993517995 940
5.91999993473291 981
5.93999993428588 965
5.95999993383884 975
5.97999993339181 968
5.99999993294477 985
6.01999993249774 969
6.0399999320507 1025
6.05999993160367 1025
6.07999993115663 950
6.0999999307096 1097
6.11999993026257 950
6.13999992981553 965
6.1599999293685 933
6.17999992892146 950
6.19999992847443 1000
6.21999992802739 961
6.23999992758036 1019
6.25999992713332 980
6.27999992668629 979
6.29999992623925 1031
6.31999992579222 963
6.33999992534518 941
6.35999992489815 971
6.37999992445111 913
6.39999992400408 970
6.41999992355704 1029
6.43999992311001 943
6.45999992266297 908
6.47999992221594 1015
6.4999999217689 948
6.51999992132187 958
6.53999992087483 955
6.5599999204278 980
6.57999991998076 969
6.59999991953373 937
6.61999991908669 941
6.63999991863966 985
6.65999991819262 927
6.67999991774559 943
6.69999991729855 936
6.71999991685152 935
6.73999991640449 1009
6.75999991595745 919
6.77999991551042 946
6.79999991506338 995
6.81999991461635 915
6.83999991416931 946
6.85999991372228 924
6.87999991327524 937
6.89999991282821 924
6.91999991238117 950
6.93999991193414 913
6.9599999114871 948
6.97999991104007 902
6.99999991059303 924
7.019999910146 949
7.03999990969896 960
7.05999990925193 952
7.07999990880489 943
7.09999990835786 876
7.11999990791082 924
7.13999990746379 900
7.15999990701675 943
7.17999990656972 948
7.19999990612268 925
7.21999990567565 890
7.23999990522861 943
7.25999990478158 903
7.27999990433454 883
7.29999990388751 933
7.31999990344047 913
7.33999990299344 933
7.35999990254641 914
7.37999990209937 888
7.39999990165234 939
7.4199999012053 890
7.43999990075827 881
7.45999990031123 889
7.4799998998642 904
7.49999989941716 908
7.51999989897013 913
7.53999989852309 903
7.55999989807606 952
7.57999989762902 911
7.59999989718199 927
7.61999989673495 896
7.63999989628792 920
7.65999989584088 895
7.67999989539385 871
7.69999989494681 945
7.71999989449978 906
7.73999989405274 923
7.75999989360571 897
7.77999989315867 921
7.79999989271164 967
7.8199998922646 951
7.83999989181757 902
7.85999989137053 903
7.8799998909235 936
7.89999989047646 905
7.91999989002943 907
7.9399998895824 978
7.95999988913536 946
7.97999988868833 869
7.99999988824129 859
8.01999988779426 916
8.03999988734722 866
8.05999988690019 946
8.07999988645315 910
8.09999988600612 898
8.11999988555908 931
8.13999988511205 911
8.15999988466501 931
8.17999988421798 934
8.19999988377094 865
8.21999988332391 915
8.23999988287687 952
8.25999988242984 909
8.2799998819828 898
8.29999988153577 893
8.31999988108873 912
8.3399998806417 895
8.35999988019466 896
8.37999987974763 905
8.39999987930059 908
8.41999987885356 877
8.43999987840652 926
8.45999987795949 944
8.47999987751245 884
8.49999987706542 878
8.51999987661839 924
8.53999987617135 910
8.55999987572432 888
8.57999987527728 915
8.59999987483025 907
8.61999987438321 900
8.63999987393618 868
8.65999987348914 917
8.67999987304211 880
8.69999987259507 904
8.71999987214804 920
8.739999871701 941
8.75999987125397 888
8.77999987080693 876
8.7999998703599 913
8.81999986991286 869
8.83999986946583 934
8.85999986901879 911
8.87999986857176 943
8.89999986812472 899
8.91999986767769 872
8.93999986723065 931
8.95999986678362 913
8.97999986633658 935
8.99999986588955 966
9.01999986544251 886
9.03999986499548 949
9.05999986454844 948
9.07999986410141 909
9.09999986365438 852
9.11999986320734 934
9.13999986276031 935
9.15999986231327 949
9.17999986186624 995
9.1999998614192 899
9.21999986097217 929
9.23999986052513 893
9.2599998600781 981
9.27999985963106 925
9.29999985918403 910
9.31999985873699 939
9.33999985828996 978
9.35999985784292 915
9.37999985739589 962
9.39999985694885 966
9.41999985650182 959
9.43999985605478 896
9.45999985560775 902
9.47999985516071 951
9.49999985471368 912
9.51999985426664 924
9.53999985381961 898
9.55999985337257 952
9.57999985292554 898
9.5999998524785 923
9.61999985203147 890
9.63999985158443 901
9.6599998511374 935
9.67999985069037 930
9.69999985024333 957
9.7199998497963 923
9.73999984934926 956
9.75999984890223 883
9.77999984845519 914
9.79999984800816 907
9.81999984756112 913
9.83999984711409 912
9.85999984666705 926
9.87999984622002 885
9.89999984577298 847
9.91999984532595 892
9.93999984487891 924
9.95999984443188 915
9.97999984398484 944
9.99999984353781 944
10.0199998430908 896
10.0399998426437 904
10.0599998421967 889
10.0799998417497 824
10.0999998413026 936
10.1199998408556 969
10.1399998404086 867
10.1599998399615 942
10.1799998395145 908
10.1999998390675 881
10.2199998386204 929
10.2399998381734 871
10.2599998377264 896
10.2799998372793 891
10.2999998368323 900
10.3199998363853 873
10.3399998359382 906
10.3599998354912 895
10.3799998350441 919
10.3999998345971 884
10.4199998341501 934
10.439999833703 933
10.459999833256 896
10.479999832809 898
10.4999998323619 885
10.5199998319149 906
10.5399998314679 860
10.5599998310208 884
10.5799998305738 927
10.5999998301268 859
10.6199998296797 930
10.6399998292327 893
10.6599998287857 915
10.6799998283386 945
10.6999998278916 902
10.7199998274446 878
10.7399998269975 953
10.7599998265505 862
10.7799998261034 914
10.7999998256564 926
10.8199998252094 912
10.8399998247623 898
10.8599998243153 880
10.8799998238683 918
10.8999998234212 894
10.9199998229742 866
10.9399998225272 877
10.9599998220801 854
10.9799998216331 919
10.9999998211861 855
11.019999820739 906
11.039999820292 856
11.059999819845 886
11.0799998193979 884
11.0999998189509 854
11.1199998185039 838
11.1399998180568 909
11.1599998176098 916
11.1799998171628 914
11.1999998167157 905
11.2199998162687 846
11.2399998158216 903
11.2599998153746 953
11.2799998149276 943
11.2999998144805 936
11.3199998140335 829
11.3399998135865 882
11.3599998131394 880
11.3799998126924 865
11.3999998122454 842
11.4199998117983 915
11.4399998113513 903
11.4599998109043 876
11.4799998104572 903
11.4999998100102 933
11.5199998095632 932
11.5399998091161 932
11.5599998086691 896
11.5799998082221 880
11.599999807775 846
11.619999807328 873
11.639999806881 892
11.6599998064339 893
11.6799998059869 917
11.6999998055398 906
11.7199998050928 911
11.7399998046458 908
11.7599998041987 907
11.7799998037517 881
11.7999998033047 899
11.8199998028576 885
11.8399998024106 858
11.8599998019636 880
11.8799998015165 898
11.8999998010695 935
11.9199998006225 947
11.9399998001754 893
11.9599997997284 933
11.9799997992814 896
11.9999997988343 947
12.0199997983873 946
12.0399997979403 918
12.0599997974932 965
12.0799997970462 931
12.0999997965992 902
12.1199997961521 957
12.1399997957051 908
12.159999795258 850
12.179999794811 973
12.199999794364 935
12.2199997939169 914
12.2399997934699 895
12.2599997930229 946
12.2799997925758 916
12.2999997921288 933
12.3199997916818 933
12.3399997912347 920
12.3599997907877 923
12.3799997903407 984
12.3999997898936 895
12.4199997894466 959
12.4399997889996 866
12.4599997885525 930
12.4799997881055 919
12.4999997876585 899
12.5199997872114 943
12.5399997867644 957
12.5599997863173 930
12.5799997858703 924
12.5999997854233 907
12.6199997849762 968
12.6399997845292 918
12.6599997840822 937
12.6799997836351 908
12.6999997831881 970
12.7199997827411 927
12.739999782294 974
12.759999781847 930
12.7799997814 907
12.7999997809529 893
12.8199997805059 1042
12.8399997800589 948
12.8599997796118 995
12.8799997791648 972
12.8999997787178 969
12.9199997782707 964
12.9399997778237 1009
12.9599997773767 977
12.9799997769296 997
12.9999997764826 991
13.0199997760355 952
13.0399997755885 973
13.0599997751415 1008
13.0799997746944 1036
13.0999997742474 1005
13.1199997738004 974
13.1399997733533 978
13.1599997729063 954
13.1799997724593 1016
13.1999997720122 1045
13.2199997715652 985
13.2399997711182 1026
13.2599997706711 1042
13.2799997702241 1028
13.2999997697771 993
13.31999976933 1006
13.339999768883 995
13.359999768436 995
13.3799997679889 1008
13.3999997675419 992
13.4199997670949 1000
13.4399997666478 995
13.4599997662008 1009
13.4799997657537 1015
13.4999997653067 968
13.5199997648597 974
13.5399997644126 988
13.5599997639656 1056
13.5799997635186 1012
13.5999997630715 1012
13.6199997626245 1021
13.6399997621775 1038
13.6599997617304 999
13.6799997612834 1008
13.6999997608364 997
13.7199997603893 997
13.7399997599423 1013
13.7599997594953 1026
13.7799997590482 1063
13.7999997586012 1083
13.8199997581542 1078
13.8399997577071 1001
13.8599997572601 992
13.879999756813 1044
13.899999756366 1060
13.919999755919 992
13.9399997554719 1096
13.9599997550249 1108
13.9799997545779 1038
13.9999997541308 1000
14.0199997536838 1058
14.0399997532368 1092
14.0599997527897 1098
14.0799997523427 1048
14.0999997518957 1070
14.1199997514486 1093
14.1399997510016 1071
14.1599997505546 1048
14.1799997501075 1126
14.1999997496605 1088
14.2199997492135 1085
14.2399997487664 1094
14.2599997483194 1120
14.2799997478724 1079
14.2999997474253 1048
14.3199997469783 1060
14.3399997465312 1119
14.3599997460842 1105
14.3799997456372 1069
14.3999997451901 1034
14.4199997447431 1079
14.4399997442961 1054
14.459999743849 1124
14.479999743402 1057
14.499999742955 1104
14.5199997425079 1117
14.5399997420609 1135
14.5599997416139 1092
14.5799997411668 1117
14.5999997407198 1086
14.6199997402728 1078
14.6399997398257 1098
14.6599997393787 1160
14.6799997389317 1141
14.6999997384846 1115
14.7199997380376 1088
14.7399997375906 1132
14.7599997371435 1170
14.7799997366965 1166
14.7999997362494 1183
14.8199997358024 1101
14.8399997353554 1144
14.8599997349083 1178
14.8799997344613 1200
14.8999997340143 1176
14.9199997335672 1160
14.9399997331202 1136
14.9599997326732 1195
14.9799997322261 1151
14.9999997317791 1169
15.0199997313321 1185
15.039999730885 1140
15.059999730438 1169
15.079999729991 1099
15.0999997295439 1161
15.1199997290969 1151
15.1399997286499 1177
15.1599997282028 1199
15.1799997277558 1188
15.1999997273088 1213
15.2199997268617 1141
15.2399997264147 1198
15.2599997259676 1228
15.2799997255206 1143
15.2999997250736 1213
15.3199997246265 1225
15.3399997241795 1257
15.3599997237325 1247
15.3799997232854 1265
15.3999997228384 1240
15.4199997223914 1320
15.4399997219443 1317
15.4599997214973 1189
15.4799997210503 1274
15.4999997206032 1210
15.5199997201562 1288
15.5399997197092 1231
15.5599997192621 1242
15.5799997188151 1287
15.5999997183681 1230
15.619999717921 1268
15.639999717474 1260
15.659999717027 1236
15.6799997165799 1273
15.6999997161329 1301
15.7199997156858 1273
15.7399997152388 1303
15.7599997147918 1210
15.7799997143447 1277
15.7999997138977 1284
15.8199997134507 1265
15.8399997130036 1268
15.8599997125566 1349
15.8799997121096 1301
15.8999997116625 1333
15.9199997112155 1405
15.9399997107685 1326
15.9599997103214 1324
15.9799997098744 1346
15.9999997094274 1363
16.0199997089803 1355
16.0399997085333 1375
16.0599997080863 1366
16.0799997076392 1284
16.0999997071922 1290
16.1199997067451 1376
16.1399997062981 1310
16.1599997058511 1433
16.179999705404 1370
16.199999704957 1366
16.21999970451 1372
16.2399997040629 1396
16.2599997036159 1358
16.2799997031689 1381
16.2999997027218 1396
16.3199997022748 1432
16.3399997018278 1442
16.3599997013807 1412
16.3799997009337 1476
16.3999997004867 1406
16.4199997000396 1411
16.4399996995926 1443
16.4599996991456 1418
16.4799996986985 1429
16.4999996982515 1454
16.5199996978045 1456
16.5399996973574 1429
16.5599996969104 1478
16.5799996964633 1523
16.5999996960163 1494
16.6199996955693 1580
16.6399996951222 1488
16.6599996946752 1537
16.6799996942282 1505
16.6999996937811 1605
16.7199996933341 1627
16.7399996928871 1702
16.75999969244 1601
16.779999691993 1721
16.799999691546 1763
16.8199996910989 1862
16.8399996906519 1965
16.8599996902049 2102
16.8799996897578 2216
16.8999996893108 2509
16.9199996888638 2663
16.9399996884167 3059
16.9599996879697 3306
16.9799996875226 3482
16.9999996870756 3769
17.0199996866286 3746
17.0399996861815 3595
17.0599996857345 3357
17.0799996852875 2725
17.0999996848404 2245
17.1199996843934 2075
17.1399996839464 1749
17.1599996834993 1697
17.1799996830523 1599
17.1999996826053 1674
17.2199996821582 1658
17.2399996817112 1604
17.2599996812642 1663
17.2799996808171 1686
17.2999996803701 1566
17.3199996799231 1618
17.339999679476 1625
17.359999679029 1591
17.379999678582 1655
17.3999996781349 1601
17.4199996776879 1631
17.4399996772408 1593
17.4599996767938 1625
17.4799996763468 1700
17.4999996758997 1601
17.5199996754527 1621
17.5399996750057 1645
17.5599996745586 1662
17.5799996741116 1622
17.5999996736646 1785
17.6199996732175 1674
17.6399996727705 1720
17.6599996723235 1719
17.6799996718764 1748
17.6999996714294 1773
17.7199996709824 1617
17.7399996705353 1686
17.7599996700883 1632
17.7799996696413 1701
17.7999996691942 1754
17.8199996687472 1756
17.8399996683002 1697
17.8599996678531 1695
17.8799996674061 1672
17.899999666959 1685
17.919999666512 1763
17.939999666065 1751
17.9599996656179 1675
17.9799996651709 1733
17.9999996647239 1718
18.0199996642768 1806
18.0399996638298 1762
18.0599996633828 1786
18.0799996629357 1701
18.0999996624887 1758
18.1199996620417 1799
18.1399996615946 1804
18.1599996611476 1810
18.1799996607006 1728
18.1999996602535 1738
18.2199996598065 1844
18.2399996593595 1847
18.2599996589124 1852
18.2799996584654 1856
18.2999996580184 1849
18.3199996575713 1874
18.3399996571243 1848
18.3599996566772 1949
18.3799996562302 1904
18.3999996557832 1817
18.4199996553361 1916
18.4399996548891 1910
18.4599996544421 1914
18.479999653995 1848
18.499999653548 1875
18.519999653101 1913
18.5399996526539 1904
18.5599996522069 1899
18.5799996517599 1852
18.5999996513128 1899
18.6199996508658 1919
18.6399996504188 1961
18.6599996499717 2029
18.6799996495247 1937
18.6999996490777 1908
18.7199996486306 1907
18.7399996481836 1886
18.7599996477366 1918
18.7799996472895 1952
18.7999996468425 2084
18.8199996463954 1938
18.8399996459484 1871
18.8599996455014 1980
18.8799996450543 1962
18.8999996446073 1971
18.9199996441603 1909
18.9399996437132 1974
18.9599996432662 2066
18.9799996428192 2029
18.9999996423721 1989
19.0199996419251 1966
19.0399996414781 1913
19.059999641031 1998
19.079999640584 2044
19.099999640137 2005
19.1199996396899 2030
19.1399996392429 2071
19.1599996387959 2016
19.1799996383488 2047
19.1999996379018 2084
19.2199996374547 2109
19.2399996370077 2057
19.2599996365607 1986
19.2799996361136 2106
19.2999996356666 2099
19.3199996352196 2044
19.3399996347725 2031
19.3599996343255 2042
19.3799996338785 2059
19.3999996334314 2051
19.4199996329844 2061
19.4399996325374 2107
19.4599996320903 2117
19.4799996316433 2079
19.4999996311963 2092
19.5199996307492 2097
19.5399996303022 2144
19.5599996298552 2111
19.5799996294081 2100
19.5999996289611 2169
19.6199996285141 2197
19.639999628067 2167
19.65999962762 2138
19.6799996271729 2141
19.6999996267259 2062
19.7199996262789 2171
19.7399996258318 2220
19.7599996253848 2059
19.7799996249378 2171
19.7999996244907 2105
19.8199996240437 2107
19.8399996235967 2169
19.8599996231496 2127
19.8799996227026 2134
19.8999996222556 2154
19.9199996218085 2243
19.9399996213615 2184
19.9599996209145 2198
19.9799996204674 2119
19.9999996200204 2123
20.0199996195734 2209
20.0399996191263 2182
20.0599996186793 2252
20.0799996182322 2183
20.0999996177852 2250
20.1199996173382 2329
20.1399996168911 2232
20.1599996164441 2265
20.1799996159971 2227
20.19999961555 2290
20.219999615103 2271
20.239999614656 2278
20.2599996142089 2282
20.2799996137619 2194
20.2999996133149 2244
20.3199996128678 2270
20.3399996124208 2254
20.3599996119738 2268
20.3799996115267 2263
20.3999996110797 2354
20.4199996106327 2361
20.4399996101856 2239
20.4599996097386 2314
20.4799996092916 2257
20.4999996088445 2309
20.5199996083975 2261
20.5399996079504 2270
20.5599996075034 2246
20.5799996070564 2349
20.5999996066093 2240
20.6199996061623 2344
20.6399996057153 2307
20.6599996052682 2218
20.6799996048212 2376
20.6999996043742 2316
20.7199996039271 2285
20.7399996034801 2267
20.7599996030331 2271
20.779999602586 2441
20.799999602139 2358
20.819999601692 2317
20.8399996012449 2303
20.8599996007979 2331
20.8799996003509 2229
20.8999995999038 2291
20.9199995994568 2295
20.9399995990098 2345
20.9599995985627 2280
20.9799995981157 2384
20.9999995976686 2404
21.0199995972216 2388
21.0399995967746 2330
21.0599995963275 2316
21.0799995958805 2328
21.0999995954335 2318
21.1199995949864 2395
21.1399995945394 2371
21.1599995940924 2293
21.1799995936453 2350
21.1999995931983 2300
21.2199995927513 2252
21.2399995923042 2313
21.2599995918572 2330
21.2799995914102 2295
21.2999995909631 2296
21.3199995905161 2320
21.3399995900691 2386
21.359999589622 2371
21.379999589175 2354
21.399999588728 2382
21.4199995882809 2337
21.4399995878339 2324
21.4599995873868 2288
21.4799995869398 2402
21.4999995864928 2292
21.5199995860457 2267
21.5399995855987 2279
21.5599995851517 2332
21.5799995847046 2334
21.5999995842576 2353
21.6199995838106 2390
21.6399995833635 2380
21.6599995829165 2398
21.6799995824695 2349
21.6999995820224 2336
21.7199995815754 2297
21.7399995811284 2415
21.7599995806813 2345
21.7799995802343 2268
21.7999995797873 2374
21.8199995793402 2348
21.8399995788932 2298
21.8599995784462 2344
21.8799995779991 2348
21.8999995775521 2362
21.919999577105 2245
21.939999576658 2324
21.959999576211 2404
21.9799995757639 2353
21.9999995753169 2306
22.0199995748699 2252
22.0399995744228 2386
22.0599995739758 2419
22.0799995735288 2407
22.0999995730817 2352
22.1199995726347 2305
22.1399995721877 2339
22.1599995717406 2298
22.1799995712936 2313
22.1999995708466 2319
22.2199995703995 2377
22.2399995699525 2361
22.2599995695055 2366
22.2799995690584 2269
22.2999995686114 2311
22.3199995681643 2394
22.3399995677173 2274
22.3599995672703 2348
22.3799995668232 2286
22.3999995663762 2324
22.4199995659292 2314
22.4399995654821 2339
22.4599995650351 2296
22.4799995645881 2253
22.499999564141 2325
22.519999563694 2335
22.539999563247 2288
22.5599995627999 2242
22.5799995623529 2306
22.5999995619059 2325
22.6199995614588 2325
22.6399995610118 2283
22.6599995605648 2287
22.6799995601177 2319
22.6999995596707 2327
22.7199995592237 2257
22.7399995587766 2390
22.7599995583296 2307
22.7799995578825 2308
22.7999995574355 2368
22.8199995569885 2302
22.8399995565414 2456
22.8599995560944 2325
22.8799995556474 2284
22.8999995552003 2282
22.9199995547533 2271
22.9399995543063 2276
22.9599995538592 2278
22.9799995534122 2274
22.9999995529652 2277
23.0199995525181 2279
23.0399995520711 2219
23.0599995516241 2301
23.079999551177 2220
23.09999955073 2251
23.119999550283 2310
23.1399995498359 2310
23.1599995493889 2349
23.1799995489418 2238
23.1999995484948 2204
23.2199995480478 2290
23.2399995476007 2180
23.2599995471537 2265
23.2799995467067 2304
23.2999995462596 2289
23.3199995458126 2238
23.3399995453656 2214
23.3599995449185 2318
23.3799995444715 2316
23.3999995440245 2271
23.4199995435774 2324
23.4399995431304 2158
23.4599995426834 2233
23.4799995422363 2290
23.4999995417893 2358
23.5199995413423 2236
23.5399995408952 2217
23.5599995404482 2304
23.5799995400012 2260
23.5999995395541 2276
23.6199995391071 2206
23.63999953866 2167
23.659999538213 2156
23.679999537766 2197
23.6999995373189 2236
23.7199995368719 2189
23.7399995364249 2109
23.7599995359778 2204
23.7799995355308 2152
23.7999995350838 2220
23.8199995346367 2270
23.8399995341897 2159
23.8599995337427 2129
23.8799995332956 2181
23.8999995328486 2250
23.9199995324016 2230
23.9399995319545 2141
23.9599995315075 2114
23.9799995310605 2172
23.9999995306134 2131
24.0199995301664 2138
24.0399995297194 2160
24.0599995292723 2125
24.0799995288253 2140
24.0999995283782 2188
24.1199995279312 2190
24.1399995274842 2176
24.1599995270371 2135
24.1799995265901 2176
24.1999995261431 2174
24.219999525696 2218
24.239999525249 2219
24.259999524802 2266
24.2799995243549 2261
24.2999995239079 2260
24.3199995234609 2288
24.3399995230138 2226
24.3599995225668 2201
24.3799995221198 2220
24.3999995216727 2416
24.4199995212257 2373
24.4399995207787 2450
24.4599995203316 2476
24.4799995198846 2445
24.4999995194376 2507
24.5199995189905 2612
24.5399995185435 2688
24.5599995180964 2641
24.5799995176494 2688
24.5999995172024 2600
24.6199995167553 2524
24.6399995163083 2493
24.6599995158613 2360
24.6799995154142 2355
24.6999995149672 2227
24.7199995145202 2214
24.7399995140731 2221
24.7599995136261 2179
24.7799995131791 2198
24.799999512732 2171
24.819999512285 2108
24.839999511838 2124
24.8599995113909 2080
24.8799995109439 2116
24.8999995104969 2066
24.9199995100498 2067
24.9399995096028 2032
24.9599995091558 2147
24.9799995087087 2107
24.9999995082617 2066
25.0199995078146 2109
25.0399995073676 2232
25.0599995069206 2195
25.0799995064735 2213
25.0999995060265 2192
25.1199995055795 2193
25.1399995051324 2311
25.1599995046854 2450
25.1799995042384 2417
25.1999995037913 2712
25.2199995033443 2760
25.2399995028973 2881
25.2599995024502 3056
25.2799995020032 3141
25.2999995015562 3224
25.3199995011091 3300
25.3399995006621 3174
25.3599995002151 3092
25.379999499768 2815
25.399999499321 2638
25.4199994988739 2530
25.4399994984269 2314
25.4599994979799 2209
25.4799994975328 2189
25.4999994970858 2135
25.5199994966388 2005
25.5399994961917 2130
25.5599994957447 2050
25.5799994952977 1927
25.5999994948506 1929
25.6199994944036 1997
25.6399994939566 2030
25.6599994935095 1981
25.6799994930625 1970
25.6999994926155 1927
25.7199994921684 1999
25.7399994917214 1941
25.7599994912744 1978
25.7799994908273 1949
25.7999994903803 1998
25.8199994899333 1929
25.8399994894862 2007
25.8599994890392 1923
25.8799994885921 1929
25.8999994881451 1847
25.9199994876981 1821
25.939999487251 1823
25.959999486804 1900
25.979999486357 1918
25.9999994859099 1914
26.0199994854629 1960
26.0399994850159 1931
26.0599994845688 1860
26.0799994841218 1839
26.0999994836748 1810
26.1199994832277 1842
26.1399994827807 1810
26.1599994823337 1833
26.1799994818866 1876
26.1999994814396 1814
26.2199994809926 1773
26.2399994805455 1809
26.2599994800985 1798
26.2799994796514 1850
26.2999994792044 1855
26.3199994787574 1871
26.3399994783103 1808
26.3599994778633 1831
26.3799994774163 1846
26.3999994769692 1831
26.4199994765222 1821
26.4399994760752 1766
26.4599994756281 1809
26.4799994751811 1828
26.4999994747341 1844
26.519999474287 1843
26.53999947384 1802
26.559999473393 1881
26.5799994729459 1887
26.5999994724989 1881
26.6199994720519 1926
26.6399994716048 1982
26.6599994711578 1999
26.6799994707108 2078
26.6999994702637 2101
26.7199994698167 2213
26.7399994693697 2199
26.7599994689226 2240
26.7799994684756 2316
26.7999994680285 2337
26.8199994675815 2345
26.8399994671345 2467
26.8599994666874 2518
26.8799994662404 2543
26.8999994657934 2627
26.9199994653463 2787
26.9399994648993 2672
26.9599994644523 2697
26.9799994640052 2362
26.9999994635582 2299
27.0199994631112 2195
27.0399994626641 2080
27.0599994622171 2007
27.0799994617701 1950
27.099999461323 1882
27.119999460876 1876
27.139999460429 1839
27.1599994599819 1811
27.1799994595349 1802
27.1999994590878 1737
27.2199994586408 1824
27.2399994581938 1698
27.2599994577467 1736
27.2799994572997 1782
27.2999994568527 1711
27.3199994564056 1717
27.3399994559586 1669
27.3599994555116 1794
27.3799994550645 1686
27.3999994546175 1730
27.4199994541705 1651
27.4399994537234 1647
27.4599994532764 1733
27.4799994528294 1696
27.4999994523823 1749
27.5199994519353 1705
27.5399994514883 1670
27.5599994510412 1659
27.5799994505942 1650
27.5999994501472 1677
27.6199994497001 1650
27.6399994492531 1666
27.659999448806 1655
27.679999448359 1659
27.699999447912 1684
27.7199994474649 1647
27.7399994470179 1669
27.7599994465709 1676
27.7799994461238 1662
27.7999994456768 1639
27.8199994452298 1724
27.8399994447827 1652
27.8599994443357 1666
27.8799994438887 1616
27.8999994434416 1569
27.9199994429946 1640
27.9399994425476 1612
27.9599994421005 1622
27.9799994416535 1640
27.9999994412065 1635
28.0199994407594 1589
28.0399994403124 1581
28.0599994398654 1615
28.0799994394183 1647
28.0999994389713 1636
28.1199994385242 1643
28.1399994380772 1642
28.1599994376302 1675
28.1799994371831 1631
28.1999994367361 1664
28.2199994362891 1653
28.239999435842 1608
28.259999435395 1588
28.279999434948 1588
28.2999994345009 1539
28.3199994340539 1508
28.3399994336069 1592
28.3599994331598 1628
28.3799994327128 1552
28.3999994322658 1620
28.4199994318187 1566
28.4399994313717 1591
28.4599994309247 1615
28.4799994304776 1620
28.4999994300306 1534
28.5199994295835 1518
28.5399994291365 1605
28.5599994286895 1560
28.5799994282424 1589
28.5999994277954 1643
28.6199994273484 1635
28.6399994269013 1626
28.6599994264543 1554
28.6799994260073 1611
28.6999994255602 1578
28.7199994251132 1642
28.7399994246662 1549
28.7599994242191 1528
28.7799994237721 1566
28.7999994233251 1503
28.819999422878 1544
28.839999422431 1526
28.859999421984 1593
28.8799994215369 1543
28.8999994210899 1542
28.9199994206429 1559
28.9399994201958 1557
28.9599994197488 1570
28.9799994193017 1578
28.9999994188547 1575
29.0199994184077 1611
29.0399994179606 1619
29.0599994175136 1589
29.0799994170666 1510
29.0999994166195 1635
29.1199994161725 1574
29.1399994157255 1620
29.1599994152784 1655
29.1799994148314 1700
29.1999994143844 1682
29.2199994139373 1674
29.2399994134903 1671
29.2599994130433 1645
29.2799994125962 1670
29.2999994121492 1655
29.3199994117022 1546
29.3399994112551 1566
29.3599994108081 1604
29.379999410361 1491
29.399999409914 1563
29.419999409467 1503
29.4399994090199 1485
29.4599994085729 1547
29.4799994081259 1523
29.4999994076788 1467
29.5199994072318 1471
29.5399994067848 1459
29.5599994063377 1465
29.5799994058907 1453
29.5999994054437 1474
29.6199994049966 1434
29.6399994045496 1444
29.6599994041026 1479
29.6799994036555 1446
29.6999994032085 1487
29.7199994027615 1433
29.7399994023144 1387
29.7599994018674 1391
29.7799994014204 1390
29.7999994009733 1469
29.8199994005263 1428
29.8399994000793 1484
29.8599993996322 1380
29.8799993991852 1426
29.8999993987381 1457
29.9199993982911 1389
29.9399993978441 1376
29.959999397397 1421
29.97999939695 1371
29.999999396503 1439
