3 2162
3.01999999955297 1892
3.03999999910593 1784
3.0599999986589 1688
3.07999999821186 1528
3.09999999776483 1480
3.11999999731779 1513
3.13999999687076 1411
3.15999999642372 1419
3.17999999597669 1374
3.19999999552965 1330
3.21999999508262 1328
3.23999999463558 1317
3.25999999418855 1368
3.27999999374151 1304
3.29999999329448 1306
3.31999999284744 1255
3.33999999240041 1256
3.35999999195337 1233
3.37999999150634 1229
3.3999999910593 1250
3.41999999061227 1325
3.43999999016523 1219
3.4599999897182 1214
3.47999998927116 1217
3.49999998882413 1210
3.51999998837709 1142
3.53999998793006 1096
3.55999998748302 1144
3.57999998703599 1199
3.59999998658895 1182
3.61999998614192 1080
3.63999998569489 1148
3.65999998524785 1119
3.67999998480082 1098
3.69999998435378 1122
3.71999998390675 1076
3.73999998345971 1075
3.75999998301268 1114
3.77999998256564 1150
3.79999998211861 1070
3.81999998167157 1060
3.83999998122454 1110
3.8599999807775 1045
3.87999998033047 1037
3.89999997988343 1022
3.9199999794364 1094
3.93999997898936 1037
3.95999997854233 1029
3.97999997809529 1043
3.99999997764826 1035
4.01999997720122 1041
4.03999997675419 973
4.05999997630715 1012
4.07999997586012 1022
4.09999997541308 956
4.11999997496605 985
4.13999997451901 1001
4.15999997407198 1027
4.17999997362494 992
4.19999997317791 984
4.21999997273087 984
4.23999997228384 936
4.25999997183681 956
4.27999997138977 902
4.29999997094274 956
4.3199999704957 975
4.33999997004867 959
4.35999996960163 996
4.3799999691546 994
4.39999996870756 973
4.41999996826053 918
4.43999996781349 958
4.45999996736646 984
4.47999996691942 931
4.49999996647239 965
4.51999996602535 925
4.53999996557832 923
4.55999996513128 924
4.57999996468425 962
4.59999996423721 951
4.61999996379018 998
4.63999996334314 973
4.65999996289611 992
4.67999996244907 934
4.69999996200204 988
4.719999961555 976
4.73999996110797 916
4.75999996066093 950
4.7799999602139 966
4.79999995976686 949
4.81999995931983 983
4.83999995887279 958
4.85999995842576 906
4.87999995797873 1001
4.89999995753169 929
4.91999995708466 939
4.93999995663762 1019
4.95999995619059 948
4.97999995574355 996
4.99999995529652 998
5.01999995484948 967
5.03999995440245 999
5.05999995395541 1046
5.07999995350838 1023
5.09999995306134 1041
5.11999995261431 1074
5.13999995216727 1098
5.15999995172024 1103
5.1799999512732 1090
5.19999995082617 1088
5.21999995037913 1125
5.2399999499321 1134
5.25999994948506 1222
5.27999994903803 1213
5.29999994859099 1247
5.31999994814396 1355
5.33999994769692 1309
5.35999994724989 1375
5.37999994680285 1444
5.39999994635582 1524
5.41999994590878 1511
5.43999994546175 1702
5.45999994501471 1734
5.47999994456768 1841
5.49999994412065 1999
5.51999994367361 2185
5.53999994322658 2265
5.55999994277954 2281
5.57999994233251 2105
5.59999994188547 1825
5.61999994143844 1590
5.6399999409914 1409
5.65999994054437 1356
5.67999994009733 1236
5.6999999396503 1214
5.71999993920326 1182
5.73999993875623 1106
5.75999993830919 1058
5.77999993786216 1083
5.79999993741512 963
5.81999993696809 994
5.83999993652105 953
5.85999993607402 954
5.87999993562698 954
5.89999993517995 949
5.91999993473291 940
5.93999993428588 911
5.95999993383884 927
5.97999993339181 875
5.99999993294477 872
6.01999993249774 889
6.0399999320507 817
6.05999993160367 798
6.07999993115663 839
6.0999999307096 829
6.11999993026257 802
6.13999992981553 826
6.1599999293685 781
6.17999992892146 839
6.19999992847443 841
6.21999992802739 796
6.23999992758036 802
6.25999992713332 788
6.27999992668629 784
6.29999992623925 731
6.31999992579222 805
6.33999992534518 822
6.35999992489815 739
6.37999992445111 807
6.39999992400408 795
6.41999992355704 799
6.43999992311001 763
6.45999992266297 766
6.47999992221594 752
6.4999999217689 771
6.51999992132187 788
6.53999992087483 751
6.5599999204278 730
6.57999991998076 753
6.59999991953373 713
6.61999991908669 712
6.63999991863966 789
6.65999991819262 730
6.67999991774559 717
6.69999991729855 773
6.71999991685152 793
6.73999991640449 820
6.75999991595745 748
6.77999991551042 766
6.79999991506338 708
6.81999991461635 692
6.83999991416931 730
6.85999991372228 785
6.87999991327524 712
6.89999991282821 762
6.91999991238117 784
6.93999991193414 758
6.9599999114871 694
6.97999991104007 712
6.99999991059303 714
7.019999910146 707
7.03999990969896 754
7.05999990925193 722
7.07999990880489 726
7.09999990835786 768
7.11999990791082 766
7.13999990746379 754
7.15999990701675 713
7.17999990656972 711
7.19999990612268 726
7.21999990567565 724
7.23999990522861 743
7.25999990478158 737
7.27999990433454 747
7.29999990388751 718
7.31999990344047 717
7.33999990299344 690
7.35999990254641 717
7.37999990209937 759
7.39999990165234 767
7.4199999012053 759
7.43999990075827 751
7.45999990031123 716
7.4799998998642 710
7.49999989941716 706
7.51999989897013 675
7.53999989852309 673
7.55999989807606 694
7.57999989762902 706
7.59999989718199 722
7.61999989673495 769
7.63999989628792 713
7.65999989584088 803
7.67999989539385 712
7.69999989494681 714
7.71999989449978 776
7.73999989405274 747
7.75999989360571 699
7.77999989315867 696
7.79999989271164 709
7.8199998922646 731
7.83999989181757 808
7.85999989137053 718
7.8799998909235 744
7.89999989047646 724
7.91999989002943 730
7.9399998895824 751
7.95999988913536 660
7.97999988868833 769
7.99999988824129 713
8.01999988779426 746
8.03999988734722 712
8.05999988690019 723
8.07999988645315 693
8.09999988600612 744
8.11999988555908 726
8.13999988511205 719
8.15999988466501 743
8.17999988421798 769
8.19999988377094 716
8.21999988332391 694
8.23999988287687 734
8.25999988242984 757
8.2799998819828 742
8.29999988153577 712
8.31999988108873 748
8.3399998806417 754
8.35999988019466 732
8.37999987974763 702
8.39999987930059 794
8.41999987885356 753
8.43999987840652 691
8.45999987795949 714
8.47999987751245 736
8.49999987706542 752
8.51999987661839 789
8.53999987617135 715
8.55999987572432 718
8.57999987527728 780
8.59999987483025 774
8.61999987438321 737
8.63999987393618 756
8.65999987348914 739
8.67999987304211 740
8.69999987259507 719
8.71999987214804 741
8.739999871701 747
8.75999987125397 747
8.77999987080693 760
8.7999998703599 747
8.81999986991286 773
8.83999986946583 754
8.85999986901879 770
8.87999986857176 730
8.89999986812472 775
8.91999986767769 757
8.93999986723065 801
8.95999986678362 762
8.97999986633658 807
8.99999986588955 792
9.01999986544251 824
9.03999986499548 764
9.05999986454844 813
9.07999986410141 793
9.09999986365438 780
9.11999986320734 800
9.13999986276031 860
9.15999986231327 849
9.17999986186624 854
9.1999998614192 840
9.21999986097217 848
9.23999986052513 901
9.2599998600781 928
9.27999985963106 900
9.29999985918403 934
9.31999985873699 1058
9.33999985828996 1144
9.35999985784292 1116
9.37999985739589 1207
9.39999985694885 1222
9.41999985650182 1201
9.43999985605478 1293
9.45999985560775 1326
9.47999985516071 1263
9.49999985471368 1116
9.51999985426664 989
9.53999985381961 936
9.55999985337257 885
9.57999985292554 852
9.5999998524785 883
9.61999985203147 831
9.63999985158443 778
9.6599998511374 821
9.67999985069037 829
9.69999985024333 843
9.7199998497963 818
9.73999984934926 759
9.75999984890223 792
9.77999984845519 751
9.79999984800816 766
9.81999984756112 782
9.83999984711409 820
9.85999984666705 834
9.87999984622002 762
9.89999984577298 806
9.91999984532595 783
9.93999984487891 823
9.95999984443188 771
9.97999984398484 756
9.99999984353781 777
10.0199998430908 779
10.0399998426437 807
10.0599998421967 790
10.0799998417497 791
10.0999998413026 788
10.1199998408556 772
10.1399998404086 776
10.1599998399615 806
10.1799998395145 766
10.1999998390675 772
10.2199998386204 823
10.2399998381734 806
10.2599998377264 840
10.2799998372793 805
10.2999998368323 772
10.3199998363853 821
10.3399998359382 762
10.3599998354912 784
10.3799998350441 777
10.3999998345971 811
10.4199998341501 775
10.439999833703 860
10.459999833256 773
10.479999832809 866
10.4999998323619 830
10.5199998319149 838
10.5399998314679 762
10.5599998310208 825
10.5799998305738 836
10.5999998301268 840
10.6199998296797 834
10.6399998292327 845
10.6599998287857 857
10.6799998283386 910
10.6999998278916 841
10.7199998274446 926
10.7399998269975 898
10.7599998265505 947
10.7799998261034 1050
10.7999998256564 1064
10.8199998252094 1155
10.8399998247623 1141
10.8599998243153 1102
10.8799998238683 1180
10.8999998234212 1108
10.9199998229742 1134
10.9399998225272 1127
10.9599998220801 1032
10.9799998216331 982
10.9999998211861 951
11.019999820739 903
11.039999820292 938
11.059999819845 852
11.0799998193979 909
11.0999998189509 917
11.1199998185039 859
11.1399998180568 837
11.1599998176098 833
11.1799998171628 829
11.1999998167157 870
11.2199998162687 814
11.2399998158216 847
11.2599998153746 842
11.2799998149276 847
11.2999998144805 820
11.3199998140335 805
11.3399998135865 797
11.3599998131394 831
11.3799998126924 802
11.3999998122454 828
11.4199998117983 815
11.4399998113513 807
11.4599998109043 766
11.4799998104572 775
11.4999998100102 779
11.5199998095632 824
11.5399998091161 809
11.5599998086691 836
11.5799998082221 831
11.599999807775 897
11.619999807328 844
11.639999806881 885
11.6599998064339 796
11.6799998059869 863
11.6999998055398 785
11.7199998050928 796
11.7399998046458 835
11.7599998041987 863
11.7799998037517 818
11.7999998033047 854
11.8199998028576 867
11.8399998024106 800
11.8599998019636 847
11.8799998015165 819
11.8999998010695 864
11.9199998006225 831
11.9399998001754 859
11.9599997997284 839
11.9799997992814 798
11.9999997988343 849
12.0199997983873 881
12.0399997979403 891
12.0599997974932 853
12.0799997970462 850
12.0999997965992 844
12.1199997961521 872
12.1399997957051 835
12.159999795258 913
12.179999794811 897
12.199999794364 892
12.2199997939169 901
12.2399997934699 925
12.2599997930229 930
12.2799997925758 886
12.2999997921288 894
12.3199997916818 919
12.3399997912347 930
12.3599997907877 907
12.3799997903407 877
12.3999997898936 935
12.4199997894466 896
12.4399997889996 876
12.4599997885525 869
12.4799997881055 876
12.4999997876585 889
12.5199997872114 882
12.5399997867644 886
12.5599997863173 824
12.5799997858703 922
12.5999997854233 876
12.6199997849762 895
12.6399997845292 856
12.6599997840822 901
12.6799997836351 899
12.6999997831881 934
12.7199997827411 854
12.739999782294 857
12.759999781847 846
12.7799997814 927
12.7999997809529 897
12.8199997805059 873
12.8399997800589 891
12.8599997796118 899
12.8799997791648 893
12.8999997787178 875
12.9199997782707 856
12.9399997778237 870
12.9599997773767 955
12.9799997769296 929
12.9999997764826 967
13.0199997760355 895
13.0399997755885 880
13.0599997751415 931
13.0799997746944 867
13.0999997742474 938
13.1199997738004 913
13.1399997733533 967
13.1599997729063 947
13.1799997724593 924
13.1999997720122 902
13.2199997715652 975
13.2399997711182 913
13.2599997706711 953
13.2799997702241 943
13.2999997697771 935
13.31999976933 953
13.339999768883 927
13.359999768436 962
13.3799997679889 951
13.3999997675419 985
13.4199997670949 1038
13.4399997666478 952
13.4599997662008 890
13.4799997657537 919
13.4999997653067 912
13.5199997648597 976
13.5399997644126 912
13.5599997639656 949
13.5799997635186 980
13.5999997630715 951
13.6199997626245 982
13.6399997621775 987
13.6599997617304 958
13.6799997612834 1003
13.6999997608364 912
13.7199997603893 956
13.7399997599423 966
13.7599997594953 982
13.7799997590482 982
13.7999997586012 939
13.8199997581542 912
13.8399997577071 960
13.8599997572601 927
13.879999756813 969
13.899999756366 951
13.919999755919 1030
13.9399997554719 1003
13.9599997550249 987
13.9799997545779 986
13.9999997541308 941
14.0199997536838 998
14.0399997532368 1030
14.0599997527897 957
14.0799997523427 1001
14.0999997518957 992
14.1199997514486 1003
14.1399997510016 978
14.1599997505546 995
14.1799997501075 988
14.1999997496605 973
14.2199997492135 995
14.2399997487664 1055
14.2599997483194 959
14.2799997478724 983
14.2999997474253 1049
14.3199997469783 1120
14.3399997465312 1046
14.3599997460842 1105
14.3799997456372 970
14.3999997451901 1041
14.4199997447431 990
14.4399997442961 980
14.459999743849 1008
14.479999743402 1063
14.499999742955 1027
14.5199997425079 1007
14.5399997420609 1050
14.5599997416139 1089
14.5799997411668 1055
14.5999997407198 1017
14.6199997402728 1067
14.6399997398257 1015
14.6599997393787 1064
14.6799997389317 1042
14.6999997384846 1012
14.7199997380376 999
14.7399997375906 1056
14.7599997371435 1003
14.7799997366965 1066
14.7999997362494 1055
14.8199997358024 1034
14.8399997353554 1047
14.8599997349083 1024
14.8799997344613 1082
14.8999997340143 1044
14.9199997335672 1011
14.9399997331202 1047
14.9599997326732 1071
14.9799997322261 1036
14.9999997317791 1021
15.0199997313321 1060
15.039999730885 1065
15.059999730438 1106
15.079999729991 1090
15.0999997295439 1023
15.1199997290969 1086
15.1399997286499 1050
15.1599997282028 1080
15.1799997277558 1078
15.1999997273088 1078
15.2199997268617 1126
15.2399997264147 1058
15.2599997259676 1116
15.2799997255206 1059
15.2999997250736 1092
15.3199997246265 1078
15.3399997241795 1060
15.3599997237325 1089
15.3799997232854 1058
15.3999997228384 1141
15.4199997223914 1134
15.4399997219443 1146
15.4599997214973 1146
15.4799997210503 1098
15.4999997206032 1132
15.5199997201562 1167
15.5399997197092 1114
15.5599997192621 1087
15.5799997188151 1157
15.5999997183681 1115
15.619999717921 1153
15.639999717474 1111
15.659999717027 1135
15.6799997165799 1095
15.6999997161329 1110
15.7199997156858 1165
15.7399997152388 1195
15.7599997147918 1096
15.7799997143447 1125
15.7999997138977 1127
15.8199997134507 1184
15.8399997130036 1128
15.8599997125566 1130
15.8799997121096 1188
15.8999997116625 1213
15.9199997112155 1130
15.9399997107685 1159
15.9599997103214 1202
15.9799997098744 1190
15.9999997094274 1183
16.0199997089803 1220
16.0399997085333 1159
16.0599997080863 1183
16.0799997076392 1238
16.0999997071922 1180
16.1199997067451 1163
16.1399997062981 1169
16.1599997058511 1205
16.179999705404 1226
16.199999704957 1205
16.21999970451 1258
16.2399997040629 1232
16.2599997036159 1240
16.2799997031689 1308
16.2999997027218 1213
16.3199997022748 1222
16.3399997018278 1244
16.3599997013807 1188
16.3799997009337 1213
16.3999997004867 1264
16.4199997000396 1311
16.4399996995926 1262
16.4599996991456 1325
16.4799996986985 1285
16.4999996982515 1223
16.5199996978045 1244
16.5399996973574 1299
16.5599996969104 1288
16.5799996964633 1325
16.5999996960163 1363
16.6199996955693 1298
16.6399996951222 1379
16.6599996946752 1359
16.6799996942282 1399
16.6999996937811 1309
16.7199996933341 1305
16.7399996928871 1372
16.75999969244 1399
16.779999691993 1394
16.799999691546 1392
16.8199996910989 1501
16.8399996906519 1464
16.8599996902049 1511
16.8799996897578 1606
16.8999996893108 1690
16.9199996888638 1737
16.9399996884167 1809
16.9599996879697 1981
16.9799996875226 1992
16.9999996870756 2252
17.0199996866286 2395
17.0399996861815 2560
17.0599996857345 2483
17.0799996852875 2479
17.0999996848404 2510
17.1199996843934 2345
17.1399996839464 2182
17.1599996834993 1966
17.1799996830523 1813
17.1999996826053 1599
17.2199996821582 1538
17.2399996817112 1516
17.2599996812642 1493
17.2799996808171 1557
17.2999996803701 1531
17.3199996799231 1548
17.339999679476 1444
17.359999679029 1535
17.379999678582 1566
17.3999996781349 1445
17.4199996776879 1497
17.4399996772408 1498
17.4599996767938 1560
17.4799996763468 1564
17.4999996758997 1509
17.5199996754527 1384
17.5399996750057 1466
17.5599996745586 1593
17.5799996741116 1444
17.5999996736646 1485
17.6199996732175 1531
17.6399996727705 1515
17.6599996723235 1486
17.6799996718764 1453
17.6999996714294 1470
17.7199996709824 1518
17.7399996705353 1516
17.7599996700883 1515
17.7799996696413 1534
17.7999996691942 1536
17.8199996687472 1533
17.8399996683002 1570
17.8599996678531 1578
17.8799996674061 1564
17.899999666959 1546
17.919999666512 1504
17.939999666065 1581
17.9599996656179 1628
17.9799996651709 1581
17.9999996647239 1580
18.0199996642768 1526
18.0399996638298 1589
18.0599996633828 1597
18.0799996629357 1615
18.0999996624887 1673
18.1199996620417 1609
18.1399996615946 1631
18.1599996611476 1638
18.1799996607006 1640
18.1999996602535 1717
18.2199996598065 1635
18.2399996593595 1744
18.2599996589124 1637
18.2799996584654 1657
18.2999996580184 1754
18.3199996575713 1622
18.3399996571243 1597
18.3599996566772 1645
18.3799996562302 1698
18.3999996557832 1721
18.4199996553361 1738
18.4399996548891 1695
18.4599996544421 1782
18.479999653995 1738
18.499999653548 1652
18.519999653101 1693
18.5399996526539 1753
18.5599996522069 1765
18.5799996517599 1704
18.5999996513128 1723
18.6199996508658 1803
18.6399996504188 1730
18.6599996499717 1780
18.6799996495247 1808
18.6999996490777 1813
18.7199996486306 1749
18.7399996481836 1842
18.7599996477366 1817
18.7799996472895 1943
18.7999996468425 1860
18.8199996463954 1852
18.8399996459484 1813
18.8599996455014 1755
18.8799996450543 1855
18.8999996446073 1785
18.9199996441603 1853
18.9399996437132 1826
18.9599996432662 1847
18.9799996428192 1829
18.9999996423721 1890
19.0199996419251 1877
19.0399996414781 1880
19.059999641031 1851
19.079999640584 1946
19.099999640137 1844
19.1199996396899 1850
19.1399996392429 1916
19.1599996387959 1902
19.1799996383488 1929
19.1999996379018 1908
19.2199996374547 1923
19.2399996370077 1921
19.2599996365607 1894
19.2799996361136 1912
19.2999996356666 1916
19.3199996352196 1964
19.3399996347725 1993
19.3599996343255 1950
19.3799996338785 2015
19.3999996334314 2037
19.4199996329844 1996
19.4399996325374 2046
19.4599996320903 2073
19.4799996316433 2103
19.4999996311963 2132
19.5199996307492 2137
19.5399996303022 2093
19.5599996298552 2114
19.5799996294081 2156
19.5999996289611 2206
19.6199996285141 2217
19.639999628067 2164
19.65999962762 2050
19.6799996271729 2099
19.6999996267259 2048
19.7199996262789 2036
19.7399996258318 2059
19.7599996253848 2155
19.7799996249378 2098
19.7999996244907 2086
19.8199996240437 2100
19.8399996235967 2047
19.8599996231496 2073
19.8799996227026 2117
19.8999996222556 2100
19.9199996218085 2085
19.9399996213615 2147
19.9599996209145 2094
19.9799996204674 2192
19.9999996200204 2218
