3 2064
3.01999999955297 2006
3.03999999910593 1974
3.0599999986589 1801
3.07999999821186 1842
3.09999999776483 1683
3.11999999731779 1471
3.13999999687076 1354
3.15999999642372 1367
3.17999999597669 1421
3.19999999552965 1359
3.21999999508262 1326
3.23999999463558 1357
3.25999999418855 1334
3.27999999374151 1329
3.29999999329448 1364
3.31999999284744 1292
3.33999999240041 1287
3.35999999195337 1297
3.37999999150634 1258
3.3999999910593 1260
3.41999999061227 1244
3.43999999016523 1269
3.4599999897182 1313
3.47999998927116 1225
3.49999998882413 1290
3.51999998837709 1243
3.53999998793006 1217
3.55999998748302 1248
3.57999998703599 1249
3.59999998658895 1251
3.61999998614192 1226
3.63999998569489 1218
3.65999998524785 1188
3.67999998480082 1238
3.69999998435378 1204
3.71999998390675 1184
3.73999998345971 1177
3.75999998301268 1223
3.77999998256564 1178
3.79999998211861 1145
3.81999998167157 1177
3.83999998122454 1173
3.8599999807775 1132
3.87999998033047 1209
3.89999997988343 1135
3.9199999794364 1087
3.93999997898936 1152
3.95999997854233 1160
3.97999997809529 1070
3.99999997764826 1138
4.01999997720122 1096
4.03999997675419 1108
4.05999997630715 1094
4.07999997586012 1071
4.09999997541308 1094
4.11999997496605 1125
4.13999997451901 1027
4.15999997407198 1103
4.17999997362494 1064
4.19999997317791 1067
4.21999997273087 1016
4.23999997228384 1014
4.25999997183681 1081
4.27999997138977 1055
4.29999997094274 1093
4.3199999704957 1102
4.33999997004867 1019
4.35999996960163 1059
4.3799999691546 1010
4.39999996870756 1138
4.41999996826053 1069
4.43999996781349 1039
4.45999996736646 1059
4.47999996691942 1033
4.49999996647239 1011
4.51999996602535 1054
4.53999996557832 1006
4.55999996513128 984
4.57999996468425 1017
4.59999996423721 951
4.61999996379018 1022
4.63999996334314 971
4.65999996289611 946
4.67999996244907 988
4.69999996200204 936
4.719999961555 948
4.73999996110797 960
4.75999996066093 943
4.7799999602139 992
4.79999995976686 987
4.81999995931983 1006
4.83999995887279 929
4.85999995842576 976
4.87999995797873 947
4.89999995753169 955
4.91999995708466 942
4.93999995663762 995
4.95999995619059 1017
4.97999995574355 976
4.99999995529652 970
5.01999995484948 935
5.03999995440245 975
5.05999995395541 943
5.07999995350838 968
5.09999995306134 969
5.11999995261431 925
5.13999995216727 961
5.15999995172024 957
5.1799999512732 990
5.19999995082617 993
5.21999995037913 1027
5.2399999499321 1025
5.25999994948506 962
5.27999994903803 970
5.29999994859099 890
5.31999994814396 897
5.33999994769692 938
5.35999994724989 868
5.37999994680285 906
5.39999994635582 879
5.41999994590878 855
5.43999994546175 900
5.45999994501471 914
5.47999994456768 961
5.49999994412065 882
5.51999994367361 901
5.53999994322658 909
5.55999994277954 876
5.57999994233251 889
5.59999994188547 899
5.61999994143844 840
5.6399999409914 885
5.65999994054437 870
5.67999994009733 847
5.6999999396503 806
5.71999993920326 920
5.73999993875623 834
5.75999993830919 862
5.77999993786216 849
5.79999993741512 856
5.81999993696809 856
5.83999993652105 845
5.85999993607402 928
5.87999993562698 854
5.89999993517995 819
5.91999993473291 898
5.93999993428588 860
5.95999993383884 846
5.97999993339181 858
5.99999993294477 877
6.01999993249774 803
6.0399999320507 866
6.05999993160367 836
6.07999993115663 872
6.0999999307096 848
6.11999993026257 825
6.13999992981553 848
6.1599999293685 877
6.17999992892146 820
6.19999992847443 845
6.21999992802739 848
6.23999992758036 828
6.25999992713332 819
6.27999992668629 873
6.29999992623925 844
6.31999992579222 805
6.33999992534518 807
6.35999992489815 827
6.37999992445111 829
6.39999992400408 842
6.41999992355704 819
6.43999992311001 802
6.45999992266297 772
6.47999992221594 797
6.4999999217689 843
6.51999992132187 811
6.53999992087483 824
6.5599999204278 799
6.57999991998076 829
6.59999991953373 859
6.61999991908669 774
6.63999991863966 774
6.65999991819262 801
6.67999991774559 783
6.69999991729855 786
6.71999991685152 776
6.73999991640449 809
6.75999991595745 811
6.77999991551042 777
6.79999991506338 830
6.81999991461635 830
6.83999991416931 838
6.85999991372228 831
6.87999991327524 848
6.89999991282821 787
6.91999991238117 814
6.93999991193414 815
6.9599999114871 805
6.97999991104007 770
6.99999991059303 788
7.019999910146 814
7.03999990969896 731
7.05999990925193 797
7.07999990880489 813
7.09999990835786 775
7.11999990791082 807
7.13999990746379 777
7.15999990701675 802
7.17999990656972 787
7.19999990612268 775
7.21999990567565 776
7.23999990522861 810
7.25999990478158 772
7.27999990433454 755
7.29999990388751 758
7.31999990344047 741
7.33999990299344 760
7.35999990254641 746
7.37999990209937 683
7.39999990165234 730
7.4199999012053 760
7.43999990075827 737
7.45999990031123 722
7.4799998998642 746
7.49999989941716 766
7.51999989897013 709
7.53999989852309 716
7.55999989807606 745
7.57999989762902 769
7.59999989718199 771
7.61999989673495 750
7.63999989628792 736
7.65999989584088 749
7.67999989539385 742
7.69999989494681 773
7.71999989449978 764
7.73999989405274 721
7.75999989360571 722
7.77999989315867 747
7.79999989271164 743
7.8199998922646 742
7.83999989181757 751
7.85999989137053 703
7.8799998909235 737
7.89999989047646 703
7.91999989002943 769
7.9399998895824 752
7.95999988913536 699
7.97999988868833 757
7.99999988824129 731
8.01999988779426 753
8.03999988734722 742
8.05999988690019 750
8.07999988645315 737
8.09999988600612 699
8.11999988555908 713
8.13999988511205 723
8.15999988466501 714
8.17999988421798 679
8.19999988377094 686
8.21999988332391 691
8.23999988287687 678
8.25999988242984 692
8.2799998819828 681
8.29999988153577 675
8.31999988108873 688
8.3399998806417 673
8.35999988019466 690
8.37999987974763 740
8.39999987930059 697
8.41999987885356 655
8.43999987840652 710
8.45999987795949 670
8.47999987751245 683
8.49999987706542 668
8.51999987661839 704
8.53999987617135 704
8.55999987572432 694
8.57999987527728 660
8.59999987483025 712
8.61999987438321 678
8.63999987393618 690
8.65999987348914 637
8.67999987304211 688
8.69999987259507 657
8.71999987214804 681
8.739999871701 684
8.75999987125397 692
8.77999987080693 664
8.7999998703599 646
8.81999986991286 687
8.83999986946583 674
8.85999986901879 647
8.87999986857176 628
8.89999986812472 679
8.91999986767769 694
8.93999986723065 624
8.95999986678362 648
8.97999986633658 658
8.99999986588955 677
9.01999986544251 667
9.03999986499548 660
9.05999986454844 676
9.07999986410141 637
9.09999986365438 628
9.11999986320734 662
9.13999986276031 636
9.15999986231327 607
9.17999986186624 633
9.1999998614192 639
9.21999986097217 645
9.23999986052513 623
9.2599998600781 604
9.27999985963106 617
9.29999985918403 590
9.31999985873699 603
9.33999985828996 656
9.35999985784292 603
9.37999985739589 602
9.39999985694885 604
9.41999985650182 597
9.43999985605478 585
9.45999985560775 598
9.47999985516071 628
9.49999985471368 608
9.51999985426664 644
9.53999985381961 566
9.55999985337257 602
9.57999985292554 590
9.5999998524785 614
9.61999985203147 613
9.63999985158443 563
9.6599998511374 642
9.67999985069037 575
9.69999985024333 623
9.7199998497963 639
9.73999984934926 560
9.75999984890223 610
9.77999984845519 630
9.79999984800816 649
9.81999984756112 594
9.83999984711409 563
9.85999984666705 594
9.87999984622002 603
9.89999984577298 616
9.91999984532595 614
9.93999984487891 612
9.95999984443188 605
9.97999984398484 596
9.99999984353781 608
10.0199998430908 605
10.0399998426437 594
10.0599998421967 594
10.0799998417497 607
10.0999998413026 600
10.1199998408556 578
10.1399998404086 578
10.1599998399615 606
10.1799998395145 578
10.1999998390675 549
10.2199998386204 578
10.2399998381734 595
10.2599998377264 569
10.2799998372793 606
10.2999998368323 597
10.3199998363853 588
10.3399998359382 574
10.3599998354912 584
10.3799998350441 599
10.3999998345971 572
10.4199998341501 590
10.439999833703 583
10.459999833256 555
10.479999832809 613
10.4999998323619 561
10.5199998319149 586
10.5399998314679 579
10.5599998310208 594
10.5799998305738 558
10.5999998301268 547
10.6199998296797 586
10.6399998292327 560
10.6599998287857 555
10.6799998283386 520
10.6999998278916 589
10.7199998274446 556
10.7399998269975 578
10.7599998265505 549
10.7799998261034 538
10.7999998256564 560
10.8199998252094 565
10.8399998247623 542
10.8599998243153 577
10.8799998238683 569
10.8999998234212 581
10.9199998229742 557
10.9399998225272 565
10.9599998220801 563
10.9799998216331 534
10.9999998211861 543
11.019999820739 586
11.039999820292 562
11.059999819845 510
11.0799998193979 575
11.0999998189509 537
11.1199998185039 553
11.1399998180568 553
11.1599998176098 541
11.1799998171628 540
11.1999998167157 581
11.2199998162687 558
11.2399998158216 514
11.2599998153746 560
11.2799998149276 559
11.2999998144805 533
11.3199998140335 554
11.3399998135865 522
11.3599998131394 560
11.3799998126924 530
11.3999998122454 534
11.4199998117983 551
11.4399998113513 533
11.4599998109043 511
11.4799998104572 514
11.4999998100102 534
11.5199998095632 540
11.5399998091161 536
11.5599998086691 529
11.5799998082221 550
11.599999807775 495
11.619999807328 558
11.639999806881 527
11.6599998064339 515
11.6799998059869 499
11.6999998055398 560
11.7199998050928 499
11.7399998046458 533
11.7599998041987 502
11.7799998037517 542
11.7999998033047 555
11.8199998028576 544
11.8399998024106 552
11.8599998019636 465
11.8799998015165 515
11.8999998010695 540
11.9199998006225 498
11.9399998001754 516
11.9599997997284 514
11.9799997992814 530
11.9999997988343 556
12.0199997983873 515
12.0399997979403 531
12.0599997974932 476
12.0799997970462 489
12.0999997965992 515
12.1199997961521 487
12.1399997957051 508
12.159999795258 523
12.179999794811 553
12.199999794364 510
12.2199997939169 533
12.2399997934699 555
12.2599997930229 537
12.2799997925758 520
12.2999997921288 445
12.3199997916818 526
12.3399997912347 555
12.3599997907877 519
12.3799997903407 533
12.3999997898936 522
12.4199997894466 515
12.4399997889996 512
12.4599997885525 501
12.4799997881055 526
12.4999997876585 530
12.5199997872114 524
12.5399997867644 519
12.5599997863173 509
12.5799997858703 527
12.5999997854233 513
12.6199997849762 537
12.6399997845292 492
12.6599997840822 476
12.6799997836351 523
12.6999997831881 493
12.7199997827411 508
12.739999782294 517
12.759999781847 522
12.7799997814 536
12.7999997809529 509
12.8199997805059 504
12.8399997800589 528
12.8599997796118 514
12.8799997791648 521
12.8999997787178 507
12.9199997782707 506
12.9399997778237 487
12.9599997773767 519
12.9799997769296 493
12.9999997764826 503
13.0199997760355 511
13.0399997755885 510
13.0599997751415 495
13.0799997746944 510
13.0999997742474 491
13.1199997738004 496
13.1399997733533 484
13.1599997729063 488
13.1799997724593 502
13.1999997720122 450
13.2199997715652 498
13.2399997711182 493
13.2599997706711 509
13.2799997702241 514
13.2999997697771 505
13.31999976933 492
13.339999768883 497
13.359999768436 451
13.3799997679889 489
13.3999997675419 462
13.4199997670949 509
13.4399997666478 495
13.4599997662008 530
13.4799997657537 500
13.4999997653067 528
13.5199997648597 476
13.5399997644126 490
13.5599997639656 521
13.5799997635186 474
13.5999997630715 494
13.6199997626245 518
13.6399997621775 492
13.6599997617304 490
13.6799997612834 449
13.6999997608364 506
13.7199997603893 482
13.7399997599423 490
13.7599997594953 512
13.7799997590482 485
13.7999997586012 512
13.8199997581542 474
13.8399997577071 491
13.8599997572601 498
13.879999756813 520
13.899999756366 485
13.919999755919 489
13.9399997554719 485
13.9599997550249 502
13.9799997545779 495
13.9999997541308 489
14.0199997536838 496
14.0399997532368 517
14.0599997527897 501
14.0799997523427 484
14.0999997518957 511
14.1199997514486 491
14.1399997510016 489
14.1599997505546 490
14.1799997501075 502
14.1999997496605 496
14.2199997492135 496
14.2399997487664 478
14.2599997483194 503
14.2799997478724 527
14.2999997474253 517
14.3199997469783 439
14.3399997465312 497
14.3599997460842 517
14.3799997456372 504
14.3999997451901 500
14.4199997447431 471
14.4399997442961 496
14.459999743849 506
14.479999743402 490
14.499999742955 467
14.5199997425079 482
14.5399997420609 492
14.5599997416139 465
14.5799997411668 482
14.5999997407198 483
14.6199997402728 507
14.6399997398257 469
14.6599997393787 503
14.6799997389317 498
14.6999997384846 490
14.7199997380376 503
14.7399997375906 513
14.7599997371435 507
14.7799997366965 513
14.7999997362494 507
14.8199997358024 465
14.8399997353554 504
14.8599997349083 487
14.8799997344613 509
14.8999997340143 467
14.9199997335672 501
14.9399997331202 479
14.9599997326732 480
14.9799997322261 496
14.9999997317791 519
15.0199997313321 491
15.039999730885 488
15.059999730438 495
15.079999729991 475
15.0999997295439 436
15.1199997290969 507
15.1399997286499 512
15.1599997282028 484
15.1799997277558 465
15.1999997273088 474
15.2199997268617 476
15.2399997264147 468
15.2599997259676 484
15.2799997255206 460
15.2999997250736 503
15.3199997246265 472
15.3399997241795 478
15.3599997237325 482
15.3799997232854 479
15.3999997228384 484
15.4199997223914 457
15.4399997219443 433
15.4599997214973 495
15.4799997210503 495
15.4999997206032 475
15.5199997201562 475
15.5399997197092 473
15.5599997192621 519
15.5799997188151 473
15.5999997183681 467
15.619999717921 482
15.639999717474 521
15.659999717027 468
15.6799997165799 435
15.6999997161329 461
15.7199997156858 477
15.7399997152388 471
15.7599997147918 508
15.7799997143447 452
15.7999997138977 485
15.8199997134507 449
15.8399997130036 476
15.8599997125566 486
15.8799997121096 473
15.8999997116625 460
15.9199997112155 462
15.9399997107685 457
15.9599997103214 509
15.9799997098744 516
15.9999997094274 478
16.0199997089803 464
16.0399997085333 539
16.0599997080863 499
16.0799997076392 511
16.0999997071922 446
16.1199997067451 498
16.1399997062981 499
16.1599997058511 471
16.179999705404 507
16.199999704957 488
16.21999970451 437
16.2399997040629 451
16.2599997036159 502
16.2799997031689 468
16.2999997027218 453
16.3199997022748 491
16.3399997018278 494
16.3599997013807 475
16.3799997009337 499
16.3999997004867 482
16.4199997000396 467
16.4399996995926 490
16.4599996991456 460
16.4799996986985 437
16.4999996982515 441
16.5199996978045 487
16.5399996973574 446
16.5599996969104 460
16.5799996964633 504
16.5999996960163 438
16.6199996955693 494
16.6399996951222 478
16.6599996946752 487
16.6799996942282 492
16.6999996937811 463
16.7199996933341 513
16.7399996928871 447
16.75999969244 487
16.779999691993 505
16.799999691546 480
16.8199996910989 489
16.8399996906519 468
16.8599996902049 434
16.8799996897578 503
16.8999996893108 479
16.9199996888638 470
16.9399996884167 507
16.9599996879697 510
16.9799996875226 501
16.9999996870756 503
17.0199996866286 534
17.0399996861815 508
17.0599996857345 510
17.0799996852875 554
17.0999996848404 590
17.1199996843934 552
17.1399996839464 585
17.1599996834993 659
17.1799996830523 640
17.1999996826053 684
17.2199996821582 687
17.2399996817112 625
17.2599996812642 590
17.2799996808171 586
17.2999996803701 557
17.3199996799231 528
17.339999679476 497
17.359999679029 502
17.379999678582 467
17.3999996781349 511
17.4199996776879 462
17.4399996772408 498
17.4599996767938 494
17.4799996763468 460
17.4999996758997 490
17.5199996754527 463
17.5399996750057 516
17.5599996745586 485
17.5799996741116 427
17.5999996736646 469
17.6199996732175 497
17.6399996727705 442
17.6599996723235 471
17.6799996718764 475
17.6999996714294 467
17.7199996709824 477
17.7399996705353 469
17.7599996700883 449
17.7799996696413 455
17.7999996691942 465
17.8199996687472 474
17.8399996683002 481
17.8599996678531 492
17.8799996674061 533
17.899999666959 484
17.919999666512 445
17.939999666065 489
17.9599996656179 473
17.9799996651709 491
17.9999996647239 511
18.0199996642768 525
18.0399996638298 499
18.0599996633828 490
18.0799996629357 503
18.0999996624887 487
18.1199996620417 453
18.1399996615946 473
18.1599996611476 474
18.1799996607006 478
18.1999996602535 479
18.2199996598065 439
18.2399996593595 458
18.2599996589124 478
18.2799996584654 453
18.2999996580184 487
18.3199996575713 480
18.3399996571243 455
18.3599996566772 489
18.3799996562302 518
18.3999996557832 492
18.4199996553361 478
18.4399996548891 491
18.4599996544421 439
18.479999653995 460
18.499999653548 492
18.519999653101 469
18.5399996526539 472
18.5599996522069 499
18.5799996517599 502
18.5999996513128 503
18.6199996508658 465
18.6399996504188 438
18.6599996499717 486
18.6799996495247 454
18.6999996490777 478
18.7199996486306 473
18.7399996481836 477
18.7599996477366 480
18.7799996472895 480
18.7999996468425 466
18.8199996463954 470
18.8399996459484 494
18.8599996455014 431
18.8799996450543 480
18.8999996446073 489
18.9199996441603 462
18.9399996437132 473
18.9599996432662 479
18.9799996428192 470
18.9999996423721 456
19.0199996419251 505
19.0399996414781 449
19.059999641031 473
19.079999640584 470
19.099999640137 463
19.1199996396899 459
19.1399996392429 478
19.1599996387959 520
19.1799996383488 480
19.1999996379018 489
19.2199996374547 489
19.2399996370077 491
19.2599996365607 486
19.2799996361136 483
19.2999996356666 476
19.3199996352196 475
19.3399996347725 467
19.3599996343255 493
19.3799996338785 449
19.3999996334314 470
19.4199996329844 495
19.4399996325374 524
19.4599996320903 497
19.4799996316433 473
19.4999996311963 490
19.5199996307492 504
19.5399996303022 473
19.5599996298552 489
19.5799996294081 476
19.5999996289611 485
19.6199996285141 487
19.639999628067 471
19.65999962762 498
19.6799996271729 489
19.6999996267259 475
19.7199996262789 454
19.7399996258318 458
19.7599996253848 444
19.7799996249378 479
19.7999996244907 499
19.8199996240437 508
19.8399996235967 468
19.8599996231496 497
19.8799996227026 487
19.8999996222556 491
19.9199996218085 473
19.9399996213615 508
19.9599996209145 493
19.9799996204674 524
19.9999996200204 421
