3 2142
3.01999999955297 2136
3.03999999910593 2391
3.0599999986589 2373
3.07999999821186 1780
3.09999999776483 1607
3.11999999731779 1517
3.13999999687076 1545
3.15999999642372 1526
3.17999999597669 1475
3.19999999552965 1461
3.21999999508262 1457
3.23999999463558 1421
3.25999999418855 1463
3.27999999374151 1422
3.29999999329448 1415
3.31999999284744 1434
3.33999999240041 1470
3.35999999195337 1401
3.37999999150634 1453
3.3999999910593 1398
3.41999999061227 1380
3.43999999016523 1385
3.4599999897182 1375
3.47999998927116 1318
3.49999998882413 1337
3.51999998837709 1323
3.53999998793006 1305
3.55999998748302 1382
3.57999998703599 1332
3.59999998658895 1241
3.61999998614192 1408
3.63999998569489 1297
3.65999998524785 1262
3.67999998480082 1284
3.69999998435378 1333
3.71999998390675 1339
3.73999998345971 1308
3.75999998301268 1306
3.77999998256564 1298
3.79999998211861 1271
3.81999998167157 1279
3.83999998122454 1246
3.8599999807775 1322
3.87999998033047 1256
3.89999997988343 1303
3.9199999794364 1255
3.93999997898936 1215
3.95999997854233 1206
3.97999997809529 1216
3.99999997764826 1202
4.01999997720122 1240
4.03999997675419 1269
4.05999997630715 1231
4.07999997586012 1228
4.09999997541308 1257
4.11999997496605 1229
4.13999997451901 1173
4.15999997407198 1260
4.17999997362494 1284
4.19999997317791 1208
4.21999997273087 1220
4.23999997228384 1212
4.25999997183681 1245
4.27999997138977 1232
4.29999997094274 1207
4.3199999704957 1175
4.33999997004867 1227
4.35999996960163 1166
4.3799999691546 1191
4.39999996870756 1138
4.41999996826053 1176
4.43999996781349 1122
4.45999996736646 1141
4.47999996691942 1170
4.49999996647239 1130
4.51999996602535 1248
4.53999996557832 1144
4.55999996513128 1149
4.57999996468425 1181
4.59999996423721 1167
4.61999996379018 1144
4.63999996334314 1184
4.65999996289611 1195
4.67999996244907 1169
4.69999996200204 1159
4.719999961555 1196
4.73999996110797 1154
4.75999996066093 1201
4.7799999602139 1093
4.79999995976686 1189
4.81999995931983 1115
4.83999995887279 1129
4.85999995842576 1211
4.87999995797873 1150
4.89999995753169 1143
4.91999995708466 1140
4.93999995663762 1171
4.95999995619059 1214
4.97999995574355 1114
4.99999995529652 1114
5.01999995484948 1103
5.03999995440245 1206
5.05999995395541 1191
5.07999995350838 1080
5.09999995306134 1143
5.11999995261431 1153
5.13999995216727 1099
5.15999995172024 1189
5.1799999512732 1186
5.19999995082617 1123
5.21999995037913 1169
5.2399999499321 1203
5.25999994948506 1153
5.27999994903803 1199
5.29999994859099 1169
5.31999994814396 1166
5.33999994769692 1186
5.35999994724989 1195
5.37999994680285 1247
5.39999994635582 1212
5.41999994590878 1317
5.43999994546175 1331
5.45999994501471 1350
5.47999994456768 1331
5.49999994412065 1344
5.51999994367361 1342
5.53999994322658 1248
5.55999994277954 1199
5.57999994233251 1164
5.59999994188547 1113
5.61999994143844 1129
5.6399999409914 1098
5.65999994054437 1121
5.67999994009733 1125
5.6999999396503 1091
5.71999993920326 1079
5.73999993875623 1095
5.75999993830919 1029
5.77999993786216 1051
5.79999993741512 982
5.81999993696809 1028
5.83999993652105 1012
5.85999993607402 1026
5.87999993562698 1020
5.89999993517995 1067
5.91999993473291 1041
5.93999993428588 1023
5.95999993383884 1017
5.97999993339181 1063
5.99999993294477 1011
6.01999993249774 986
6.0399999320507 959
6.05999993160367 1028
6.07999993115663 1024
6.0999999307096 1017
6.11999993026257 1014
6.13999992981553 949
6.1599999293685 1003
6.17999992892146 1007
6.19999992847443 991
6.21999992802739 981
6.23999992758036 1007
6.25999992713332 983
6.27999992668629 997
6.29999992623925 944
6.31999992579222 972
6.33999992534518 973
6.35999992489815 992
6.37999992445111 968
6.39999992400408 949
6.41999992355704 977
6.43999992311001 984
6.45999992266297 990
6.47999992221594 930
6.4999999217689 996
6.51999992132187 981
6.53999992087483 991
6.5599999204278 980
6.57999991998076 906
6.59999991953373 997
6.61999991908669 921
6.63999991863966 988
6.65999991819262 973
6.67999991774559 951
6.69999991729855 934
6.71999991685152 976
6.73999991640449 949
6.75999991595745 957
6.77999991551042 983
6.79999991506338 923
6.81999991461635 943
6.83999991416931 900
6.85999991372228 971
6.87999991327524 905
6.89999991282821 915
6.91999991238117 952
6.93999991193414 884
6.9599999114871 931
6.97999991104007 868
6.99999991059303 911
7.019999910146 909
7.03999990969896 896
7.05999990925193 856
7.07999990880489 865
7.09999990835786 812
7.11999990791082 907
7.13999990746379 866
7.15999990701675 907
7.17999990656972 855
7.19999990612268 905
7.21999990567565 897
7.23999990522861 891
7.25999990478158 849
7.27999990433454 861
7.29999990388751 847
7.31999990344047 860
7.33999990299344 877
7.35999990254641 806
7.37999990209937 838
7.39999990165234 865
7.4199999012053 842
7.43999990075827 861
7.45999990031123 906
7.4799998998642 828
7.49999989941716 828
7.51999989897013 809
7.53999989852309 828
7.55999989807606 855
7.57999989762902 801
7.59999989718199 855
7.61999989673495 842
7.63999989628792 875
7.65999989584088 838
7.67999989539385 835
7.69999989494681 793
7.71999989449978 904
7.73999989405274 878
7.75999989360571 824
7.77999989315867 874
7.79999989271164 882
7.8199998922646 794
7.83999989181757 835
7.85999989137053 843
7.8799998909235 888
7.89999989047646 929
7.91999989002943 832
7.9399998895824 899
7.95999988913536 908
7.97999988868833 914
7.99999988824129 899
8.01999988779426 870
8.03999988734722 873
8.05999988690019 864
8.07999988645315 781
8.09999988600612 779
8.11999988555908 803
8.13999988511205 802
8.15999988466501 805
8.17999988421798 794
8.19999988377094 782
8.21999988332391 805
8.23999988287687 795
8.25999988242984 822
8.2799998819828 790
8.29999988153577 832
8.31999988108873 805
8.3399998806417 839
8.35999988019466 798
8.37999987974763 811
8.39999987930059 870
8.41999987885356 771
8.43999987840652 821
8.45999987795949 833
8.47999987751245 832
8.49999987706542 805
8.51999987661839 796
8.53999987617135 814
8.55999987572432 750
8.57999987527728 819
8.59999987483025 751
8.61999987438321 734
8.63999987393618 762
8.65999987348914 738
8.67999987304211 775
8.69999987259507 794
8.71999987214804 802
8.739999871701 770
8.75999987125397 788
8.77999987080693 815
8.7999998703599 772
8.81999986991286 746
8.83999986946583 775
8.85999986901879 731
8.87999986857176 750
8.89999986812472 734
8.91999986767769 728
8.93999986723065 725
8.95999986678362 736
8.97999986633658 697
8.99999986588955 737
9.01999986544251 738
9.03999986499548 724
9.05999986454844 705
9.07999986410141 694
9.09999986365438 734
9.11999986320734 693
9.13999986276031 693
9.15999986231327 731
9.17999986186624 679
9.1999998614192 722
9.21999986097217 732
9.23999986052513 710
9.2599998600781 750
9.27999985963106 706
9.29999985918403 751
9.31999985873699 732
9.33999985828996 743
9.35999985784292 746
9.37999985739589 751
9.39999985694885 759
9.41999985650182 770
9.43999985605478 749
9.45999985560775 724
9.47999985516071 701
9.49999985471368 714
9.51999985426664 724
9.53999985381961 696
9.55999985337257 708
9.57999985292554 702
9.5999998524785 718
9.61999985203147 727
9.63999985158443 700
9.6599998511374 734
9.67999985069037 692
9.69999985024333 680
9.7199998497963 666
9.73999984934926 672
9.75999984890223 701
9.77999984845519 629
9.79999984800816 639
9.81999984756112 700
9.83999984711409 677
9.85999984666705 635
9.87999984622002 679
9.89999984577298 663
9.91999984532595 688
9.93999984487891 679
9.95999984443188 637
9.97999984398484 634
9.99999984353781 667
10.0199998430908 680
10.0399998426437 653
10.0599998421967 610
10.0799998417497 635
10.0999998413026 640
10.1199998408556 662
10.1399998404086 652
10.1599998399615 632
10.1799998395145 650
10.1999998390675 611
10.2199998386204 620
10.2399998381734 650
10.2599998377264 663
10.2799998372793 678
10.2999998368323 659
10.3199998363853 698
10.3399998359382 629
10.3599998354912 656
10.3799998350441 669
10.3999998345971 605
10.4199998341501 642
10.439999833703 651
10.459999833256 634
10.479999832809 675
10.4999998323619 673
10.5199998319149 647
10.5399998314679 650
10.5599998310208 650
10.5799998305738 627
10.5999998301268 636
10.6199998296797 640
10.6399998292327 626
10.6599998287857 605
10.6799998283386 610
10.6999998278916 632
10.7199998274446 653
10.7399998269975 669
10.7599998265505 619
10.7799998261034 604
10.7999998256564 644
10.8199998252094 637
10.8399998247623 610
10.8599998243153 615
10.8799998238683 651
10.8999998234212 623
10.9199998229742 611
10.9399998225272 626
10.9599998220801 624
10.9799998216331 635
10.9999998211861 645
11.019999820739 576
11.039999820292 574
11.059999819845 652
11.0799998193979 620
11.0999998189509 619
11.1199998185039 593
11.1399998180568 585
11.1599998176098 597
11.1799998171628 600
11.1999998167157 584
11.2199998162687 583
11.2399998158216 566
11.2599998153746 590
11.2799998149276 591
11.2999998144805 577
11.3199998140335 626
11.3399998135865 583
11.3599998131394 566
11.3799998126924 573
11.3999998122454 577
11.4199998117983 566
11.4399998113513 594
11.4599998109043 614
11.4799998104572 674
11.4999998100102 627
11.5199998095632 595
11.5399998091161 586
11.5599998086691 556
11.5799998082221 619
11.599999807775 568
11.619999807328 563
11.639999806881 583
11.6599998064339 620
11.6799998059869 575
11.6999998055398 572
11.7199998050928 601
11.7399998046458 550
11.7599998041987 538
11.7799998037517 580
11.7999998033047 552
11.8199998028576 580
11.8399998024106 572
11.8599998019636 555
11.8799998015165 583
11.8999998010695 578
11.9199998006225 538
11.9399998001754 525
11.9599997997284 580
11.9799997992814 551
11.9999997988343 578
12.0199997983873 621
12.0399997979403 590
12.0599997974932 572
12.0799997970462 521
12.0999997965992 589
12.1199997961521 587
12.1399997957051 556
12.159999795258 555
12.179999794811 582
12.199999794364 530
12.2199997939169 571
12.2399997934699 564
12.2599997930229 573
12.2799997925758 594
12.2999997921288 577
12.3199997916818 558
12.3399997912347 560
12.3599997907877 568
12.3799997903407 528
12.3999997898936 588
12.4199997894466 567
12.4399997889996 568
12.4599997885525 554
12.4799997881055 567
12.4999997876585 535
12.5199997872114 583
12.5399997867644 585
12.5599997863173 549
12.5799997858703 576
12.5999997854233 529
12.6199997849762 584
12.6399997845292 541
12.6599997840822 586
12.6799997836351 568
12.6999997831881 531
12.7199997827411 557
12.739999782294 537
12.759999781847 549
12.7799997814 546
12.7999997809529 575
12.8199997805059 558
12.8399997800589 567
12.8599997796118 540
12.8799997791648 525
12.8999997787178 548
12.9199997782707 548
12.9399997778237 549
12.9599997773767 535
12.9799997769296 526
12.9999997764826 568
13.0199997760355 544
13.0399997755885 581
13.0599997751415 565
13.0799997746944 562
13.0999997742474 550
13.1199997738004 524
13.1399997733533 548
13.1599997729063 564
13.1799997724593 521
13.1999997720122 575
13.2199997715652 553
13.2399997711182 564
13.2599997706711 594
13.2799997702241 552
13.2999997697771 539
13.31999976933 556
13.339999768883 539
13.359999768436 528
13.3799997679889 558
13.3999997675419 563
13.4199997670949 523
13.4399997666478 534
13.4599997662008 537
13.4799997657537 554
13.4999997653067 533
13.5199997648597 540
13.5399997644126 517
13.5599997639656 556
13.5799997635186 548
13.5999997630715 546
13.6199997626245 543
13.6399997621775 566
13.6599997617304 534
13.6799997612834 551
13.6999997608364 526
13.7199997603893 540
13.7399997599423 564
13.7599997594953 525
13.7799997590482 532
13.7999997586012 547
13.8199997581542 568
13.8399997577071 575
13.8599997572601 545
13.879999756813 526
13.899999756366 579
13.919999755919 557
13.9399997554719 554
13.9599997550249 547
13.9799997545779 545
13.9999997541308 543
14.0199997536838 517
14.0399997532368 564
14.0599997527897 517
14.0799997523427 516
14.0999997518957 516
14.1199997514486 511
14.1399997510016 539
14.1599997505546 563
14.1799997501075 549
14.1999997496605 564
14.2199997492135 591
14.2399997487664 567
14.2599997483194 577
14.2799997478724 547
14.2999997474253 529
14.3199997469783 551
14.3399997465312 518
14.3599997460842 515
14.3799997456372 570
14.3999997451901 509
14.4199997447431 511
14.4399997442961 524
14.459999743849 544
14.479999743402 555
14.499999742955 532
14.5199997425079 521
14.5399997420609 543
14.5599997416139 569
14.5799997411668 484
14.5999997407198 541
14.6199997402728 534
14.6399997398257 557
14.6599997393787 536
14.6799997389317 529
14.6999997384846 560
14.7199997380376 576
14.7399997375906 525
14.7599997371435 576
14.7799997366965 540
14.7999997362494 509
14.8199997358024 545
14.8399997353554 537
14.8599997349083 544
14.8799997344613 562
14.8999997340143 573
14.9199997335672 560
14.9399997331202 558
14.9599997326732 537
14.9799997322261 544
14.9999997317791 537
15.0199997313321 545
15.039999730885 551
15.059999730438 564
15.079999729991 575
15.0999997295439 576
15.1199997290969 526
15.1399997286499 526
15.1599997282028 536
15.1799997277558 536
15.1999997273088 512
15.2199997268617 562
15.2399997264147 542
15.2599997259676 552
15.2799997255206 532
15.2999997250736 557
15.3199997246265 518
15.3399997241795 523
15.3599997237325 524
15.3799997232854 487
15.3999997228384 513
15.4199997223914 528
15.4399997219443 541
15.4599997214973 537
15.4799997210503 503
15.4999997206032 553
15.5199997201562 564
15.5399997197092 549
15.5599997192621 550
15.5799997188151 536
15.5999997183681 526
15.619999717921 506
15.639999717474 522
15.659999717027 516
15.6799997165799 535
15.6999997161329 551
15.7199997156858 527
15.7399997152388 554
15.7599997147918 566
15.7799997143447 505
15.7999997138977 554
15.8199997134507 496
15.8399997130036 514
15.8599997125566 543
15.8799997121096 505
15.8999997116625 514
15.9199997112155 588
15.9399997107685 539
15.9599997103214 553
15.9799997098744 529
15.9999997094274 510
16.0199997089803 531
16.0399997085333 492
16.0599997080863 550
16.0799997076392 562
16.0999997071922 524
16.1199997067451 529
16.1399997062981 525
16.1599997058511 517
16.179999705404 507
16.199999704957 521
16.21999970451 558
16.2399997040629 484
16.2599997036159 509
16.2799997031689 503
16.2999997027218 532
16.3199997022748 538
16.3399997018278 539
16.3599997013807 527
16.3799997009337 523
16.3999997004867 548
16.4199997000396 558
16.4399996995926 522
16.4599996991456 561
16.4799996986985 540
16.4999996982515 503
16.5199996978045 564
16.5399996973574 476
16.5599996969104 558
16.5799996964633 546
16.5999996960163 521
16.6199996955693 519
16.6399996951222 533
16.6599996946752 502
16.6799996942282 582
16.6999996937811 533
16.7199996933341 527
16.7399996928871 533
16.75999969244 522
16.779999691993 543
16.799999691546 542
16.8199996910989 515
16.8399996906519 546
16.8599996902049 523
16.8799996897578 555
16.8999996893108 553
16.9199996888638 592
16.9399996884167 633
16.9599996879697 611
16.9799996875226 638
16.9999996870756 604
17.0199996866286 634
17.0399996861815 629
17.0599996857345 632
17.0799996852875 630
17.0999996848404 649
17.1199996843934 664
17.1399996839464 658
17.1599996834993 655
17.1799996830523 622
17.1999996826053 682
17.2199996821582 655
17.2399996817112 608
17.2599996812642 636
17.2799996808171 630
17.2999996803701 588
17.3199996799231 510
17.339999679476 560
17.359999679029 526
17.379999678582 520
17.3999996781349 586
17.4199996776879 544
17.4399996772408 583
17.4599996767938 555
17.4799996763468 576
17.4999996758997 554
17.5199996754527 569
17.5399996750057 550
17.5599996745586 531
17.5799996741116 543
17.5999996736646 568
17.6199996732175 541
17.6399996727705 532
17.6599996723235 580
17.6799996718764 558
17.6999996714294 541
17.7199996709824 590
17.7399996705353 572
17.7599996700883 577
17.7799996696413 550
17.7999996691942 538
17.8199996687472 526
17.8399996683002 569
17.8599996678531 553
17.8799996674061 533
17.899999666959 532
17.919999666512 555
17.939999666065 581
17.9599996656179 548
17.9799996651709 557
17.9999996647239 556
18.0199996642768 572
18.0399996638298 581
18.0599996633828 502
18.0799996629357 547
18.0999996624887 534
18.1199996620417 554
18.1399996615946 572
18.1599996611476 559
18.1799996607006 555
18.1999996602535 514
18.2199996598065 544
18.2399996593595 564
18.2599996589124 530
18.2799996584654 556
18.2999996580184 574
18.3199996575713 523
18.3399996571243 546
18.3599996566772 552
18.3799996562302 573
18.3999996557832 531
18.4199996553361 593
18.4399996548891 557
18.4599996544421 595
18.479999653995 544
18.499999653548 565
18.519999653101 565
18.5399996526539 551
18.5599996522069 548
18.5799996517599 565
18.5999996513128 518
18.6199996508658 603
18.6399996504188 551
18.6599996499717 517
18.6799996495247 574
18.6999996490777 532
18.7199996486306 552
18.7399996481836 586
18.7599996477366 604
18.7799996472895 582
18.7999996468425 589
18.8199996463954 558
18.8399996459484 548
18.8599996455014 589
18.8799996450543 550
18.8999996446073 573
18.9199996441603 577
18.9399996437132 593
18.9599996432662 565
18.9799996428192 609
18.9999996423721 538
19.0199996419251 584
19.0399996414781 557
19.059999641031 536
19.079999640584 570
19.099999640137 561
19.1199996396899 568
19.1399996392429 566
19.1599996387959 550
19.1799996383488 575
19.1999996379018 545
19.2199996374547 544
19.2399996370077 579
19.2599996365607 539
19.2799996361136 596
19.2999996356666 591
19.3199996352196 606
19.3399996347725 592
19.3599996343255 584
19.3799996338785 576
19.3999996334314 534
19.4199996329844 583
19.4399996325374 536
19.4599996320903 558
19.4799996316433 594
19.4999996311963 575
19.5199996307492 572
19.5399996303022 592
19.5599996298552 570
19.5799996294081 584
19.5999996289611 573
19.6199996285141 571
19.639999628067 598
19.65999962762 580
19.6799996271729 594
19.6999996267259 615
19.7199996262789 578
19.7399996258318 598
19.7599996253848 587
19.7799996249378 562
19.7999996244907 597
19.8199996240437 609
19.8399996235967 596
19.8599996231496 597
19.8799996227026 586
19.8999996222556 580
19.9199996218085 529
19.9399996213615 604
19.9599996209145 589
19.9799996204674 585
19.9999996200204 603
