3 2654
3.01999999955297 2457
3.03999999910593 2253
3.0599999986589 2044
3.07999999821186 1979
3.09999999776483 1901
3.11999999731779 1794
3.13999999687076 1767
3.15999999642372 1634
3.17999999597669 1709
3.19999999552965 1611
3.21999999508262 1565
3.23999999463558 1542
3.25999999418855 1479
3.27999999374151 1473
3.29999999329448 1535
3.31999999284744 1324
3.33999999240041 1407
3.35999999195337 1386
3.37999999150634 1376
3.3999999910593 1329
3.41999999061227 1257
3.43999999016523 1372
3.4599999897182 1308
3.47999998927116 1318
3.49999998882413 1264
3.51999998837709 1308
3.53999998793006 1322
3.55999998748302 1262
3.57999998703599 1269
3.59999998658895 1217
3.61999998614192 1289
3.63999998569489 1252
3.65999998524785 1283
3.67999998480082 1299
3.69999998435378 1200
3.71999998390675 1206
3.73999998345971 1243
3.75999998301268 1179
3.77999998256564 1194
3.79999998211861 1244
3.81999998167157 1199
3.83999998122454 1239
3.8599999807775 1187
3.87999998033047 1127
3.89999997988343 1167
3.9199999794364 1129
3.93999997898936 1177
3.95999997854233 1146
3.97999997809529 1112
3.99999997764826 1162
4.01999997720122 1132
4.03999997675419 1125
4.05999997630715 1188
4.07999997586012 1110
4.09999997541308 1089
4.11999997496605 1131
4.13999997451901 1085
4.15999997407198 1063
4.17999997362494 1121
4.19999997317791 1092
4.21999997273087 1112
4.23999997228384 1102
4.25999997183681 1064
4.27999997138977 1066
4.29999997094274 1111
4.3199999704957 1139
4.33999997004867 1066
4.35999996960163 1096
4.3799999691546 1035
4.39999996870756 1025
4.41999996826053 1059
4.43999996781349 1048
4.45999996736646 1077
4.47999996691942 1045
4.49999996647239 1017
4.51999996602535 1137
4.53999996557832 1006
4.55999996513128 1075
4.57999996468425 1037
4.59999996423721 1055
4.61999996379018 1091
4.63999996334314 1117
4.65999996289611 1030
4.67999996244907 1029
4.69999996200204 1057
4.719999961555 1068
4.73999996110797 995
4.75999996066093 1035
4.7799999602139 1031
4.79999995976686 1076
4.81999995931983 1072
4.83999995887279 996
4.85999995842576 1063
4.87999995797873 1020
4.89999995753169 1114
4.91999995708466 1079
4.93999995663762 1116
4.95999995619059 1007
4.97999995574355 1090
4.99999995529652 1070
5.01999995484948 1082
5.03999995440245 1080
5.05999995395541 1167
5.07999995350838 1139
5.09999995306134 1134
5.11999995261431 1137
5.13999995216727 1176
5.15999995172024 1227
5.1799999512732 1139
5.19999995082617 1133
5.21999995037913 1191
5.2399999499321 1251
5.25999994948506 1311
5.27999994903803 1396
5.29999994859099 1440
5.31999994814396 1509
5.33999994769692 1459
5.35999994724989 1630
5.37999994680285 1601
5.39999994635582 1740
5.41999994590878 1880
5.43999994546175 1940
5.45999994501471 2002
5.47999994456768 1952
5.49999994412065 1795
5.51999994367361 1575
5.53999994322658 1410
5.55999994277954 1264
5.57999994233251 1277
5.59999994188547 1131
5.61999994143844 1130
5.6399999409914 1087
5.65999994054437 1074
5.67999994009733 1036
5.6999999396503 1059
5.71999993920326 1076
5.73999993875623 1041
5.75999993830919 1065
5.77999993786216 982
5.79999993741512 997
5.81999993696809 1036
5.83999993652105 977
5.85999993607402 989
5.87999993562698 959
5.89999993517995 951
5.91999993473291 920
5.93999993428588 911
5.95999993383884 936
5.97999993339181 933
5.99999993294477 926
6.01999993249774 932
6.0399999320507 889
6.05999993160367 861
6.07999993115663 858
6.0999999307096 889
6.11999993026257 947
6.13999992981553 915
6.1599999293685 911
6.17999992892146 877
6.19999992847443 898
6.21999992802739 866
6.23999992758036 890
6.25999992713332 867
6.27999992668629 923
6.29999992623925 845
6.31999992579222 825
6.33999992534518 845
6.35999992489815 901
6.37999992445111 839
6.39999992400408 864
6.41999992355704 889
6.43999992311001 822
6.45999992266297 864
6.47999992221594 866
6.4999999217689 841
6.51999992132187 875
6.53999992087483 858
6.5599999204278 864
6.57999991998076 837
6.59999991953373 793
6.61999991908669 823
6.63999991863966 848
6.65999991819262 898
6.67999991774559 847
6.69999991729855 793
6.71999991685152 822
6.73999991640449 848
6.75999991595745 831
6.77999991551042 844
6.79999991506338 862
6.81999991461635 768
6.83999991416931 843
6.85999991372228 866
6.87999991327524 839
6.89999991282821 838
6.91999991238117 800
6.93999991193414 814
6.9599999114871 865
6.97999991104007 849
6.99999991059303 799
7.019999910146 856
7.03999990969896 811
7.05999990925193 822
7.07999990880489 842
7.09999990835786 755
7.11999990791082 794
7.13999990746379 848
7.15999990701675 772
7.17999990656972 788
7.19999990612268 803
7.21999990567565 810
7.23999990522861 806
7.25999990478158 782
7.27999990433454 800
7.29999990388751 777
7.31999990344047 819
7.33999990299344 794
7.35999990254641 798
7.37999990209937 718
7.39999990165234 729
7.4199999012053 775
7.43999990075827 751
7.45999990031123 759
7.4799998998642 748
7.49999989941716 750
7.51999989897013 747
7.53999989852309 752
7.55999989807606 727
7.57999989762902 772
7.59999989718199 804
7.61999989673495 783
7.63999989628792 805
7.65999989584088 737
7.67999989539385 708
7.69999989494681 752
7.71999989449978 697
7.73999989405274 744
7.75999989360571 770
7.77999989315867 740
7.79999989271164 740
7.8199998922646 750
7.83999989181757 745
7.85999989137053 736
7.8799998909235 776
7.89999989047646 729
7.91999989002943 774
7.9399998895824 780
7.95999988913536 735
7.97999988868833 737
7.99999988824129 719
8.01999988779426 720
8.03999988734722 687
8.05999988690019 648
8.07999988645315 717
8.09999988600612 697
8.11999988555908 730
8.13999988511205 700
8.15999988466501 669
8.17999988421798 680
8.19999988377094 738
8.21999988332391 700
8.23999988287687 675
8.25999988242984 729
8.2799998819828 679
8.29999988153577 683
8.31999988108873 737
8.3399998806417 687
8.35999988019466 709
8.37999987974763 631
8.39999987930059 693
8.41999987885356 679
8.43999987840652 680
8.45999987795949 684
8.47999987751245 634
8.49999987706542 693
8.51999987661839 674
8.53999987617135 671
8.55999987572432 715
8.57999987527728 650
8.59999987483025 701
8.61999987438321 666
8.63999987393618 670
8.65999987348914 695
8.67999987304211 679
8.69999987259507 758
8.71999987214804 684
8.739999871701 699
8.75999987125397 724
8.77999987080693 656
8.7999998703599 739
8.81999986991286 668
8.83999986946583 665
8.85999986901879 715
8.87999986857176 660
8.89999986812472 678
8.91999986767769 665
8.93999986723065 651
8.95999986678362 684
8.97999986633658 651
8.99999986588955 684
9.01999986544251 653
9.03999986499548 694
9.05999986454844 654
9.07999986410141 669
9.09999986365438 708
9.11999986320734 687
9.13999986276031 709
9.15999986231327 673
9.17999986186624 672
9.1999998614192 674
9.21999986097217 677
9.23999986052513 669
9.2599998600781 720
9.27999985963106 697
9.29999985918403 728
9.31999985873699 755
9.33999985828996 775
9.35999985784292 789
9.37999985739589 727
9.39999985694885 770
9.41999985650182 752
9.43999985605478 819
9.45999985560775 847
9.47999985516071 773
9.49999985471368 710
9.51999985426664 660
9.53999985381961 646
9.55999985337257 651
9.57999985292554 623
9.5999998524785 675
9.61999985203147 635
9.63999985158443 646
9.6599998511374 620
9.67999985069037 641
9.69999985024333 611
9.7199998497963 621
9.73999984934926 602
9.75999984890223 615
9.77999984845519 556
9.79999984800816 652
9.81999984756112 615
9.83999984711409 597
9.85999984666705 619
9.87999984622002 590
9.89999984577298 637
9.91999984532595 628
9.93999984487891 596
9.95999984443188 553
9.97999984398484 577
9.99999984353781 579
10.0199998430908 579
10.0399998426437 575
10.0599998421967 626
10.0799998417497 593
10.0999998413026 576
10.1199998408556 612
10.1399998404086 590
10.1599998399615 595
10.1799998395145 569
10.1999998390675 611
10.2199998386204 586
10.2399998381734 551
10.2599998377264 627
10.2799998372793 567
10.2999998368323 585
10.3199998363853 563
10.3399998359382 612
10.3599998354912 574
10.3799998350441 570
10.3999998345971 602
10.4199998341501 604
10.439999833703 571
10.459999833256 599
10.479999832809 659
10.4999998323619 632
10.5199998319149 614
10.5399998314679 587
10.5599998310208 600
10.5799998305738 555
10.5999998301268 629
10.6199998296797 608
10.6399998292327 631
10.6599998287857 614
10.6799998283386 603
10.6999998278916 590
10.7199998274446 629
10.7399998269975 588
10.7599998265505 610
10.7799998261034 651
10.7999998256564 615
10.8199998252094 590
10.8399998247623 637
10.8599998243153 658
10.8799998238683 652
10.8999998234212 630
10.9199998229742 601
10.9399998225272 612
10.9599998220801 600
10.9799998216331 606
10.9999998211861 655
11.019999820739 561
11.039999820292 601
11.059999819845 596
11.0799998193979 559
11.0999998189509 531
11.1199998185039 615
11.1399998180568 557
11.1599998176098 566
11.1799998171628 553
11.1999998167157 563
11.2199998162687 558
11.2399998158216 548
11.2599998153746 514
11.2799998149276 547
11.2999998144805 546
11.3199998140335 550
11.3399998135865 589
11.3599998131394 545
11.3799998126924 543
11.3999998122454 566
11.4199998117983 527
11.4399998113513 555
11.4599998109043 563
11.4799998104572 570
11.4999998100102 549
11.5199998095632 573
11.5399998091161 551
11.5599998086691 571
11.5799998082221 545
11.599999807775 474
11.619999807328 531
11.639999806881 499
11.6599998064339 542
11.6799998059869 531
11.6999998055398 542
11.7199998050928 558
11.7399998046458 516
11.7599998041987 547
11.7799998037517 544
11.7999998033047 536
11.8199998028576 533
11.8399998024106 512
11.8599998019636 545
11.8799998015165 529
11.8999998010695 549
11.9199998006225 541
11.9399998001754 557
11.9599997997284 560
11.9799997992814 516
11.9999997988343 532
12.0199997983873 541
12.0399997979403 539
12.0599997974932 510
12.0799997970462 544
12.0999997965992 522
12.1199997961521 536
12.1399997957051 562
12.159999795258 516
12.179999794811 516
12.199999794364 506
12.2199997939169 550
12.2399997934699 522
12.2599997930229 549
12.2799997925758 564
12.2999997921288 504
12.3199997916818 554
12.3399997912347 550
12.3599997907877 513
12.3799997903407 526
12.3999997898936 532
12.4199997894466 512
12.4399997889996 497
12.4599997885525 502
12.4799997881055 587
12.4999997876585 534
12.5199997872114 555
12.5399997867644 522
12.5599997863173 532
12.5799997858703 523
12.5999997854233 524
12.6199997849762 509
12.6399997845292 554
12.6599997840822 524
12.6799997836351 518
12.6999997831881 499
12.7199997827411 537
12.739999782294 494
12.759999781847 520
12.7799997814 547
12.7999997809529 515
12.8199997805059 505
12.8399997800589 548
12.8599997796118 515
12.8799997791648 498
12.8999997787178 492
12.9199997782707 545
12.9399997778237 481
12.9599997773767 511
12.9799997769296 498
12.9999997764826 527
13.0199997760355 496
13.0399997755885 448
13.0599997751415 525
13.0799997746944 475
13.0999997742474 526
13.1199997738004 483
13.1399997733533 482
13.1599997729063 536
13.1799997724593 479
13.1999997720122 506
13.2199997715652 563
13.2399997711182 494
13.2599997706711 498
13.2799997702241 519
13.2999997697771 516
13.31999976933 510
13.339999768883 502
13.359999768436 530
13.3799997679889 496
13.3999997675419 461
13.4199997670949 489
13.4399997666478 501
13.4599997662008 508
13.4799997657537 519
13.4999997653067 516
13.5199997648597 542
13.5399997644126 519
13.5599997639656 507
13.5799997635186 520
13.5999997630715 512
13.6199997626245 484
13.6399997621775 505
13.6599997617304 496
13.6799997612834 499
13.6999997608364 545
13.7199997603893 491
13.7399997599423 496
13.7599997594953 505
13.7799997590482 502
13.7999997586012 528
13.8199997581542 506
13.8399997577071 517
13.8599997572601 517
13.879999756813 459
13.899999756366 477
13.919999755919 499
13.9399997554719 517
13.9599997550249 515
13.9799997545779 503
13.9999997541308 516
14.0199997536838 517
14.0399997532368 489
14.0599997527897 521
14.0799997523427 506
14.0999997518957 551
14.1199997514486 510
14.1399997510016 514
14.1599997505546 501
14.1799997501075 504
14.1999997496605 550
14.2199997492135 511
14.2399997487664 481
14.2599997483194 482
14.2799997478724 491
14.2999997474253 473
14.3199997469783 474
14.3399997465312 512
14.3599997460842 484
14.3799997456372 511
14.3999997451901 513
14.4199997447431 495
14.4399997442961 510
14.459999743849 518
14.479999743402 488
14.499999742955 515
14.5199997425079 503
14.5399997420609 495
14.5599997416139 489
14.5799997411668 524
14.5999997407198 506
14.6199997402728 454
14.6399997398257 509
14.6599997393787 505
14.6799997389317 466
14.6999997384846 525
14.7199997380376 486
14.7399997375906 462
14.7599997371435 514
14.7799997366965 475
14.7999997362494 523
14.8199997358024 506
14.8399997353554 503
14.8599997349083 461
14.8799997344613 502
14.8999997340143 502
14.9199997335672 520
14.9399997331202 432
14.9599997326732 493
14.9799997322261 513
14.9999997317791 472
15.0199997313321 529
15.039999730885 514
15.059999730438 538
15.079999729991 509
15.0999997295439 528
15.1199997290969 503
15.1399997286499 472
15.1599997282028 515
15.1799997277558 528
15.1999997273088 474
15.2199997268617 507
15.2399997264147 498
15.2599997259676 523
15.2799997255206 504
15.2999997250736 451
15.3199997246265 496
15.3399997241795 529
15.3599997237325 507
15.3799997232854 464
15.3999997228384 510
15.4199997223914 511
15.4399997219443 535
15.4599997214973 477
15.4799997210503 450
15.4999997206032 503
15.5199997201562 479
15.5399997197092 517
15.5599997192621 460
15.5799997188151 464
15.5999997183681 477
15.619999717921 490
15.639999717474 497
15.659999717027 493
15.6799997165799 464
15.6999997161329 444
15.7199997156858 508
15.7399997152388 439
15.7599997147918 482
15.7799997143447 452
15.7999997138977 493
15.8199997134507 484
15.8399997130036 460
15.8599997125566 471
15.8799997121096 508
15.8999997116625 496
15.9199997112155 493
15.9399997107685 469
15.9599997103214 496
15.9799997098744 484
15.9999997094274 462
16.0199997089803 521
16.0399997085333 461
16.0599997080863 493
16.0799997076392 468
16.0999997071922 477
16.1199997067451 482
16.1399997062981 473
16.1599997058511 481
16.179999705404 453
16.199999704957 496
16.21999970451 490
16.2399997040629 497
16.2599997036159 474
16.2799997031689 475
16.2999997027218 464
16.3199997022748 485
16.3399997018278 500
16.3599997013807 510
16.3799997009337 474
16.3999997004867 487
16.4199997000396 499
16.4399996995926 468
16.4599996991456 466
16.4799996986985 478
16.4999996982515 486
16.5199996978045 465
16.5399996973574 489
16.5599996969104 507
16.5799996964633 477
16.5999996960163 435
16.6199996955693 505
16.6399996951222 514
16.6599996946752 511
16.6799996942282 491
16.6999996937811 484
16.7199996933341 506
16.7399996928871 500
16.75999969244 494
16.779999691993 486
16.799999691546 494
16.8199996910989 524
16.8399996906519 495
16.8599996902049 521
16.8799996897578 507
16.8999996893108 520
16.9199996888638 506
16.9399996884167 545
16.9599996879697 542
16.9799996875226 546
16.9999996870756 557
17.0199996866286 516
17.0399996861815 512
17.0599996857345 498
17.0799996852875 579
17.0999996848404 623
17.1199996843934 645
17.1399996839464 538
17.1599996834993 542
17.1799996830523 591
17.1999996826053 553
17.2199996821582 585
17.2399996817112 565
17.2599996812642 553
17.2799996808171 546
17.2999996803701 510
17.3199996799231 499
17.339999679476 522
17.359999679029 522
17.379999678582 493
17.3999996781349 482
17.4199996776879 507
17.4399996772408 486
17.4599996767938 497
17.4799996763468 503
17.4999996758997 499
17.5199996754527 509
17.5399996750057 479
17.5599996745586 515
17.5799996741116 498
17.5999996736646 486
17.6199996732175 486
17.6399996727705 496
17.6599996723235 487
17.6799996718764 513
17.6999996714294 497
17.7199996709824 458
17.7399996705353 501
17.7599996700883 490
17.7799996696413 496
17.7999996691942 527
17.8199996687472 476
17.8399996683002 501
17.8599996678531 524
17.8799996674061 487
17.899999666959 524
17.919999666512 489
17.939999666065 530
17.9599996656179 532
17.9799996651709 510
17.9999996647239 511
18.0199996642768 495
18.0399996638298 531
18.0599996633828 452
18.0799996629357 480
18.0999996624887 518
18.1199996620417 472
18.1399996615946 519
18.1599996611476 502
18.1799996607006 493
18.1999996602535 507
18.2199996598065 513
18.2399996593595 503
18.2599996589124 508
18.2799996584654 482
18.2999996580184 479
18.3199996575713 489
18.3399996571243 526
18.3599996566772 503
18.3799996562302 499
18.3999996557832 513
18.4199996553361 485
18.4399996548891 543
18.4599996544421 523
18.479999653995 537
18.499999653548 508
18.519999653101 490
18.5399996526539 503
18.5599996522069 513
18.5799996517599 544
18.5999996513128 463
18.6199996508658 513
18.6399996504188 507
18.6599996499717 468
18.6799996495247 507
18.6999996490777 496
18.7199996486306 499
18.7399996481836 522
18.7599996477366 500
18.7799996472895 526
18.7999996468425 505
18.8199996463954 522
18.8399996459484 525
18.8599996455014 575
18.8799996450543 535
18.8999996446073 530
18.9199996441603 512
18.9399996437132 498
18.9599996432662 509
18.9799996428192 519
18.9999996423721 495
19.0199996419251 514
19.0399996414781 483
19.059999641031 519
19.079999640584 540
19.099999640137 501
19.1199996396899 518
19.1399996392429 535
19.1599996387959 534
19.1799996383488 493
19.1999996379018 513
19.2199996374547 527
19.2399996370077 507
19.2599996365607 537
19.2799996361136 529
19.2999996356666 503
19.3199996352196 487
19.3399996347725 523
19.3599996343255 508
19.3799996338785 510
19.3999996334314 502
19.4199996329844 522
19.4399996325374 520
19.4599996320903 495
19.4799996316433 538
19.4999996311963 542
19.5199996307492 537
19.5399996303022 511
19.5599996298552 519
19.5799996294081 563
19.5999996289611 550
19.6199996285141 552
19.639999628067 560
19.65999962762 557
19.6799996271729 554
19.6999996267259 513
19.7199996262789 580
19.7399996258318 541
19.7599996253848 503
19.7799996249378 524
19.7999996244907 529
19.8199996240437 510
19.8399996235967 525
19.8599996231496 489
19.8799996227026 485
19.8999996222556 520
19.9199996218085 515
19.9399996213615 494
19.9599996209145 526
19.9799996204674 531
19.9999996200204 525
