3 2432
3.01999999955297 2416
3.03999999910593 2146
3.0599999986589 1802
3.07999999821186 1746
3.09999999776483 1593
3.11999999731779 1618
3.13999999687076 1612
3.15999999642372 1544
3.17999999597669 1542
3.19999999552965 1514
3.21999999508262 1576
3.23999999463558 1502
3.25999999418855 1493
3.27999999374151 1443
3.29999999329448 1455
3.31999999284744 1404
3.33999999240041 1454
3.35999999195337 1461
3.37999999150634 1428
3.3999999910593 1374
3.41999999061227 1447
3.43999999016523 1432
3.4599999897182 1333
3.47999998927116 1314
3.49999998882413 1380
3.51999998837709 1356
3.53999998793006 1298
3.55999998748302 1301
3.57999998703599 1344
3.59999998658895 1283
3.61999998614192 1345
3.63999998569489 1304
3.65999998524785 1314
3.67999998480082 1360
3.69999998435378 1310
3.71999998390675 1226
3.73999998345971 1205
3.75999998301268 1208
3.77999998256564 1224
3.79999998211861 1244
3.81999998167157 1288
3.83999998122454 1294
3.8599999807775 1199
3.87999998033047 1219
3.89999997988343 1226
3.9199999794364 1254
3.93999997898936 1248
3.95999997854233 1255
3.97999997809529 1170
3.99999997764826 1182
4.01999997720122 1179
4.03999997675419 1186
4.05999997630715 1197
4.07999997586012 1232
4.09999997541308 1181
4.11999997496605 1206
4.13999997451901 1282
4.15999997407198 1162
4.17999997362494 1181
4.19999997317791 1247
4.21999997273087 1121
4.23999997228384 1148
4.25999997183681 1154
4.27999997138977 1221
4.29999997094274 1194
4.3199999704957 1214
4.33999997004867 1139
4.35999996960163 1145
4.3799999691546 1176
4.39999996870756 1150
4.41999996826053 1152
4.43999996781349 1148
4.45999996736646 1129
4.47999996691942 1153
4.49999996647239 1151
4.51999996602535 1184
4.53999996557832 1178
4.55999996513128 1135
4.57999996468425 1138
4.59999996423721 1187
4.61999996379018 1124
4.63999996334314 1139
4.65999996289611 1173
4.67999996244907 1090
4.69999996200204 1130
4.719999961555 1101
4.73999996110797 1119
4.75999996066093 1144
4.7799999602139 1175
4.79999995976686 1143
4.81999995931983 1180
4.83999995887279 1132
4.85999995842576 1166
4.87999995797873 1072
4.89999995753169 1185
4.91999995708466 1097
4.93999995663762 1096
4.95999995619059 1127
4.97999995574355 1134
4.99999995529652 1170
5.01999995484948 1154
5.03999995440245 1135
5.05999995395541 1117
5.07999995350838 1120
5.09999995306134 1146
5.11999995261431 1161
5.13999995216727 1106
5.15999995172024 1178
5.1799999512732 1139
5.19999995082617 1118
5.21999995037913 1130
5.2399999499321 1146
5.25999994948506 1113
5.27999994903803 1094
5.29999994859099 1153
5.31999994814396 1189
5.33999994769692 1133
5.35999994724989 1167
5.37999994680285 1152
5.39999994635582 1164
5.41999994590878 1223
5.43999994546175 1167
5.45999994501471 1173
5.47999994456768 1105
5.49999994412065 1125
5.51999994367361 1185
5.53999994322658 1157
5.55999994277954 1171
5.57999994233251 1177
5.59999994188547 1154
5.61999994143844 1017
5.6399999409914 1121
5.65999994054437 1064
5.67999994009733 1083
5.6999999396503 1093
5.71999993920326 1066
5.73999993875623 1076
5.75999993830919 1087
5.77999993786216 1069
5.79999993741512 1037
5.81999993696809 956
5.83999993652105 1064
5.85999993607402 1044
5.87999993562698 978
5.89999993517995 982
5.91999993473291 1019
5.93999993428588 1025
5.95999993383884 1013
5.97999993339181 958
5.99999993294477 994
6.01999993249774 999
6.0399999320507 965
6.05999993160367 921
6.07999993115663 918
6.0999999307096 994
6.11999993026257 941
6.13999992981553 983
6.1599999293685 927
6.17999992892146 992
6.19999992847443 931
6.21999992802739 958
6.23999992758036 969
6.25999992713332 905
6.27999992668629 925
6.29999992623925 897
6.31999992579222 909
6.33999992534518 908
6.35999992489815 886
6.37999992445111 940
6.39999992400408 954
6.41999992355704 892
6.43999992311001 909
6.45999992266297 905
6.47999992221594 949
6.4999999217689 943
6.51999992132187 918
6.53999992087483 944
6.5599999204278 876
6.57999991998076 823
6.59999991953373 890
6.61999991908669 890
6.63999991863966 878
6.65999991819262 908
6.67999991774559 905
6.69999991729855 850
6.71999991685152 854
6.73999991640449 929
6.75999991595745 882
6.77999991551042 878
6.79999991506338 871
6.81999991461635 916
6.83999991416931 899
6.85999991372228 892
6.87999991327524 868
6.89999991282821 848
6.91999991238117 861
6.93999991193414 869
6.9599999114871 823
6.97999991104007 834
6.99999991059303 822
7.019999910146 798
7.03999990969896 836
7.05999990925193 807
7.07999990880489 874
7.09999990835786 847
7.11999990791082 839
7.13999990746379 790
7.15999990701675 773
7.17999990656972 816
7.19999990612268 816
7.21999990567565 831
7.23999990522861 786
7.25999990478158 778
7.27999990433454 800
7.29999990388751 801
7.31999990344047 781
7.33999990299344 794
7.35999990254641 810
7.37999990209937 802
7.39999990165234 824
7.4199999012053 831
7.43999990075827 768
7.45999990031123 823
7.4799998998642 776
7.49999989941716 808
7.51999989897013 811
7.53999989852309 818
7.55999989807606 750
7.57999989762902 770
7.59999989718199 806
7.61999989673495 801
7.63999989628792 787
7.65999989584088 784
7.67999989539385 747
7.69999989494681 796
7.71999989449978 747
7.73999989405274 778
7.75999989360571 819
7.77999989315867 744
7.79999989271164 744
7.8199998922646 736
7.83999989181757 765
7.85999989137053 748
7.8799998909235 762
7.89999989047646 824
7.91999989002943 737
7.9399998895824 739
7.95999988913536 801
7.97999988868833 753
7.99999988824129 755
8.01999988779426 774
8.03999988734722 741
8.05999988690019 751
8.07999988645315 761
8.09999988600612 746
8.11999988555908 682
8.13999988511205 739
8.15999988466501 681
8.17999988421798 735
8.19999988377094 696
8.21999988332391 687
8.23999988287687 738
8.25999988242984 762
8.2799998819828 673
8.29999988153577 702
8.31999988108873 679
8.3399998806417 753
8.35999988019466 715
8.37999987974763 688
8.39999987930059 730
8.41999987885356 723
8.43999987840652 715
8.45999987795949 681
8.47999987751245 699
8.49999987706542 682
8.51999987661839 690
8.53999987617135 720
8.55999987572432 729
8.57999987527728 693
8.59999987483025 672
8.61999987438321 710
8.63999987393618 668
8.65999987348914 706
8.67999987304211 701
8.69999987259507 710
8.71999987214804 732
8.739999871701 667
8.75999987125397 734
8.77999987080693 739
8.7999998703599 747
8.81999986991286 698
8.83999986946583 674
8.85999986901879 700
8.87999986857176 667
8.89999986812472 705
8.91999986767769 686
8.93999986723065 709
8.95999986678362 680
8.97999986633658 682
8.99999986588955 709
9.01999986544251 631
9.03999986499548 622
9.05999986454844 633
9.07999986410141 663
9.09999986365438 676
9.11999986320734 661
9.13999986276031 669
9.15999986231327 667
9.17999986186624 650
9.1999998614192 650
9.21999986097217 691
9.23999986052513 691
9.2599998600781 669
9.27999985963106 665
9.29999985918403 676
9.31999985873699 717
9.33999985828996 697
9.35999985784292 663
9.37999985739589 652
9.39999985694885 683
9.41999985650182 680
9.43999985605478 726
9.45999985560775 674
9.47999985516071 685
9.49999985471368 690
9.51999985426664 687
9.53999985381961 700
9.55999985337257 730
9.57999985292554 686
9.5999998524785 636
9.61999985203147 696
9.63999985158443 711
9.6599998511374 721
9.67999985069037 674
9.69999985024333 663
9.7199998497963 662
9.73999984934926 655
9.75999984890223 641
9.77999984845519 626
9.79999984800816 637
9.81999984756112 632
9.83999984711409 636
9.85999984666705 643
9.87999984622002 621
9.89999984577298 626
9.91999984532595 620
9.93999984487891 675
9.95999984443188 650
9.97999984398484 569
9.99999984353781 608
10.0199998430908 574
10.0399998426437 648
10.0599998421967 623
10.0799998417497 609
10.0999998413026 615
10.1199998408556 632
10.1399998404086 610
10.1599998399615 631
10.1799998395145 646
10.1999998390675 562
10.2199998386204 657
10.2399998381734 654
10.2599998377264 586
10.2799998372793 629
10.2999998368323 660
10.3199998363853 637
10.3399998359382 632
10.3599998354912 647
10.3799998350441 572
10.3999998345971 592
10.4199998341501 573
10.439999833703 622
10.459999833256 637
10.479999832809 569
10.4999998323619 639
10.5199998319149 559
10.5399998314679 581
10.5599998310208 598
10.5799998305738 602
10.5999998301268 609
10.6199998296797 611
10.6399998292327 591
10.6599998287857 573
10.6799998283386 616
10.6999998278916 588
10.7199998274446 601
10.7399998269975 617
10.7599998265505 593
10.7799998261034 574
10.7999998256564 598
10.8199998252094 605
10.8399998247623 554
10.8599998243153 611
10.8799998238683 597
10.8999998234212 583
10.9199998229742 580
10.9399998225272 564
10.9599998220801 587
10.9799998216331 558
10.9999998211861 603
11.019999820739 597
11.039999820292 585
11.059999819845 563
11.0799998193979 597
11.0999998189509 576
11.1199998185039 569
11.1399998180568 597
11.1599998176098 567
11.1799998171628 581
11.1999998167157 513
11.2199998162687 586
11.2399998158216 584
11.2599998153746 523
11.2799998149276 556
11.2999998144805 551
11.3199998140335 579
11.3399998135865 560
11.3599998131394 576
11.3799998126924 537
11.3999998122454 610
11.4199998117983 580
11.4399998113513 556
11.4599998109043 562
11.4799998104572 555
11.4999998100102 539
11.5199998095632 540
11.5399998091161 517
11.5599998086691 575
11.5799998082221 574
11.599999807775 544
11.619999807328 589
11.639999806881 544
11.6599998064339 519
11.6799998059869 539
11.6999998055398 557
11.7199998050928 596
11.7399998046458 535
11.7599998041987 518
11.7799998037517 556
11.7999998033047 551
11.8199998028576 569
11.8399998024106 529
11.8599998019636 562
11.8799998015165 511
11.8999998010695 545
11.9199998006225 547
11.9399998001754 525
11.9599997997284 548
11.9799997992814 527
11.9999997988343 529
12.0199997983873 545
12.0399997979403 555
12.0599997974932 537
12.0799997970462 537
12.0999997965992 539
12.1199997961521 537
12.1399997957051 508
12.159999795258 545
12.179999794811 545
12.199999794364 572
12.2199997939169 542
12.2399997934699 536
12.2599997930229 535
12.2799997925758 547
12.2999997921288 506
12.3199997916818 528
12.3399997912347 572
12.3599997907877 509
12.3799997903407 558
12.3999997898936 547
12.4199997894466 547
12.4399997889996 563
12.4599997885525 471
12.4799997881055 508
12.4999997876585 558
12.5199997872114 516
12.5399997867644 544
12.5599997863173 512
12.5799997858703 516
12.5999997854233 558
12.6199997849762 532
12.6399997845292 537
12.6599997840822 523
12.6799997836351 546
12.6999997831881 479
12.7199997827411 513
12.739999782294 549
12.759999781847 575
12.7799997814 536
12.7999997809529 510
12.8199997805059 513
12.8399997800589 516
12.8599997796118 545
12.8799997791648 491
12.8999997787178 495
12.9199997782707 520
12.9399997778237 541
12.9599997773767 527
12.9799997769296 537
12.9999997764826 545
13.0199997760355 525
13.0399997755885 514
13.0599997751415 557
13.0799997746944 524
13.0999997742474 518
13.1199997738004 570
13.1399997733533 491
13.1599997729063 546
13.1799997724593 552
13.1999997720122 542
13.2199997715652 533
13.2399997711182 503
13.2599997706711 503
13.2799997702241 540
13.2999997697771 505
13.31999976933 490
13.339999768883 524
13.359999768436 491
13.3799997679889 516
13.3999997675419 491
13.4199997670949 515
13.4399997666478 500
13.4599997662008 498
13.4799997657537 479
13.4999997653067 516
13.5199997648597 507
13.5399997644126 505
13.5599997639656 548
13.5799997635186 546
13.5999997630715 503
13.6199997626245 519
13.6399997621775 492
13.6599997617304 507
13.6799997612834 521
13.6999997608364 533
13.7199997603893 538
13.7399997599423 536
13.7599997594953 517
13.7799997590482 506
13.7999997586012 537
13.8199997581542 528
13.8399997577071 510
13.8599997572601 506
13.879999756813 502
13.899999756366 535
13.919999755919 534
13.9399997554719 515
13.9599997550249 546
13.9799997545779 499
13.9999997541308 502
14.0199997536838 523
14.0399997532368 485
14.0599997527897 510
14.0799997523427 507
14.0999997518957 533
14.1199997514486 495
14.1399997510016 520
14.1599997505546 519
14.1799997501075 498
14.1999997496605 510
14.2199997492135 462
14.2399997487664 509
14.2599997483194 512
14.2799997478724 493
14.2999997474253 521
14.3199997469783 524
14.3399997465312 493
14.3599997460842 502
14.3799997456372 500
14.3999997451901 510
14.4199997447431 515
14.4399997442961 518
14.459999743849 500
14.479999743402 525
14.499999742955 508
14.5199997425079 516
14.5399997420609 495
14.5599997416139 544
14.5799997411668 514
14.5999997407198 491
14.6199997402728 486
14.6399997398257 559
14.6599997393787 511
14.6799997389317 489
14.6999997384846 514
14.7199997380376 526
14.7399997375906 545
14.7599997371435 521
14.7799997366965 533
14.7999997362494 529
14.8199997358024 526
14.8399997353554 488
14.8599997349083 505
14.8799997344613 512
14.8999997340143 499
14.9199997335672 508
14.9399997331202 507
14.9599997326732 494
14.9799997322261 548
14.9999997317791 536
15.0199997313321 568
15.039999730885 499
15.059999730438 492
15.079999729991 492
15.0999997295439 535
15.1199997290969 541
15.1399997286499 510
15.1599997282028 504
15.1799997277558 519
15.1999997273088 537
15.2199997268617 512
15.2399997264147 525
15.2599997259676 539
15.2799997255206 515
15.2999997250736 540
15.3199997246265 510
15.3399997241795 530
15.3599997237325 571
15.3799997232854 536
15.3999997228384 514
15.4199997223914 532
15.4399997219443 516
15.4599997214973 507
15.4799997210503 506
15.4999997206032 520
15.5199997201562 508
15.5399997197092 519
15.5599997192621 502
15.5799997188151 514
15.5999997183681 541
15.619999717921 514
15.639999717474 543
15.659999717027 521
15.6799997165799 515
15.6999997161329 493
15.7199997156858 513
15.7399997152388 505
15.7599997147918 540
15.7799997143447 540
15.7999997138977 548
15.8199997134507 514
15.8399997130036 511
15.8599997125566 492
15.8799997121096 504
15.8999997116625 536
15.9199997112155 495
15.9399997107685 509
15.9599997103214 541
15.9799997098744 510
15.9999997094274 523
16.0199997089803 531
16.0399997085333 528
16.0599997080863 525
16.0799997076392 530
16.0999997071922 525
16.1199997067451 521
16.1399997062981 539
16.1599997058511 516
16.179999705404 556
16.199999704957 535
16.21999970451 501
16.2399997040629 515
16.2599997036159 483
16.2799997031689 522
16.2999997027218 536
16.3199997022748 519
16.3399997018278 520
16.3599997013807 537
16.3799997009337 539
16.3999997004867 542
16.4199997000396 541
16.4399996995926 566
16.4599996991456 526
16.4799996986985 518
16.4999996982515 541
16.5199996978045 521
16.5399996973574 554
16.5599996969104 561
16.5799996964633 521
16.5999996960163 568
16.6199996955693 545
16.6399996951222 536
16.6599996946752 546
16.6799996942282 552
16.6999996937811 539
16.7199996933341 550
16.7399996928871 580
16.75999969244 550
16.779999691993 558
16.799999691546 544
16.8199996910989 543
16.8399996906519 586
16.8599996902049 547
16.8799996897578 547
16.8999996893108 544
16.9199996888638 577
16.9399996884167 588
16.9599996879697 630
16.9799996875226 643
16.9999996870756 664
17.0199996866286 617
17.0399996861815 626
17.0599996857345 671
17.0799996852875 705
17.0999996848404 761
17.1199996843934 803
17.1399996839464 818
17.1599996834993 793
17.1799996830523 765
17.1999996826053 840
17.2199996821582 830
17.2399996817112 731
17.2599996812642 722
17.2799996808171 612
17.2999996803701 592
17.3199996799231 556
17.339999679476 586
17.359999679029 587
17.379999678582 543
17.3999996781349 565
17.4199996776879 572
17.4399996772408 550
17.4599996767938 554
17.4799996763468 567
17.4999996758997 529
17.5199996754527 578
17.5399996750057 528
17.5599996745586 514
17.5799996741116 570
17.5999996736646 556
17.6199996732175 581
17.6399996727705 563
17.6599996723235 558
17.6799996718764 546
17.6999996714294 572
17.7199996709824 569
17.7399996705353 562
17.7599996700883 538
17.7799996696413 534
17.7999996691942 534
17.8199996687472 561
17.8399996683002 549
17.8599996678531 550
17.8799996674061 543
17.899999666959 526
17.919999666512 569
17.939999666065 568
17.9599996656179 578
17.9799996651709 550
17.9999996647239 569
18.0199996642768 584
18.0399996638298 557
18.0599996633828 560
18.0799996629357 550
18.0999996624887 600
18.1199996620417 582
18.1399996615946 537
18.1599996611476 552
18.1799996607006 552
18.1999996602535 581
18.2199996598065 554
18.2399996593595 573
18.2599996589124 571
18.2799996584654 570
18.2999996580184 574
18.3199996575713 581
18.3399996571243 548
18.3599996566772 546
18.3799996562302 577
18.3999996557832 594
18.4199996553361 598
18.4399996548891 537
18.4599996544421 602
18.479999653995 615
18.499999653548 520
18.519999653101 577
18.5399996526539 568
18.5599996522069 580
18.5799996517599 605
18.5999996513128 563
18.6199996508658 542
18.6399996504188 542
18.6599996499717 499
18.6799996495247 537
18.6999996490777 602
18.7199996486306 583
18.7399996481836 530
18.7599996477366 535
18.7799996472895 540
18.7999996468425 599
18.8199996463954 596
18.8399996459484 550
18.8599996455014 561
18.8799996450543 573
18.8999996446073 578
18.9199996441603 539
18.9399996437132 584
18.9599996432662 574
18.9799996428192 559
18.9999996423721 560
19.0199996419251 579
19.0399996414781 573
19.059999641031 579
19.079999640584 562
19.099999640137 538
19.1199996396899 576
19.1399996392429 566
19.1599996387959 581
19.1799996383488 598
19.1999996379018 596
19.2199996374547 589
19.2399996370077 580
19.2599996365607 563
19.2799996361136 559
19.2999996356666 590
19.3199996352196 627
19.3399996347725 594
19.3599996343255 563
19.3799996338785 598
19.3999996334314 538
19.4199996329844 540
19.4399996325374 594
19.4599996320903 595
19.4799996316433 552
19.4999996311963 575
19.5199996307492 534
19.5399996303022 589
19.5599996298552 589
19.5799996294081 566
19.5999996289611 553
19.6199996285141 605
19.639999628067 576
19.65999962762 568
19.6799996271729 593
19.6999996267259 590
19.7199996262789 586
19.7399996258318 591
19.7599996253848 501
19.7799996249378 588
19.7999996244907 566
19.8199996240437 597
19.8399996235967 574
19.8599996231496 595
19.8799996227026 591
19.8999996222556 588
19.9199996218085 649
19.9399996213615 585
19.9599996209145 582
19.9799996204674 604
19.9999996200204 596
