3 2375
3.01999999955297 2220
3.03999999910593 2112
3.0599999986589 2029
3.07999999821186 1904
3.09999999776483 1789
3.11999999731779 1812
3.13999999687076 1705
3.15999999642372 1665
3.17999999597669 1661
3.19999999552965 1638
3.21999999508262 1681
3.23999999463558 1561
3.25999999418855 1538
3.27999999374151 1495
3.29999999329448 1504
3.31999999284744 1516
3.33999999240041 1460
3.35999999195337 1494
3.37999999150634 1512
3.3999999910593 1493
3.41999999061227 1427
3.43999999016523 1429
3.4599999897182 1418
3.47999998927116 1403
3.49999998882413 1348
3.51999998837709 1412
3.53999998793006 1401
3.55999998748302 1366
3.57999998703599 1362
3.59999998658895 1302
3.61999998614192 1352
3.63999998569489 1302
3.65999998524785 1337
3.67999998480082 1339
3.69999998435378 1267
3.71999998390675 1215
3.73999998345971 1269
3.75999998301268 1237
3.77999998256564 1221
3.79999998211861 1197
3.81999998167157 1206
3.83999998122454 1263
3.8599999807775 1219
3.87999998033047 1156
3.89999997988343 1218
3.9199999794364 1129
3.93999997898936 1143
3.95999997854233 1194
3.97999997809529 1207
3.99999997764826 1141
4.01999997720122 1152
4.03999997675419 1171
4.05999997630715 1158
4.07999997586012 1125
4.09999997541308 1079
4.11999997496605 1093
4.13999997451901 1156
4.15999997407198 1096
4.17999997362494 1111
4.19999997317791 1152
4.21999997273087 1060
4.23999997228384 1087
4.25999997183681 1098
4.27999997138977 1095
4.29999997094274 1044
4.3199999704957 1090
4.33999997004867 1052
4.35999996960163 1051
4.3799999691546 1077
4.39999996870756 1015
4.41999996826053 1029
4.43999996781349 1031
4.45999996736646 1012
4.47999996691942 1001
4.49999996647239 970
4.51999996602535 955
4.53999996557832 1020
4.55999996513128 1025
4.57999996468425 964
4.59999996423721 1046
4.61999996379018 1073
4.63999996334314 1048
4.65999996289611 1042
4.67999996244907 962
4.69999996200204 935
4.719999961555 1005
4.73999996110797 1006
4.75999996066093 1004
4.7799999602139 1027
4.79999995976686 999
4.81999995931983 942
4.83999995887279 1003
4.85999995842576 1033
4.87999995797873 1002
4.89999995753169 1049
4.91999995708466 1023
4.93999995663762 1055
4.95999995619059 1005
4.97999995574355 1011
4.99999995529652 1049
5.01999995484948 1052
5.03999995440245 1015
5.05999995395541 1023
5.07999995350838 1049
5.09999995306134 1077
5.11999995261431 1043
5.13999995216727 1055
5.15999995172024 1101
5.1799999512732 1160
5.19999995082617 1139
5.21999995037913 1173
5.2399999499321 1218
5.25999994948506 1172
5.27999994903803 1220
5.29999994859099 1259
5.31999994814396 1391
5.33999994769692 1334
5.35999994724989 1491
5.37999994680285 1443
5.39999994635582 1579
5.41999994590878 1673
5.43999994546175 1909
5.45999994501471 2035
5.47999994456768 1955
5.49999994412065 1715
5.51999994367361 1458
5.53999994322658 1338
5.55999994277954 1238
5.57999994233251 1230
5.59999994188547 1205
5.61999994143844 1181
5.6399999409914 1152
5.65999994054437 1218
5.67999994009733 1182
5.6999999396503 1187
5.71999993920326 1180
5.73999993875623 1191
5.75999993830919 1264
5.77999993786216 1202
5.79999993741512 1333
5.81999993696809 1241
5.83999993652105 1213
5.85999993607402 1095
5.87999993562698 1075
5.89999993517995 978
5.91999993473291 899
5.93999993428588 859
5.95999993383884 850
5.97999993339181 841
5.99999993294477 820
6.01999993249774 815
6.0399999320507 834
6.05999993160367 783
6.07999993115663 714
6.0999999307096 787
6.11999993026257 773
6.13999992981553 713
6.1599999293685 818
6.17999992892146 721
6.19999992847443 735
6.21999992802739 829
6.23999992758036 772
6.25999992713332 700
6.27999992668629 703
6.29999992623925 716
6.31999992579222 743
6.33999992534518 674
6.35999992489815 731
6.37999992445111 695
6.39999992400408 727
6.41999992355704 697
6.43999992311001 663
6.45999992266297 734
6.47999992221594 709
6.4999999217689 721
6.51999992132187 721
6.53999992087483 760
6.5599999204278 727
6.57999991998076 680
6.59999991953373 731
6.61999991908669 701
6.63999991863966 719
6.65999991819262 678
6.67999991774559 756
6.69999991729855 779
6.71999991685152 734
6.73999991640449 708
6.75999991595745 737
6.77999991551042 755
6.79999991506338 741
6.81999991461635 746
6.83999991416931 723
6.85999991372228 709
6.87999991327524 704
6.89999991282821 696
6.91999991238117 713
6.93999991193414 686
6.9599999114871 676
6.97999991104007 709
6.99999991059303 642
7.019999910146 678
7.03999990969896 685
7.05999990925193 659
7.07999990880489 671
7.09999990835786 685
7.11999990791082 674
7.13999990746379 658
7.15999990701675 647
7.17999990656972 686
7.19999990612268 655
7.21999990567565 717
7.23999990522861 691
7.25999990478158 654
7.27999990433454 675
7.29999990388751 647
7.31999990344047 651
7.33999990299344 708
7.35999990254641 675
7.37999990209937 657
7.39999990165234 654
7.4199999012053 648
7.43999990075827 709
7.45999990031123 662
7.4799998998642 673
7.49999989941716 659
7.51999989897013 624
7.53999989852309 673
7.55999989807606 695
7.57999989762902 696
7.59999989718199 656
7.61999989673495 665
7.63999989628792 644
7.65999989584088 680
7.67999989539385 701
7.69999989494681 658
7.71999989449978 661
7.73999989405274 711
7.75999989360571 693
7.77999989315867 663
7.79999989271164 704
7.8199998922646 655
7.83999989181757 743
7.85999989137053 607
7.8799998909235 685
7.89999989047646 631
7.91999989002943 634
7.9399998895824 688
7.95999988913536 651
7.97999988868833 660
7.99999988824129 647
8.01999988779426 691
8.03999988734722 666
8.05999988690019 641
8.07999988645315 647
8.09999988600612 681
8.11999988555908 660
8.13999988511205 702
8.15999988466501 657
8.17999988421798 661
8.19999988377094 633
8.21999988332391 625
8.23999988287687 651
8.25999988242984 658
8.2799998819828 654
8.29999988153577 700
8.31999988108873 640
8.3399998806417 648
8.35999988019466 690
8.37999987974763 630
8.39999987930059 664
8.41999987885356 632
8.43999987840652 614
8.45999987795949 688
8.47999987751245 687
8.49999987706542 679
8.51999987661839 661
8.53999987617135 614
8.55999987572432 663
8.57999987527728 631
8.59999987483025 632
8.61999987438321 650
8.63999987393618 642
8.65999987348914 644
8.67999987304211 679
8.69999987259507 682
8.71999987214804 694
8.739999871701 683
8.75999987125397 675
8.77999987080693 698
8.7999998703599 687
8.81999986991286 679
8.83999986946583 671
8.85999986901879 710
8.87999986857176 690
8.89999986812472 702
8.91999986767769 654
8.93999986723065 679
8.95999986678362 621
8.97999986633658 698
8.99999986588955 655
9.01999986544251 671
9.03999986499548 703
9.05999986454844 693
9.07999986410141 698
9.09999986365438 704
9.11999986320734 718
9.13999986276031 730
9.15999986231327 718
9.17999986186624 768
9.1999998614192 763
9.21999986097217 787
9.23999986052513 836
9.2599998600781 830
9.27999985963106 899
9.29999985918403 890
9.31999985873699 1012
9.33999985828996 984
9.35999985784292 1088
9.37999985739589 1138
9.39999985694885 1077
9.41999985650182 891
9.43999985605478 779
9.45999985560775 693
9.47999985516071 707
9.49999985471368 677
9.51999985426664 676
9.53999985381961 693
9.55999985337257 702
9.57999985292554 746
9.5999998524785 726
9.61999985203147 696
9.63999985158443 674
9.6599998511374 662
9.67999985069037 650
9.69999985024333 653
9.7199998497963 637
9.73999984934926 687
9.75999984890223 704
9.77999984845519 664
9.79999984800816 634
9.81999984756112 659
9.83999984711409 704
9.85999984666705 694
9.87999984622002 645
9.89999984577298 632
9.91999984532595 748
9.93999984487891 645
9.95999984443188 626
9.97999984398484 672
9.99999984353781 704
10.0199998430908 657
10.0399998426437 695
10.0599998421967 713
10.0799998417497 672
10.0999998413026 692
10.1199998408556 675
10.1399998404086 686
10.1599998399615 658
10.1799998395145 732
10.1999998390675 713
10.2199998386204 721
10.2399998381734 700
10.2599998377264 679
10.2799998372793 701
10.2999998368323 711
10.3199998363853 675
10.3399998359382 652
10.3599998354912 663
10.3799998350441 611
10.3999998345971 656
10.4199998341501 662
10.439999833703 651
10.459999833256 684
10.479999832809 691
10.4999998323619 661
10.5199998319149 632
10.5399998314679 652
10.5599998310208 686
10.5799998305738 696
10.5999998301268 659
10.6199998296797 676
10.6399998292327 723
10.6599998287857 706
10.6799998283386 711
10.6999998278916 740
10.7199998274446 772
10.7399998269975 775
10.7599998265505 787
10.7799998261034 860
10.7999998256564 849
10.8199998252094 832
10.8399998247623 900
10.8599998243153 830
10.8799998238683 711
10.8999998234212 729
10.9199998229742 789
10.9399998225272 727
10.9599998220801 736
10.9799998216331 775
10.9999998211861 786
11.019999820739 796
11.039999820292 714
11.059999819845 721
11.0799998193979 689
11.0999998189509 666
11.1199998185039 710
11.1399998180568 658
11.1599998176098 677
11.1799998171628 674
11.1999998167157 641
11.2199998162687 659
11.2399998158216 702
11.2599998153746 702
11.2799998149276 646
11.2999998144805 651
11.3199998140335 616
11.3399998135865 656
11.3599998131394 648
11.3799998126924 703
11.3999998122454 659
11.4199998117983 738
11.4399998113513 660
11.4599998109043 725
11.4799998104572 724
11.4999998100102 704
11.5199998095632 701
11.5399998091161 706
11.5599998086691 753
11.5799998082221 737
11.599999807775 726
11.619999807328 696
11.639999806881 701
11.6599998064339 697
11.6799998059869 682
11.6999998055398 704
11.7199998050928 677
11.7399998046458 704
11.7599998041987 689
11.7799998037517 631
11.7999998033047 679
11.8199998028576 621
11.8399998024106 698
11.8599998019636 683
11.8799998015165 698
11.8999998010695 701
11.9199998006225 703
11.9399998001754 679
11.9599997997284 691
11.9799997992814 695
11.9999997988343 682
12.0199997983873 725
12.0399997979403 676
12.0599997974932 674
12.0799997970462 711
12.0999997965992 678
12.1199997961521 725
12.1399997957051 678
12.159999795258 714
12.179999794811 716
12.199999794364 687
12.2199997939169 690
12.2399997934699 656
12.2599997930229 704
12.2799997925758 718
12.2999997921288 702
12.3199997916818 700
12.3399997912347 669
12.3599997907877 754
12.3799997903407 693
12.3999997898936 666
12.4199997894466 713
12.4399997889996 677
12.4599997885525 732
12.4799997881055 707
12.4999997876585 717
12.5199997872114 711
12.5399997867644 757
12.5599997863173 729
12.5799997858703 674
12.5999997854233 734
12.6199997849762 721
12.6399997845292 715
12.6599997840822 714
12.6799997836351 697
12.6999997831881 702
12.7199997827411 702
12.739999782294 649
12.759999781847 712
12.7799997814 677
12.7999997809529 736
12.8199997805059 685
12.8399997800589 764
12.8599997796118 735
12.8799997791648 767
12.8999997787178 711
12.9199997782707 716
12.9399997778237 740
12.9599997773767 760
12.9799997769296 765
12.9999997764826 759
13.0199997760355 751
13.0399997755885 758
13.0599997751415 748
13.0799997746944 721
13.0999997742474 728
13.1199997738004 744
13.1399997733533 777
13.1599997729063 750
13.1799997724593 808
13.1999997720122 763
13.2199997715652 773
13.2399997711182 835
13.2599997706711 887
13.2799997702241 889
13.2999997697771 942
13.31999976933 881
13.339999768883 883
13.359999768436 844
13.3799997679889 795
13.3999997675419 750
13.4199997670949 774
13.4399997666478 777
13.4599997662008 738
13.4799997657537 777
13.4999997653067 794
13.5199997648597 785
13.5399997644126 770
13.5599997639656 737
13.5799997635186 742
13.5999997630715 738
13.6199997626245 772
13.6399997621775 741
13.6599997617304 747
13.6799997612834 738
13.6999997608364 734
13.7199997603893 743
13.7399997599423 731
13.7599997594953 738
13.7799997590482 780
13.7999997586012 716
13.8199997581542 825
13.8399997577071 775
13.8599997572601 814
13.879999756813 784
13.899999756366 805
13.919999755919 781
13.9399997554719 819
13.9599997550249 808
13.9799997545779 749
13.9999997541308 784
14.0199997536838 790
14.0399997532368 828
14.0599997527897 826
14.0799997523427 778
14.0999997518957 825
14.1199997514486 830
14.1399997510016 802
14.1599997505546 743
14.1799997501075 775
14.1999997496605 840
14.2199997492135 785
14.2399997487664 856
14.2599997483194 807
14.2799997478724 843
14.2999997474253 831
14.3199997469783 802
14.3399997465312 845
14.3599997460842 802
14.3799997456372 816
14.3999997451901 841
14.4199997447431 837
14.4399997442961 814
14.459999743849 846
14.479999743402 845
14.499999742955 825
14.5199997425079 823
14.5399997420609 863
14.5599997416139 827
14.5799997411668 828
14.5999997407198 850
14.6199997402728 854
14.6399997398257 839
14.6599997393787 895
14.6799997389317 808
14.6999997384846 859
14.7199997380376 855
14.7399997375906 858
14.7599997371435 815
14.7799997366965 874
14.7999997362494 843
14.8199997358024 851
14.8399997353554 830
14.8599997349083 875
14.8799997344613 885
14.8999997340143 887
14.9199997335672 885
14.9399997331202 883
14.9599997326732 888
14.9799997322261 875
14.9999997317791 891
15.0199997313321 848
15.039999730885 833
15.059999730438 921
15.079999729991 932
15.0999997295439 936
15.1199997290969 903
15.1399997286499 894
15.1599997282028 910
15.1799997277558 833
15.1999997273088 915
15.2199997268617 918
15.2399997264147 902
15.2599997259676 904
15.2799997255206 936
15.2999997250736 974
15.3199997246265 944
15.3399997241795 957
15.3599997237325 976
15.3799997232854 913
15.3999997228384 970
15.4199997223914 965
15.4399997219443 954
15.4599997214973 931
15.4799997210503 915
15.4999997206032 932
15.5199997201562 968
15.5399997197092 946
15.5599997192621 934
15.5799997188151 989
15.5999997183681 899
15.619999717921 971
15.639999717474 915
15.659999717027 905
15.6799997165799 902
15.6999997161329 936
15.7199997156858 1033
15.7399997152388 949
15.7599997147918 949
15.7799997143447 991
15.7999997138977 947
15.8199997134507 1028
15.8399997130036 966
15.8599997125566 1003
15.8799997121096 945
15.8999997116625 1002
15.9199997112155 1029
15.9399997107685 1018
15.9599997103214 982
15.9799997098744 965
15.9999997094274 1026
16.0199997089803 998
16.0399997085333 1010
16.0599997080863 1006
16.0799997076392 979
16.0999997071922 1013
16.1199997067451 998
16.1399997062981 1020
16.1599997058511 943
16.179999705404 1032
16.199999704957 981
16.21999970451 1011
16.2399997040629 990
16.2599997036159 997
16.2799997031689 1019
16.2999997027218 1000
16.3199997022748 989
16.3399997018278 1064
16.3599997013807 1028
16.3799997009337 1022
16.3999997004867 1053
16.4199997000396 1060
16.4399996995926 1097
16.4599996991456 1108
16.4799996986985 1150
16.4999996982515 1122
16.5199996978045 1098
16.5399996973574 1172
16.5599996969104 1109
16.5799996964633 1114
16.5999996960163 1182
16.6199996955693 1241
16.6399996951222 1159
16.6599996946752 1215
16.6799996942282 1156
16.6999996937811 1201
16.7199996933341 1297
16.7399996928871 1179
16.75999969244 1313
16.779999691993 1320
16.799999691546 1349
16.8199996910989 1489
16.8399996906519 1636
16.8599996902049 1794
16.8799996897578 1827
16.8999996893108 2066
16.9199996888638 2285
16.9399996884167 2686
16.9599996879697 3325
16.9799996875226 4264
16.9999996870756 5491
17.0199996866286 6773
17.0399996861815 7512
17.0599996857345 7362
17.0799996852875 5895
17.0999996848404 4032
17.1199996843934 2754
17.1399996839464 1808
17.1599996834993 1436
17.1799996830523 1403
17.1999996826053 1283
17.2199996821582 1337
17.2399996817112 1306
17.2599996812642 1260
17.2799996808171 1251
17.2999996803701 1201
17.3199996799231 1246
17.339999679476 1275
17.359999679029 1303
17.379999678582 1326
17.3999996781349 1261
17.4199996776879 1306
17.4399996772408 1281
17.4599996767938 1310
17.4799996763468 1282
17.4999996758997 1210
17.5199996754527 1212
17.5399996750057 1316
17.5599996745586 1248
17.5799996741116 1288
17.5999996736646 1233
17.6199996732175 1214
17.6399996727705 1307
17.6599996723235 1316
17.6799996718764 1309
17.6999996714294 1375
17.7199996709824 1276
17.7399996705353 1311
17.7599996700883 1251
17.7799996696413 1340
17.7999996691942 1422
17.8199996687472 1332
17.8399996683002 1319
17.8599996678531 1321
17.8799996674061 1293
17.899999666959 1339
17.919999666512 1371
17.939999666065 1363
17.9599996656179 1340
17.9799996651709 1380
17.9999996647239 1302
18.0199996642768 1287
18.0399996638298 1362
18.0599996633828 1401
18.0799996629357 1406
18.0999996624887 1396
18.1199996620417 1391
18.1399996615946 1411
18.1599996611476 1395
18.1799996607006 1369
18.1999996602535 1413
18.2199996598065 1370
18.2399996593595 1443
18.2599996589124 1364
18.2799996584654 1386
18.2999996580184 1402
18.3199996575713 1391
18.3399996571243 1410
18.3599996566772 1384
18.3799996562302 1376
18.3999996557832 1414
18.4199996553361 1408
18.4399996548891 1468
18.4599996544421 1417
18.479999653995 1451
18.499999653548 1507
18.519999653101 1538
18.5399996526539 1461
18.5599996522069 1420
18.5799996517599 1495
18.5999996513128 1529
18.6199996508658 1519
18.6399996504188 1489
18.6599996499717 1501
18.6799996495247 1461
18.6999996490777 1488
18.7199996486306 1505
18.7399996481836 1511
18.7599996477366 1526
18.7799996472895 1508
18.7999996468425 1483
18.8199996463954 1514
18.8399996459484 1545
18.8599996455014 1592
18.8799996450543 1476
18.8999996446073 1562
18.9199996441603 1549
18.9399996437132 1538
18.9599996432662 1579
18.9799996428192 1578
18.9999996423721 1593
19.0199996419251 1542
19.0399996414781 1599
19.059999641031 1603
19.079999640584 1566
19.099999640137 1555
19.1199996396899 1581
19.1399996392429 1645
19.1599996387959 1610
19.1799996383488 1623
19.1999996379018 1576
19.2199996374547 1589
19.2399996370077 1663
19.2599996365607 1638
19.2799996361136 1626
19.2999996356666 1647
19.3199996352196 1591
19.3399996347725 1575
19.3599996343255 1675
19.3799996338785 1680
19.3999996334314 1710
19.4199996329844 1719
19.4399996325374 1649
19.4599996320903 1731
19.4799996316433 1727
19.4999996311963 1744
19.5199996307492 1732
19.5399996303022 1725
19.5599996298552 1831
19.5799996294081 1743
19.5999996289611 1659
19.6199996285141 1663
19.639999628067 1694
19.65999962762 1689
19.6799996271729 1692
19.6999996267259 1656
19.7199996262789 1777
19.7399996258318 1697
19.7599996253848 1746
19.7799996249378 1698
19.7999996244907 1752
19.8199996240437 1762
19.8399996235967 1721
19.8599996231496 1760
19.8799996227026 1701
19.8999996222556 1709
19.9199996218085 1694
19.9399996213615 1689
19.9599996209145 1680
19.9799996204674 1671
19.9999996200204 1729
