3 1950
3.01999999955297 1786
3.03999999910593 1587
3.0599999986589 1541
3.07999999821186 1424
3.09999999776483 1393
3.11999999731779 1324
3.13999999687076 1291
3.15999999642372 1251
3.17999999597669 1215
3.19999999552965 1196
3.21999999508262 1260
3.23999999463558 1203
3.25999999418855 1181
3.27999999374151 1178
3.29999999329448 1186
3.31999999284744 1064
3.33999999240041 1094
3.35999999195337 1067
3.37999999150634 1116
3.3999999910593 1100
3.41999999061227 1146
3.43999999016523 1038
3.4599999897182 1056
3.47999998927116 1041
3.49999998882413 1040
3.51999998837709 1082
3.53999998793006 1004
3.55999998748302 988
3.57999998703599 1027
3.59999998658895 1012
3.61999998614192 1017
3.63999998569489 1006
3.65999998524785 1024
3.67999998480082 997
3.69999998435378 956
3.71999998390675 998
3.73999998345971 967
3.75999998301268 993
3.77999998256564 968
3.79999998211861 945
3.81999998167157 946
3.83999998122454 952
3.8599999807775 928
3.87999998033047 954
3.89999997988343 959
3.9199999794364 925
3.93999997898936 955
3.95999997854233 922
3.97999997809529 883
3.99999997764826 977
4.01999997720122 896
4.03999997675419 906
4.05999997630715 890
4.07999997586012 927
4.09999997541308 916
4.11999997496605 967
4.13999997451901 889
4.15999997407198 862
4.17999997362494 820
4.19999997317791 883
4.21999997273087 867
4.23999997228384 842
4.25999997183681 874
4.27999997138977 866
4.29999997094274 855
4.3199999704957 802
4.33999997004867 805
4.35999996960163 809
4.3799999691546 796
4.39999996870756 837
4.41999996826053 728
4.43999996781349 768
4.45999996736646 775
4.47999996691942 794
4.49999996647239 776
4.51999996602535 764
4.53999996557832 724
4.55999996513128 727
4.57999996468425 725
4.59999996423721 743
4.61999996379018 700
4.63999996334314 721
4.65999996289611 686
4.67999996244907 723
4.69999996200204 751
4.719999961555 696
4.73999996110797 704
4.75999996066093 704
4.7799999602139 737
4.79999995976686 741
4.81999995931983 722
4.83999995887279 704
4.85999995842576 718
4.87999995797873 714
4.89999995753169 710
4.91999995708466 684
4.93999995663762 716
4.95999995619059 718
4.97999995574355 719
4.99999995529652 726
5.01999995484948 688
5.03999995440245 766
5.05999995395541 751
5.07999995350838 759
5.09999995306134 729
5.11999995261431 756
5.13999995216727 804
5.15999995172024 785
5.1799999512732 783
5.19999995082617 763
5.21999995037913 781
5.2399999499321 860
5.25999994948506 853
5.27999994903803 894
5.29999994859099 912
5.31999994814396 920
5.33999994769692 942
5.35999994724989 991
5.37999994680285 1021
5.39999994635582 1039
5.41999994590878 1135
5.43999994546175 1188
5.45999994501471 1185
5.47999994456768 1282
5.49999994412065 1373
5.51999994367361 1535
5.53999994322658 1519
5.55999994277954 1630
5.57999994233251 1508
5.59999994188547 1350
5.61999994143844 1226
5.6399999409914 1218
5.65999994054437 1204
5.67999994009733 1237
5.6999999396503 1176
5.71999993920326 1195
5.73999993875623 1302
5.75999993830919 1306
5.77999993786216 1297
5.79999993741512 1370
5.81999993696809 1509
5.83999993652105 1559
5.85999993607402 1534
5.87999993562698 1623
5.89999993517995 1658
5.91999993473291 1659
5.93999993428588 1415
5.95999993383884 1237
5.97999993339181 1104
5.99999993294477 960
6.01999993249774 851
6.0399999320507 752
6.05999993160367 757
6.07999993115663 670
6.0999999307096 667
6.11999993026257 656
6.13999992981553 609
6.1599999293685 610
6.17999992892146 598
6.19999992847443 615
6.21999992802739 648
6.23999992758036 612
6.25999992713332 590
6.27999992668629 597
6.29999992623925 556
6.31999992579222 553
6.33999992534518 602
6.35999992489815 566
6.37999992445111 555
6.39999992400408 558
6.41999992355704 575
6.43999992311001 591
6.45999992266297 524
6.47999992221594 573
6.4999999217689 587
6.51999992132187 560
6.53999992087483 590
6.5599999204278 634
6.57999991998076 580
6.59999991953373 592
6.61999991908669 584
6.63999991863966 601
6.65999991819262 566
6.67999991774559 584
6.69999991729855 588
6.71999991685152 624
6.73999991640449 592
6.75999991595745 623
6.77999991551042 612
6.79999991506338 623
6.81999991461635 641
6.83999991416931 559
6.85999991372228 613
6.87999991327524 616
6.89999991282821 613
6.91999991238117 601
6.93999991193414 594
6.9599999114871 653
6.97999991104007 567
6.99999991059303 535
7.019999910146 559
7.03999990969896 544
7.05999990925193 611
7.07999990880489 536
7.09999990835786 545
7.11999990791082 558
7.13999990746379 519
7.15999990701675 568
7.17999990656972 533
7.19999990612268 517
7.21999990567565 517
7.23999990522861 561
7.25999990478158 522
7.27999990433454 547
7.29999990388751 559
7.31999990344047 511
7.33999990299344 514
7.35999990254641 476
7.37999990209937 531
7.39999990165234 482
7.4199999012053 505
7.43999990075827 493
7.45999990031123 498
7.4799998998642 478
7.49999989941716 513
7.51999989897013 526
7.53999989852309 496
7.55999989807606 502
7.57999989762902 550
7.59999989718199 486
7.61999989673495 535
7.63999989628792 551
7.65999989584088 516
7.67999989539385 507
7.69999989494681 523
7.71999989449978 511
7.73999989405274 486
7.75999989360571 511
7.77999989315867 469
7.79999989271164 485
7.8199998922646 528
7.83999989181757 526
7.85999989137053 542
7.8799998909235 530
7.89999989047646 531
7.91999989002943 481
7.9399998895824 478
7.95999988913536 479
7.97999988868833 530
7.99999988824129 506
8.01999988779426 490
8.03999988734722 500
8.05999988690019 476
8.07999988645315 550
8.09999988600612 567
8.11999988555908 512
8.13999988511205 543
8.15999988466501 480
8.17999988421798 508
8.19999988377094 501
8.21999988332391 525
8.23999988287687 527
8.25999988242984 525
8.2799998819828 533
8.29999988153577 520
8.31999988108873 513
8.3399998806417 549
8.35999988019466 501
8.37999987974763 497
8.39999987930059 533
8.41999987885356 509
8.43999987840652 511
8.45999987795949 504
8.47999987751245 539
8.49999987706542 560
8.51999987661839 557
8.53999987617135 504
8.55999987572432 495
8.57999987527728 488
8.59999987483025 538
8.61999987438321 504
8.63999987393618 477
8.65999987348914 502
8.67999987304211 507
8.69999987259507 503
8.71999987214804 479
8.739999871701 482
8.75999987125397 481
8.77999987080693 506
8.7999998703599 511
8.81999986991286 521
8.83999986946583 524
8.85999986901879 525
8.87999986857176 493
8.89999986812472 549
8.91999986767769 530
8.93999986723065 500
8.95999986678362 513
8.97999986633658 505
8.99999986588955 557
9.01999986544251 518
9.03999986499548 508
9.05999986454844 587
9.07999986410141 584
9.09999986365438 531
9.11999986320734 536
9.13999986276031 552
9.15999986231327 551
9.17999986186624 571
9.1999998614192 540
9.21999986097217 598
9.23999986052513 574
9.2599998600781 601
9.27999985963106 680
9.29999985918403 655
9.31999985873699 674
9.33999985828996 707
9.35999985784292 731
9.37999985739589 779
9.39999985694885 825
9.41999985650182 877
9.43999985605478 933
9.45999985560775 1019
9.47999985516071 958
9.49999985471368 936
9.51999985426664 869
9.53999985381961 718
9.55999985337257 629
9.57999985292554 574
9.5999998524785 547
9.61999985203147 574
9.63999985158443 518
9.6599998511374 532
9.67999985069037 547
9.69999985024333 533
9.7199998497963 526
9.73999984934926 502
9.75999984890223 516
9.77999984845519 551
9.79999984800816 549
9.81999984756112 495
9.83999984711409 502
9.85999984666705 545
9.87999984622002 600
9.89999984577298 552
9.91999984532595 499
9.93999984487891 530
9.95999984443188 556
9.97999984398484 475
9.99999984353781 487
10.0199998430908 543
10.0399998426437 539
10.0599998421967 539
10.0799998417497 502
10.0999998413026 561
10.1199998408556 563
10.1399998404086 514
10.1599998399615 584
10.1799998395145 581
10.1999998390675 584
10.2199998386204 589
10.2399998381734 609
10.2599998377264 607
10.2799998372793 637
10.2999998368323 599
10.3199998363853 598
10.3399998359382 600
10.3599998354912 564
10.3799998350441 603
10.3999998345971 540
10.4199998341501 520
10.439999833703 557
10.459999833256 584
10.479999832809 538
10.4999998323619 529
10.5199998319149 543
10.5399998314679 540
10.5599998310208 513
10.5799998305738 557
10.5999998301268 529
10.6199998296797 498
10.6399998292327 510
10.6599998287857 517
10.6799998283386 543
10.6999998278916 564
10.7199998274446 577
10.7399998269975 567
10.7599998265505 592
10.7799998261034 582
10.7999998256564 592
10.8199998252094 644
10.8399998247623 687
10.8599998243153 685
10.8799998238683 681
10.8999998234212 772
10.9199998229742 705
10.9399998225272 676
10.9599998220801 689
10.9799998216331 703
10.9999998211861 686
11.019999820739 680
11.039999820292 759
11.059999819845 734
11.0799998193979 754
11.0999998189509 779
11.1199998185039 735
11.1399998180568 686
11.1599998176098 599
11.1799998171628 588
11.1999998167157 551
11.2199998162687 563
11.2399998158216 569
11.2599998153746 509
11.2799998149276 580
11.2999998144805 532
11.3199998140335 562
11.3399998135865 534
11.3599998131394 507
11.3799998126924 516
11.3999998122454 516
11.4199998117983 558
11.4399998113513 530
11.4599998109043 573
11.4799998104572 553
11.4999998100102 577
11.5199998095632 563
11.5399998091161 598
11.5599998086691 581
11.5799998082221 593
11.599999807775 568
11.619999807328 615
11.639999806881 577
11.6599998064339 596
11.6799998059869 570
11.6999998055398 569
11.7199998050928 552
11.7399998046458 565
11.7599998041987 539
11.7799998037517 515
11.7999998033047 543
11.8199998028576 509
11.8399998024106 544
11.8599998019636 506
11.8799998015165 551
11.8999998010695 524
11.9199998006225 507
11.9399998001754 572
11.9599997997284 515
11.9799997992814 541
11.9999997988343 519
12.0199997983873 526
12.0399997979403 548
12.0599997974932 526
12.0799997970462 526
12.0999997965992 530
12.1199997961521 483
12.1399997957051 529
12.159999795258 545
12.179999794811 545
12.199999794364 524
12.2199997939169 550
12.2399997934699 548
12.2599997930229 551
12.2799997925758 573
12.2999997921288 563
12.3199997916818 574
12.3399997912347 545
12.3599997907877 564
12.3799997903407 566
12.3999997898936 572
12.4199997894466 554
12.4399997889996 580
12.4599997885525 535
12.4799997881055 543
12.4999997876585 571
12.5199997872114 564
12.5399997867644 514
12.5599997863173 551
12.5799997858703 527
12.5999997854233 568
12.6199997849762 533
12.6399997845292 525
12.6599997840822 528
12.6799997836351 495
12.6999997831881 540
12.7199997827411 517
12.739999782294 543
12.759999781847 505
12.7799997814 535
12.7999997809529 553
12.8199997805059 577
12.8399997800589 578
12.8599997796118 535
12.8799997791648 507
12.8999997787178 537
12.9199997782707 520
12.9399997778237 560
12.9599997773767 544
12.9799997769296 598
12.9999997764826 547
13.0199997760355 570
13.0399997755885 502
13.0599997751415 581
13.0799997746944 568
13.0999997742474 527
13.1199997738004 523
13.1399997733533 557
13.1599997729063 536
13.1799997724593 593
13.1999997720122 544
13.2199997715652 572
13.2399997711182 555
13.2599997706711 559
13.2799997702241 521
13.2999997697771 583
13.31999976933 546
13.339999768883 565
13.359999768436 599
13.3799997679889 542
13.3999997675419 550
13.4199997670949 598
13.4399997666478 546
13.4599997662008 573
13.4799997657537 558
13.4999997653067 593
13.5199997648597 573
13.5399997644126 580
13.5599997639656 585
13.5799997635186 628
13.5999997630715 559
13.6199997626245 644
13.6399997621775 591
13.6599997617304 555
13.6799997612834 608
13.6999997608364 533
13.7199997603893 552
13.7399997599423 573
13.7599997594953 585
13.7799997590482 574
13.7999997586012 578
13.8199997581542 560
13.8399997577071 614
13.8599997572601 603
13.879999756813 584
13.899999756366 614
13.919999755919 569
13.9399997554719 550
13.9599997550249 589
13.9799997545779 602
13.9999997541308 571
14.0199997536838 591
14.0399997532368 561
14.0599997527897 586
14.0799997523427 578
14.0999997518957 563
14.1199997514486 586
14.1399997510016 621
14.1599997505546 587
14.1799997501075 626
14.1999997496605 610
14.2199997492135 638
14.2399997487664 616
14.2599997483194 637
14.2799997478724 659
14.2999997474253 633
14.3199997469783 635
14.3399997465312 662
14.3599997460842 668
14.3799997456372 668
14.3999997451901 674
14.4199997447431 629
14.4399997442961 665
14.459999743849 655
14.479999743402 675
14.499999742955 652
14.5199997425079 685
14.5399997420609 666
14.5599997416139 650
14.5799997411668 642
14.5999997407198 680
14.6199997402728 635
14.6399997398257 626
14.6599997393787 644
14.6799997389317 614
14.6999997384846 609
14.7199997380376 683
14.7399997375906 655
14.7599997371435 629
14.7799997366965 637
14.7999997362494 629
14.8199997358024 657
14.8399997353554 699
14.8599997349083 628
14.8799997344613 701
14.8999997340143 657
14.9199997335672 676
14.9399997331202 644
14.9599997326732 690
14.9799997322261 676
14.9999997317791 718
15.0199997313321 679
15.039999730885 716
15.059999730438 700
15.079999729991 670
15.0999997295439 680
15.1199997290969 675
15.1399997286499 664
15.1599997282028 656
15.1799997277558 713
15.1999997273088 735
15.2199997268617 762
15.2399997264147 700
15.2599997259676 705
15.2799997255206 712
15.2999997250736 698
15.3199997246265 682
15.3399997241795 697
15.3599997237325 716
15.3799997232854 761
15.3999997228384 747
15.4199997223914 733
15.4399997219443 690
15.4599997214973 672
15.4799997210503 722
15.4999997206032 725
15.5199997201562 696
15.5399997197092 680
15.5599997192621 765
15.5799997188151 744
15.5999997183681 737
15.619999717921 738
15.639999717474 705
15.659999717027 737
15.6799997165799 723
15.6999997161329 737
15.7199997156858 679
15.7399997152388 710
15.7599997147918 706
15.7799997143447 719
15.7999997138977 706
15.8199997134507 700
15.8399997130036 783
15.8599997125566 742
15.8799997121096 726
15.8999997116625 758
15.9199997112155 712
15.9399997107685 750
15.9599997103214 724
15.9799997098744 760
15.9999997094274 763
16.0199997089803 798
16.0399997085333 807
16.0599997080863 748
16.0799997076392 794
16.0999997071922 776
16.1199997067451 750
16.1399997062981 805
16.1599997058511 840
16.179999705404 776
16.199999704957 796
16.21999970451 798
16.2399997040629 778
16.2599997036159 761
16.2799997031689 795
16.2999997027218 842
16.3199997022748 778
16.3399997018278 813
16.3599997013807 851
16.3799997009337 848
16.3999997004867 856
16.4199997000396 831
16.4399996995926 810
16.4599996991456 830
16.4799996986985 880
16.4999996982515 811
16.5199996978045 863
16.5399996973574 805
16.5599996969104 837
16.5799996964633 836
16.5999996960163 848
16.6199996955693 848
16.6399996951222 882
16.6599996946752 862
16.6799996942282 872
16.6999996937811 909
16.7199996933341 857
16.7399996928871 827
16.75999969244 848
16.779999691993 856
16.799999691546 885
16.8199996910989 878
16.8399996906519 898
16.8599996902049 929
16.8799996897578 913
16.8999996893108 890
16.9199996888638 897
16.9399996884167 916
16.9599996879697 888
16.9799996875226 961
16.9999996870756 990
17.0199996866286 975
17.0399996861815 947
17.0599996857345 1002
17.0799996852875 933
17.0999996848404 917
17.1199996843934 963
17.1399996839464 956
17.1599996834993 973
17.1799996830523 955
17.1999996826053 957
17.2199996821582 955
17.2399996817112 940
17.2599996812642 948
17.2799996808171 970
17.2999996803701 935
17.3199996799231 971
17.339999679476 971
17.359999679029 949
17.379999678582 985
17.3999996781349 921
17.4199996776879 977
17.4399996772408 968
17.4599996767938 968
17.4799996763468 950
17.4999996758997 973
17.5199996754527 1032
17.5399996750057 994
17.5599996745586 976
17.5799996741116 976
17.5999996736646 995
17.6199996732175 1000
17.6399996727705 1015
17.6599996723235 944
17.6799996718764 988
17.6999996714294 1005
17.7199996709824 998
17.7399996705353 992
17.7599996700883 1002
17.7799996696413 991
17.7999996691942 962
17.8199996687472 1039
17.8399996683002 1005
17.8599996678531 1040
17.8799996674061 998
17.899999666959 1055
17.919999666512 1002
17.939999666065 995
17.9599996656179 1110
17.9799996651709 1079
17.9999996647239 1092
18.0199996642768 1046
18.0399996638298 1041
18.0599996633828 1062
18.0799996629357 1010
18.0999996624887 1033
18.1199996620417 1048
18.1399996615946 1058
18.1599996611476 1081
18.1799996607006 1117
18.1999996602535 1132
18.2199996598065 1097
18.2399996593595 1057
18.2599996589124 1089
18.2799996584654 1108
18.2999996580184 1073
18.3199996575713 1130
18.3399996571243 1080
18.3599996566772 1048
18.3799996562302 1037
18.3999996557832 1106
18.4199996553361 1137
18.4399996548891 1163
18.4599996544421 1028
18.479999653995 1144
18.499999653548 1080
18.519999653101 1156
18.5399996526539 1172
18.5599996522069 1187
18.5799996517599 1163
18.5999996513128 1176
18.6199996508658 1183
18.6399996504188 1129
18.6599996499717 1133
18.6799996495247 1152
18.6999996490777 1184
18.7199996486306 1203
18.7399996481836 1211
18.7599996477366 1218
18.7799996472895 1201
18.7999996468425 1255
18.8199996463954 1184
18.8399996459484 1170
18.8599996455014 1168
18.8799996450543 1216
18.8999996446073 1214
18.9199996441603 1237
18.9399996437132 1226
18.9599996432662 1247
18.9799996428192 1252
18.9999996423721 1253
19.0199996419251 1313
19.0399996414781 1243
19.059999641031 1273
19.079999640584 1324
19.099999640137 1211
19.1199996396899 1282
19.1399996392429 1308
19.1599996387959 1346
19.1799996383488 1414
19.1999996379018 1317
19.2199996374547 1363
19.2399996370077 1355
19.2599996365607 1360
19.2799996361136 1299
19.2999996356666 1350
19.3199996352196 1301
19.3399996347725 1368
19.3599996343255 1338
19.3799996338785 1319
19.3999996334314 1314
19.4199996329844 1339
19.4399996325374 1375
19.4599996320903 1296
19.4799996316433 1342
19.4999996311963 1395
19.5199996307492 1406
19.5399996303022 1389
19.5599996298552 1407
19.5799996294081 1521
19.5999996289611 1488
19.6199996285141 1484
19.639999628067 1471
19.65999962762 1454
19.6799996271729 1426
19.6999996267259 1468
19.7199996262789 1446
19.7399996258318 1443
19.7599996253848 1399
19.7799996249378 1363
19.7999996244907 1346
19.8199996240437 1358
19.8399996235967 1416
19.8599996231496 1352
19.8799996227026 1334
19.8999996222556 1438
19.9199996218085 1421
19.9399996213615 1408
19.9599996209145 1410
19.9799996204674 1333
19.9999996200204 1389
