3 3246
3.01999999955297 3099
3.03999999910593 2869
3.0599999986589 2765
3.07999999821186 2642
3.09999999776483 2583
3.11999999731779 2419
3.13999999687076 2399
3.15999999642372 2330
3.17999999597669 2347
3.19999999552965 2313
3.21999999508262 2267
3.23999999463558 2260
3.25999999418855 2253
3.27999999374151 2278
3.29999999329448 2148
3.31999999284744 2043
3.33999999240041 2101
3.35999999195337 2069
3.37999999150634 1975
3.3999999910593 1946
3.41999999061227 1899
3.43999999016523 1888
3.4599999897182 1858
3.47999998927116 1878
3.49999998882413 1827
3.51999998837709 1783
3.53999998793006 1789
3.55999998748302 1752
3.57999998703599 1682
3.59999998658895 1657
3.61999998614192 1715
3.63999998569489 1643
3.65999998524785 1583
3.67999998480082 1604
3.69999998435378 1555
3.71999998390675 1585
3.73999998345971 1553
3.75999998301268 1480
3.77999998256564 1454
3.79999998211861 1430
3.81999998167157 1434
3.83999998122454 1410
3.8599999807775 1384
3.87999998033047 1338
3.89999997988343 1353
3.9199999794364 1323
3.93999997898936 1324
3.95999997854233 1361
3.97999997809529 1356
3.99999997764826 1307
4.01999997720122 1204
4.03999997675419 1218
4.05999997630715 1249
4.07999997586012 1217
4.09999997541308 1226
4.11999997496605 1226
4.13999997451901 1230
4.15999997407198 1198
4.17999997362494 1239
4.19999997317791 1180
4.21999997273087 1145
4.23999997228384 1132
4.25999997183681 1095
4.27999997138977 1080
4.29999997094274 1137
4.3199999704957 1104
4.33999997004867 1052
4.35999996960163 1106
4.3799999691546 1058
4.39999996870756 1058
4.41999996826053 983
4.43999996781349 1018
4.45999996736646 1033
4.47999996691942 1009
4.49999996647239 1040
4.51999996602535 931
4.53999996557832 978
4.55999996513128 1004
4.57999996468425 1002
4.59999996423721 1002
4.61999996379018 966
4.63999996334314 957
4.65999996289611 948
4.67999996244907 994
4.69999996200204 1021
4.719999961555 959
4.73999996110797 937
4.75999996066093 909
4.7799999602139 920
4.79999995976686 903
4.81999995931983 938
4.83999995887279 898
4.85999995842576 955
4.87999995797873 943
4.89999995753169 888
4.91999995708466 940
4.93999995663762 927
4.95999995619059 931
4.97999995574355 886
4.99999995529652 923
5.01999995484948 968
5.03999995440245 940
5.05999995395541 974
5.07999995350838 946
5.09999995306134 955
5.11999995261431 960
5.13999995216727 998
5.15999995172024 995
5.1799999512732 1002
5.19999995082617 1000
5.21999995037913 1049
5.2399999499321 1145
5.25999994948506 1145
5.27999994903803 1061
5.29999994859099 1066
5.31999994814396 1161
5.33999994769692 1228
5.35999994724989 1273
5.37999994680285 1405
5.39999994635582 1482
5.41999994590878 1649
5.43999994546175 1754
5.45999994501471 1866
5.47999994456768 1752
5.49999994412065 1603
5.51999994367361 1413
5.53999994322658 1335
5.55999994277954 1263
5.57999994233251 1314
5.59999994188547 1280
5.61999994143844 1207
5.6399999409914 1228
5.65999994054437 1232
5.67999994009733 1231
5.6999999396503 1254
5.71999993920326 1335
5.73999993875623 1339
5.75999993830919 1398
5.77999993786216 1241
5.79999993741512 1226
5.81999993696809 1185
5.83999993652105 1076
5.85999993607402 1004
5.87999993562698 885
5.89999993517995 868
5.91999993473291 860
5.93999993428588 823
5.95999993383884 810
5.97999993339181 800
5.99999993294477 759
6.01999993249774 778
6.0399999320507 753
6.05999993160367 751
6.07999993115663 736
6.0999999307096 728
6.11999993026257 679
6.13999992981553 699
6.1599999293685 678
6.17999992892146 712
6.19999992847443 676
6.21999992802739 702
6.23999992758036 673
6.25999992713332 706
6.27999992668629 666
6.29999992623925 664
6.31999992579222 645
6.33999992534518 650
6.35999992489815 684
6.37999992445111 719
6.39999992400408 630
6.41999992355704 712
6.43999992311001 642
6.45999992266297 630
6.47999992221594 638
6.4999999217689 645
6.51999992132187 682
6.53999992087483 702
6.5599999204278 662
6.57999991998076 640
6.59999991953373 639
6.61999991908669 670
6.63999991863966 669
6.65999991819262 719
6.67999991774559 656
6.69999991729855 648
6.71999991685152 622
6.73999991640449 697
6.75999991595745 683
6.77999991551042 693
6.79999991506338 680
6.81999991461635 651
6.83999991416931 644
6.85999991372228 650
6.87999991327524 627
6.89999991282821 611
6.91999991238117 620
6.93999991193414 590
6.9599999114871 622
6.97999991104007 607
6.99999991059303 626
7.019999910146 629
7.03999990969896 593
7.05999990925193 591
7.07999990880489 613
7.09999990835786 604
7.11999990791082 622
7.13999990746379 602
7.15999990701675 639
7.17999990656972 595
7.19999990612268 598
7.21999990567565 601
7.23999990522861 581
7.25999990478158 632
7.27999990433454 601
7.29999990388751 577
7.31999990344047 600
7.33999990299344 613
7.35999990254641 618
7.37999990209937 606
7.39999990165234 594
7.4199999012053 593
7.43999990075827 628
7.45999990031123 588
7.4799998998642 576
7.49999989941716 610
7.51999989897013 606
7.53999989852309 570
7.55999989807606 583
7.57999989762902 600
7.59999989718199 569
7.61999989673495 606
7.63999989628792 573
7.65999989584088 594
7.67999989539385 587
7.69999989494681 559
7.71999989449978 542
7.73999989405274 570
7.75999989360571 578
7.77999989315867 617
7.79999989271164 622
7.8199998922646 607
7.83999989181757 606
7.85999989137053 569
7.8799998909235 579
7.89999989047646 639
7.91999989002943 639
7.9399998895824 629
7.95999988913536 587
7.97999988868833 605
7.99999988824129 620
8.01999988779426 578
8.03999988734722 569
8.05999988690019 619
8.07999988645315 593
8.09999988600612 568
8.11999988555908 600
8.13999988511205 594
8.15999988466501 561
8.17999988421798 614
8.19999988377094 604
8.21999988332391 604
8.23999988287687 546
8.25999988242984 582
8.2799998819828 567
8.29999988153577 582
8.31999988108873 567
8.3399998806417 574
8.35999988019466 558
8.37999987974763 588
8.39999987930059 572
8.41999987885356 558
8.43999987840652 523
8.45999987795949 594
8.47999987751245 595
8.49999987706542 587
8.51999987661839 527
8.53999987617135 603
8.55999987572432 610
8.57999987527728 554
8.59999987483025 588
8.61999987438321 556
8.63999987393618 548
8.65999987348914 574
8.67999987304211 564
8.69999987259507 549
8.71999987214804 606
8.739999871701 559
8.75999987125397 560
8.77999987080693 582
8.7999998703599 613
8.81999986991286 565
8.83999986946583 546
8.85999986901879 525
8.87999986857176 594
8.89999986812472 615
8.91999986767769 553
8.93999986723065 605
8.95999986678362 586
8.97999986633658 606
8.99999986588955 554
9.01999986544251 576
9.03999986499548 609
9.05999986454844 625
9.07999986410141 623
9.09999986365438 619
9.11999986320734 633
9.13999986276031 633
9.15999986231327 606
9.17999986186624 667
9.1999998614192 644
9.21999986097217 700
9.23999986052513 745
9.2599998600781 783
9.27999985963106 809
9.29999985918403 776
9.31999985873699 932
9.33999985828996 977
9.35999985784292 1085
9.37999985739589 1077
9.39999985694885 925
9.41999985650182 823
9.43999985605478 725
9.45999985560775 613
9.47999985516071 595
9.49999985471368 580
9.51999985426664 553
9.53999985381961 582
9.55999985337257 557
9.57999985292554 553
9.5999998524785 558
9.61999985203147 560
9.63999985158443 551
9.6599998511374 548
9.67999985069037 559
9.69999985024333 569
9.7199998497963 537
9.73999984934926 564
9.75999984890223 577
9.77999984845519 555
9.79999984800816 596
9.81999984756112 584
9.83999984711409 539
9.85999984666705 562
9.87999984622002 562
9.89999984577298 571
9.91999984532595 572
9.93999984487891 501
9.95999984443188 558
9.97999984398484 593
9.99999984353781 572
10.0199998430908 583
10.0399998426437 614
10.0599998421967 546
10.0799998417497 549
10.0999998413026 638
10.1199998408556 605
10.1399998404086 547
10.1599998399615 584
10.1799998395145 579
10.1999998390675 590
10.2199998386204 606
10.2399998381734 608
10.2599998377264 570
10.2799998372793 603
10.2999998368323 601
10.3199998363853 607
10.3399998359382 550
10.3599998354912 568
10.3799998350441 580
10.3999998345971 548
10.4199998341501 554
10.439999833703 547
10.459999833256 574
10.479999832809 569
10.4999998323619 571
10.5199998319149 571
10.5399998314679 546
10.5599998310208 610
10.5799998305738 548
10.5999998301268 534
10.6199998296797 587
10.6399998292327 540
10.6599998287857 585
10.6799998283386 643
10.6999998278916 637
10.7199998274446 652
10.7399998269975 665
10.7599998265505 695
10.7799998261034 713
10.7999998256564 704
10.8199998252094 726
10.8399998247623 742
10.8599998243153 700
10.8799998238683 649
10.8999998234212 704
10.9199998229742 688
10.9399998225272 720
10.9599998220801 692
10.9799998216331 687
10.9999998211861 666
11.019999820739 635
11.039999820292 675
11.059999819845 644
11.0799998193979 573
11.0999998189509 565
11.1199998185039 578
11.1399998180568 601
11.1599998176098 564
11.1799998171628 564
11.1999998167157 542
11.2199998162687 544
11.2399998158216 534
11.2599998153746 563
11.2799998149276 526
11.2999998144805 540
11.3199998140335 524
11.3399998135865 503
11.3599998131394 549
11.3799998126924 554
11.3999998122454 559
11.4199998117983 549
11.4399998113513 590
11.4599998109043 597
11.4799998104572 574
11.4999998100102 536
11.5199998095632 521
11.5399998091161 564
11.5599998086691 583
11.5799998082221 587
11.599999807775 554
11.619999807328 592
11.639999806881 530
11.6599998064339 591
11.6799998059869 545
11.6999998055398 603
11.7199998050928 516
11.7399998046458 586
11.7599998041987 519
11.7799998037517 526
11.7999998033047 537
11.8199998028576 561
11.8399998024106 568
11.8599998019636 560
11.8799998015165 549
11.8999998010695 545
11.9199998006225 528
11.9399998001754 550
11.9599997997284 550
11.9799997992814 585
11.9999997988343 552
12.0199997983873 587
12.0399997979403 518
12.0599997974932 563
12.0799997970462 578
12.0999997965992 603
12.1199997961521 550
12.1399997957051 597
12.159999795258 576
12.179999794811 579
12.199999794364 580
12.2199997939169 579
12.2399997934699 574
12.2599997930229 612
12.2799997925758 566
12.2999997921288 561
12.3199997916818 585
12.3399997912347 581
12.3599997907877 575
12.3799997903407 558
12.3999997898936 563
12.4199997894466 547
12.4399997889996 509
12.4599997885525 547
12.4799997881055 547
12.4999997876585 541
12.5199997872114 564
12.5399997867644 564
12.5599997863173 551
12.5799997858703 571
12.5999997854233 522
12.6199997849762 546
12.6399997845292 565
12.6599997840822 577
12.6799997836351 554
12.6999997831881 527
12.7199997827411 532
12.739999782294 527
12.759999781847 535
12.7799997814 533
12.7999997809529 575
12.8199997805059 557
12.8399997800589 560
12.8599997796118 541
12.8799997791648 580
12.8999997787178 584
12.9199997782707 554
12.9399997778237 536
12.9599997773767 577
12.9799997769296 575
12.9999997764826 531
13.0199997760355 534
13.0399997755885 585
13.0599997751415 599
13.0799997746944 544
13.0999997742474 556
13.1199997738004 590
13.1399997733533 573
13.1599997729063 579
13.1799997724593 533
13.1999997720122 607
13.2199997715652 602
13.2399997711182 618
13.2599997706711 625
13.2799997702241 558
13.2999997697771 552
13.31999976933 574
13.339999768883 567
13.359999768436 612
13.3799997679889 599
13.3999997675419 565
13.4199997670949 642
13.4399997666478 619
13.4599997662008 621
13.4799997657537 619
13.4999997653067 577
13.5199997648597 611
13.5399997644126 607
13.5599997639656 607
13.5799997635186 595
13.5999997630715 593
13.6199997626245 573
13.6399997621775 589
13.6599997617304 593
13.6799997612834 610
13.6999997608364 537
13.7199997603893 607
13.7399997599423 582
13.7599997594953 588
13.7799997590482 602
13.7999997586012 580
13.8199997581542 626
13.8399997577071 610
13.8599997572601 605
13.879999756813 611
13.899999756366 611
13.919999755919 591
13.9399997554719 598
13.9599997550249 617
13.9799997545779 608
13.9999997541308 619
14.0199997536838 580
14.0399997532368 617
14.0599997527897 599
14.0799997523427 585
14.0999997518957 613
14.1199997514486 600
14.1399997510016 607
14.1599997505546 634
14.1799997501075 605
14.1999997496605 626
14.2199997492135 635
14.2399997487664 673
14.2599997483194 621
14.2799997478724 620
14.2999997474253 644
14.3199997469783 615
14.3399997465312 623
14.3599997460842 585
14.3799997456372 651
14.3999997451901 657
14.4199997447431 654
14.4399997442961 626
14.459999743849 647
14.479999743402 642
14.499999742955 658
14.5199997425079 607
14.5399997420609 599
14.5599997416139 607
14.5799997411668 639
14.5999997407198 621
14.6199997402728 656
14.6399997398257 672
14.6599997393787 636
14.6799997389317 656
14.6999997384846 665
14.7199997380376 616
14.7399997375906 682
14.7599997371435 619
14.7799997366965 663
14.7999997362494 679
14.8199997358024 708
14.8399997353554 722
14.8599997349083 670
14.8799997344613 737
14.8999997340143 636
14.9199997335672 673
14.9399997331202 694
14.9599997326732 667
14.9799997322261 648
14.9999997317791 662
15.0199997313321 656
15.039999730885 601
15.059999730438 683
15.079999729991 679
15.0999997295439 671
15.1199997290969 677
15.1399997286499 651
15.1599997282028 649
15.1799997277558 640
15.1999997273088 625
15.2199997268617 679
15.2399997264147 682
15.2599997259676 684
15.2799997255206 714
15.2999997250736 672
15.3199997246265 671
15.3399997241795 671
15.3599997237325 644
15.3799997232854 717
15.3999997228384 688
15.4199997223914 732
15.4399997219443 693
15.4599997214973 626
15.4799997210503 684
15.4999997206032 736
15.5199997201562 743
15.5399997197092 663
15.5599997192621 686
15.5799997188151 695
15.5999997183681 694
15.619999717921 700
15.639999717474 703
15.659999717027 725
15.6799997165799 663
15.6999997161329 739
15.7199997156858 777
15.7399997152388 711
15.7599997147918 737
15.7799997143447 740
15.7999997138977 669
15.8199997134507 742
15.8399997130036 757
15.8599997125566 689
15.8799997121096 716
15.8999997116625 750
15.9199997112155 717
15.9399997107685 706
15.9599997103214 684
15.9799997098744 765
15.9999997094274 734
16.0199997089803 696
16.0399997085333 807
16.0599997080863 790
16.0799997076392 765
16.0999997071922 754
16.1199997067451 738
16.1399997062981 753
16.1599997058511 790
16.179999705404 782
16.199999704957 744
16.21999970451 802
16.2399997040629 774
16.2599997036159 808
16.2799997031689 797
16.2999997027218 783
16.3199997022748 743
16.3399997018278 776
16.3599997013807 783
16.3799997009337 781
16.3999997004867 777
16.4199997000396 794
16.4399996995926 804
16.4599996991456 883
16.4799996986985 767
16.4999996982515 831
16.5199996978045 780
16.5399996973574 740
16.5599996969104 822
16.5799996964633 784
16.5999996960163 803
16.6199996955693 834
16.6399996951222 844
16.6599996946752 783
16.6799996942282 834
16.6999996937811 863
16.7199996933341 837
16.7399996928871 873
16.75999969244 891
16.779999691993 916
16.799999691546 880
16.8199996910989 897
16.8399996906519 933
16.8599996902049 943
16.8799996897578 1030
16.8999996893108 1013
16.9199996888638 1094
16.9399996884167 1153
16.9599996879697 1276
16.9799996875226 1392
16.9999996870756 1527
17.0199996866286 1612
17.0399996861815 1602
17.0599996857345 1480
17.0799996852875 1338
17.0999996848404 1156
17.1199996843934 1039
17.1399996839464 953
17.1599996834993 946
17.1799996830523 924
17.1999996826053 888
17.2199996821582 926
17.2399996817112 932
17.2599996812642 898
17.2799996808171 934
17.2999996803701 953
17.3199996799231 888
17.339999679476 918
17.359999679029 909
17.379999678582 907
17.3999996781349 892
17.4199996776879 875
17.4399996772408 885
17.4599996767938 904
17.4799996763468 886
17.4999996758997 942
17.5199996754527 931
17.5399996750057 949
17.5599996745586 907
17.5799996741116 894
17.5999996736646 943
17.6199996732175 969
17.6399996727705 905
17.6599996723235 929
17.6799996718764 960
17.6999996714294 879
17.7199996709824 962
17.7399996705353 880
17.7599996700883 946
17.7799996696413 930
17.7999996691942 998
17.8199996687472 975
17.8399996683002 984
17.8599996678531 961
17.8799996674061 961
17.899999666959 992
17.919999666512 973
17.939999666065 982
17.9599996656179 958
17.9799996651709 968
17.9999996647239 971
18.0199996642768 991
18.0399996638298 996
18.0599996633828 961
18.0799996629357 999
18.0999996624887 1012
18.1199996620417 995
18.1399996615946 973
18.1599996611476 977
18.1799996607006 956
18.1999996602535 1004
18.2199996598065 992
18.2399996593595 988
18.2599996589124 1012
18.2799996584654 991
18.2999996580184 983
18.3199996575713 1004
18.3399996571243 1053
18.3599996566772 942
18.3799996562302 1027
18.3999996557832 1061
18.4199996553361 1044
18.4399996548891 1029
18.4599996544421 1068
18.479999653995 1025
18.499999653548 1075
18.519999653101 1024
18.5399996526539 1057
18.5599996522069 1068
18.5799996517599 1055
18.5999996513128 1084
18.6199996508658 1044
18.6399996504188 1085
18.6599996499717 1141
18.6799996495247 1059
18.6999996490777 1127
18.7199996486306 1100
18.7399996481836 1119
18.7599996477366 1151
18.7799996472895 1096
18.7999996468425 1174
18.8199996463954 1075
18.8399996459484 1091
18.8599996455014 1109
18.8799996450543 1134
18.8999996446073 1092
18.9199996441603 1108
18.9399996437132 1112
18.9599996432662 1110
18.9799996428192 1150
18.9999996423721 1136
19.0199996419251 1192
19.0399996414781 1193
19.059999641031 1120
19.079999640584 1137
19.099999640137 1138
19.1199996396899 1116
19.1399996392429 1188
19.1599996387959 1182
19.1799996383488 1164
19.1999996379018 1167
19.2199996374547 1177
19.2399996370077 1177
19.2599996365607 1211
19.2799996361136 1139
19.2999996356666 1211
19.3199996352196 1127
19.3399996347725 1176
19.3599996343255 1170
19.3799996338785 1204
19.3999996334314 1208
19.4199996329844 1203
19.4399996325374 1258
19.4599996320903 1316
19.4799996316433 1326
19.4999996311963 1310
19.5199996307492 1309
19.5399996303022 1269
19.5599996298552 1307
19.5799996294081 1332
19.5999996289611 1245
19.6199996285141 1321
19.639999628067 1208
19.65999962762 1176
19.6799996271729 1281
19.6999996267259 1177
19.7199996262789 1258
19.7399996258318 1240
19.7599996253848 1253
19.7799996249378 1288
19.7999996244907 1245
19.8199996240437 1279
19.8399996235967 1296
19.8599996231496 1311
19.8799996227026 1258
19.8999996222556 1260
19.9199996218085 1292
19.9399996213615 1219
19.9599996209145 1236
19.9799996204674 1232
19.9999996200204 1292
