3 2636
3.01999999955297 2451
3.03999999910593 2334
3.0599999986589 2165
3.07999999821186 2099
3.09999999776483 1971
3.11999999731779 1963
3.13999999687076 1940
3.15999999642372 1887
3.17999999597669 1827
3.19999999552965 1775
3.21999999508262 1785
3.23999999463558 1834
3.25999999418855 1788
3.27999999374151 1739
3.29999999329448 1823
3.31999999284744 1754
3.33999999240041 1730
3.35999999195337 1677
3.37999999150634 1673
3.3999999910593 1604
3.41999999061227 1636
3.43999999016523 1600
3.4599999897182 1642
3.47999998927116 1654
3.49999998882413 1637
3.51999998837709 1556
3.53999998793006 1541
3.55999998748302 1629
3.57999998703599 1580
3.59999998658895 1603
3.61999998614192 1539
3.63999998569489 1539
3.65999998524785 1503
3.67999998480082 1530
3.69999998435378 1484
3.71999998390675 1404
3.73999998345971 1450
3.75999998301268 1526
3.77999998256564 1566
3.79999998211861 1492
3.81999998167157 1483
3.83999998122454 1406
3.8599999807775 1516
3.87999998033047 1452
3.89999997988343 1523
3.9199999794364 1465
3.93999997898936 1423
3.95999997854233 1440
3.97999997809529 1385
3.99999997764826 1369
4.01999997720122 1412
4.03999997675419 1473
4.05999997630715 1416
4.07999997586012 1443
4.09999997541308 1414
4.11999997496605 1456
4.13999997451901 1386
4.15999997407198 1393
4.17999997362494 1370
4.19999997317791 1363
4.21999997273087 1373
4.23999997228384 1389
4.25999997183681 1401
4.27999997138977 1377
4.29999997094274 1319
4.3199999704957 1405
4.33999997004867 1356
4.35999996960163 1374
4.3799999691546 1392
4.39999996870756 1365
4.41999996826053 1380
4.43999996781349 1421
4.45999996736646 1379
4.47999996691942 1412
4.49999996647239 1355
4.51999996602535 1373
4.53999996557832 1404
4.55999996513128 1406
4.57999996468425 1394
4.59999996423721 1428
4.61999996379018 1390
4.63999996334314 1424
4.65999996289611 1394
4.67999996244907 1395
4.69999996200204 1422
4.719999961555 1423
4.73999996110797 1477
4.75999996066093 1489
4.7799999602139 1452
4.79999995976686 1409
4.81999995931983 1423
4.83999995887279 1488
4.85999995842576 1472
4.87999995797873 1489
4.89999995753169 1493
4.91999995708466 1511
4.93999995663762 1517
4.95999995619059 1577
4.97999995574355 1478
4.99999995529652 1458
5.01999995484948 1624
5.03999995440245 1614
5.05999995395541 1602
5.07999995350838 1614
5.09999995306134 1690
5.11999995261431 1716
5.13999995216727 1747
5.15999995172024 1787
5.1799999512732 1812
5.19999995082617 1836
5.21999995037913 1834
5.2399999499321 2038
5.25999994948506 2105
5.27999994903803 2109
5.29999994859099 2237
5.31999994814396 2376
5.33999994769692 2530
5.35999994724989 2569
5.37999994680285 2777
5.39999994635582 3073
5.41999994590878 3420
5.43999994546175 3652
5.45999994501471 3922
5.47999994456768 3701
5.49999994412065 3244
5.51999994367361 2952
5.53999994322658 2608
5.55999994277954 2494
5.57999994233251 2435
5.59999994188547 2353
5.61999994143844 2284
5.6399999409914 2309
5.65999994054437 2400
5.67999994009733 2326
5.6999999396503 2382
5.71999993920326 2370
5.73999993875623 2404
5.75999993830919 2327
5.77999993786216 2286
5.79999993741512 2128
5.81999993696809 2070
5.83999993652105 1866
5.85999993607402 1720
5.87999993562698 1633
5.89999993517995 1452
5.91999993473291 1418
5.93999993428588 1397
5.95999993383884 1265
5.97999993339181 1175
5.99999993294477 1183
6.01999993249774 1111
6.0399999320507 1072
6.05999993160367 1052
6.07999993115663 1085
6.0999999307096 1040
6.11999993026257 1046
6.13999992981553 1009
6.1599999293685 1049
6.17999992892146 1099
6.19999992847443 996
6.21999992802739 974
6.23999992758036 985
6.25999992713332 973
6.27999992668629 971
6.29999992623925 994
6.31999992579222 969
6.33999992534518 954
6.35999992489815 896
6.37999992445111 907
6.39999992400408 931
6.41999992355704 944
6.43999992311001 973
6.45999992266297 922
6.47999992221594 899
6.4999999217689 934
6.51999992132187 953
6.53999992087483 930
6.5599999204278 945
6.57999991998076 880
6.59999991953373 905
6.61999991908669 925
6.63999991863966 925
6.65999991819262 950
6.67999991774559 995
6.69999991729855 963
6.71999991685152 873
6.73999991640449 951
6.75999991595745 943
6.77999991551042 979
6.79999991506338 933
6.81999991461635 972
6.83999991416931 922
6.85999991372228 922
6.87999991327524 928
6.89999991282821 840
6.91999991238117 908
6.93999991193414 870
6.9599999114871 873
6.97999991104007 792
6.99999991059303 842
7.019999910146 865
7.03999990969896 782
7.05999990925193 830
7.07999990880489 816
7.09999990835786 850
7.11999990791082 860
7.13999990746379 814
7.15999990701675 801
7.17999990656972 817
7.19999990612268 794
7.21999990567565 829
7.23999990522861 813
7.25999990478158 770
7.27999990433454 823
7.29999990388751 852
7.31999990344047 820
7.33999990299344 836
7.35999990254641 803
7.37999990209937 816
7.39999990165234 739
7.4199999012053 830
7.43999990075827 815
7.45999990031123 804
7.4799998998642 788
7.49999989941716 750
7.51999989897013 779
7.53999989852309 765
7.55999989807606 830
7.57999989762902 811
7.59999989718199 835
7.61999989673495 813
7.63999989628792 784
7.65999989584088 784
7.67999989539385 790
7.69999989494681 794
7.71999989449978 817
7.73999989405274 839
7.75999989360571 826
7.77999989315867 854
7.79999989271164 792
7.8199998922646 797
7.83999989181757 787
7.85999989137053 794
7.8799998909235 793
7.89999989047646 818
7.91999989002943 784
7.9399998895824 785
7.95999988913536 784
7.97999988868833 792
7.99999988824129 754
8.01999988779426 764
8.03999988734722 863
8.05999988690019 822
8.07999988645315 805
8.09999988600612 780
8.11999988555908 800
8.13999988511205 738
8.15999988466501 809
8.17999988421798 838
8.19999988377094 785
8.21999988332391 852
8.23999988287687 826
8.25999988242984 801
8.2799998819828 835
8.29999988153577 832
8.31999988108873 785
8.3399998806417 851
8.35999988019466 766
8.37999987974763 814
8.39999987930059 764
8.41999987885356 778
8.43999987840652 835
8.45999987795949 786
8.47999987751245 812
8.49999987706542 763
8.51999987661839 759
8.53999987617135 795
8.55999987572432 759
8.57999987527728 826
8.59999987483025 760
8.61999987438321 791
8.63999987393618 788
8.65999987348914 779
8.67999987304211 799
8.69999987259507 805
8.71999987214804 760
8.739999871701 790
8.75999987125397 789
8.77999987080693 781
8.7999998703599 810
8.81999986991286 811
8.83999986946583 829
8.85999986901879 878
8.87999986857176 835
8.89999986812472 845
8.91999986767769 874
8.93999986723065 861
8.95999986678362 878
8.97999986633658 882
8.99999986588955 877
9.01999986544251 878
9.03999986499548 852
9.05999986454844 877
9.07999986410141 970
9.09999986365438 919
9.11999986320734 933
9.13999986276031 987
9.15999986231327 981
9.17999986186624 1007
9.1999998614192 1035
9.21999986097217 1060
9.23999986052513 1111
9.2599998600781 1177
9.27999985963106 1312
9.29999985918403 1454
9.31999985873699 1602
9.33999985828996 1854
9.35999985784292 1940
9.37999985739589 1849
9.39999985694885 1649
9.41999985650182 1346
9.43999985605478 1065
9.45999985560775 1027
9.47999985516071 920
9.49999985471368 895
9.51999985426664 925
9.53999985381961 868
9.55999985337257 870
9.57999985292554 891
9.5999998524785 890
9.61999985203147 796
9.63999985158443 777
9.6599998511374 823
9.67999985069037 750
9.69999985024333 834
9.7199998497963 802
9.73999984934926 836
9.75999984890223 824
9.77999984845519 840
9.79999984800816 845
9.81999984756112 857
9.83999984711409 834
9.85999984666705 899
9.87999984622002 854
9.89999984577298 852
9.91999984532595 819
9.93999984487891 888
9.95999984443188 913
9.97999984398484 926
9.99999984353781 848
10.0199998430908 810
10.0399998426437 919
10.0599998421967 849
10.0799998417497 899
10.0999998413026 940
10.1199998408556 819
10.1399998404086 876
10.1599998399615 937
10.1799998395145 888
10.1999998390675 899
10.2199998386204 922
10.2399998381734 897
10.2599998377264 829
10.2799998372793 859
10.2999998368323 879
10.3199998363853 843
10.3399998359382 840
10.3599998354912 797
10.3799998350441 861
10.3999998345971 851
10.4199998341501 839
10.439999833703 841
10.459999833256 760
10.479999832809 847
10.4999998323619 843
10.5199998319149 836
10.5399998314679 876
10.5599998310208 883
10.5799998305738 881
10.5999998301268 893
10.6199998296797 966
10.6399998292327 928
10.6599998287857 967
10.6799998283386 986
10.6999998278916 993
10.7199998274446 1121
10.7399998269975 1052
10.7599998265505 1146
10.7799998261034 1255
10.7999998256564 1314
10.8199998252094 1328
10.8399998247623 1235
10.8599998243153 1188
10.8799998238683 1173
10.8999998234212 1160
10.9199998229742 1158
10.9399998225272 1166
10.9599998220801 1149
10.9799998216331 1176
10.9999998211861 1110
11.019999820739 1101
11.039999820292 1005
11.059999819845 1009
11.0799998193979 924
11.0999998189509 882
11.1199998185039 865
11.1399998180568 849
11.1599998176098 862
11.1799998171628 811
11.1999998167157 841
11.2199998162687 826
11.2399998158216 820
11.2599998153746 808
11.2799998149276 810
11.2999998144805 859
11.3199998140335 805
11.3399998135865 822
11.3599998131394 851
11.3799998126924 873
11.3999998122454 843
11.4199998117983 846
11.4399998113513 845
11.4599998109043 883
11.4799998104572 920
11.4999998100102 843
11.5199998095632 919
11.5399998091161 793
11.5599998086691 874
11.5799998082221 856
11.599999807775 901
11.619999807328 786
11.639999806881 872
11.6599998064339 836
11.6799998059869 833
11.6999998055398 871
11.7199998050928 850
11.7399998046458 810
11.7599998041987 815
11.7799998037517 847
11.7999998033047 832
11.8199998028576 857
11.8399998024106 790
11.8599998019636 838
11.8799998015165 843
11.8999998010695 843
11.9199998006225 867
11.9399998001754 790
11.9599997997284 800
11.9799997992814 846
11.9999997988343 809
12.0199997983873 858
12.0399997979403 831
12.0599997974932 858
12.0799997970462 882
12.0999997965992 820
12.1199997961521 855
12.1399997957051 847
12.159999795258 917
12.179999794811 889
12.199999794364 917
12.2199997939169 882
12.2399997934699 875
12.2599997930229 963
12.2799997925758 950
12.2999997921288 920
12.3199997916818 920
12.3399997912347 902
12.3599997907877 874
12.3799997903407 873
12.3999997898936 856
12.4199997894466 833
12.4399997889996 928
12.4599997885525 868
12.4799997881055 882
12.4999997876585 831
12.5199997872114 877
12.5399997867644 867
12.5599997863173 895
12.5799997858703 866
12.5999997854233 884
12.6199997849762 898
12.6399997845292 871
12.6599997840822 856
12.6799997836351 877
12.6999997831881 852
12.7199997827411 893
12.739999782294 891
12.759999781847 870
12.7799997814 870
12.7999997809529 892
12.8199997805059 896
12.8399997800589 867
12.8599997796118 890
12.8799997791648 937
12.8999997787178 920
12.9199997782707 898
12.9399997778237 856
12.9599997773767 833
12.9799997769296 860
12.9999997764826 915
13.0199997760355 913
13.0399997755885 903
13.0599997751415 877
13.0799997746944 862
13.0999997742474 899
13.1199997738004 923
13.1399997733533 849
13.1599997729063 855
13.1799997724593 957
13.1999997720122 960
13.2199997715652 879
13.2399997711182 910
13.2599997706711 917
13.2799997702241 910
13.2999997697771 933
13.31999976933 924
13.339999768883 940
13.359999768436 947
13.3799997679889 902
13.3999997675419 952
13.4199997670949 932
13.4399997666478 882
13.4599997662008 908
13.4799997657537 933
13.4999997653067 917
13.5199997648597 893
13.5399997644126 913
13.5599997639656 906
13.5799997635186 943
13.5999997630715 937
13.6199997626245 931
13.6399997621775 922
13.6599997617304 933
13.6799997612834 924
13.6999997608364 872
13.7199997603893 941
13.7399997599423 940
13.7599997594953 877
13.7799997590482 862
13.7999997586012 902
13.8199997581542 924
13.8399997577071 905
13.8599997572601 984
13.879999756813 939
13.899999756366 934
13.919999755919 894
13.9399997554719 890
13.9599997550249 945
13.9799997545779 934
13.9999997541308 885
14.0199997536838 960
14.0399997532368 924
14.0599997527897 925
14.0799997523427 912
14.0999997518957 877
14.1199997514486 949
14.1399997510016 940
14.1599997505546 955
14.1799997501075 933
14.1999997496605 947
14.2199997492135 990
14.2399997487664 997
14.2599997483194 975
14.2799997478724 981
14.2999997474253 1007
14.3199997469783 949
14.3399997465312 952
14.3599997460842 1027
14.3799997456372 973
14.3999997451901 974
14.4199997447431 936
14.4399997442961 980
14.459999743849 928
14.479999743402 942
14.499999742955 962
14.5199997425079 1018
14.5399997420609 922
14.5599997416139 979
14.5799997411668 987
14.5999997407198 973
14.6199997402728 974
14.6399997398257 983
14.6599997393787 923
14.6799997389317 975
14.6999997384846 1019
14.7199997380376 1027
14.7399997375906 990
14.7599997371435 972
14.7799997366965 951
14.7999997362494 1036
14.8199997358024 1006
14.8399997353554 989
14.8599997349083 1059
14.8799997344613 1015
14.8999997340143 1006
14.9199997335672 1003
14.9399997331202 974
14.9599997326732 1016
14.9799997322261 1022
14.9999997317791 997
15.0199997313321 994
15.039999730885 985
15.059999730438 1053
15.079999729991 968
15.0999997295439 986
15.1199997290969 996
15.1399997286499 987
15.1599997282028 995
15.1799997277558 987
15.1999997273088 1003
15.2199997268617 968
15.2399997264147 1008
15.2599997259676 1013
15.2799997255206 1016
15.2999997250736 962
15.3199997246265 1014
15.3399997241795 1037
15.3599997237325 955
15.3799997232854 1013
15.3999997228384 1056
15.4199997223914 985
15.4399997219443 1009
15.4599997214973 1024
15.4799997210503 1051
15.4999997206032 1040
15.5199997201562 986
15.5399997197092 1050
15.5599997192621 997
15.5799997188151 1065
15.5999997183681 1056
15.619999717921 1088
15.639999717474 1044
15.659999717027 1016
15.6799997165799 1015
15.6999997161329 1069
15.7199997156858 1028
15.7399997152388 1001
15.7599997147918 1002
15.7799997143447 1047
15.7999997138977 1062
15.8199997134507 1113
15.8399997130036 1047
15.8599997125566 1105
15.8799997121096 1030
15.8999997116625 1023
15.9199997112155 1139
15.9399997107685 1083
15.9599997103214 1100
15.9799997098744 1109
15.9999997094274 1122
16.0199997089803 1081
16.0399997085333 1110
16.0599997080863 1113
16.0799997076392 1078
16.0999997071922 1100
16.1199997067451 1119
16.1399997062981 1147
16.1599997058511 1106
16.179999705404 1134
16.199999704957 1049
16.21999970451 1124
16.2399997040629 1175
16.2599997036159 1097
16.2799997031689 1130
16.2999997027218 1160
16.3199997022748 1099
16.3399997018278 1081
16.3599997013807 1175
16.3799997009337 1163
16.3999997004867 1161
16.4199997000396 1185
16.4399996995926 1189
16.4599996991456 1147
16.4799996986985 1211
16.4999996982515 1137
16.5199996978045 1199
16.5399996973574 1190
16.5599996969104 1245
16.5799996964633 1199
16.5999996960163 1210
16.6199996955693 1204
16.6399996951222 1206
16.6599996946752 1194
16.6799996942282 1230
16.6999996937811 1350
16.7199996933341 1223
16.7399996928871 1276
16.75999969244 1325
16.779999691993 1322
16.799999691546 1362
16.8199996910989 1423
16.8399996906519 1440
16.8599996902049 1460
16.8799996897578 1607
16.8999996893108 1764
16.9199996888638 1941
16.9399996884167 2207
16.9599996879697 2409
16.9799996875226 2759
16.9999996870756 2952
17.0199996866286 2809
17.0399996861815 2563
17.0599996857345 2147
17.0799996852875 1839
17.0999996848404 1559
17.1199996843934 1420
17.1399996839464 1308
17.1599996834993 1327
17.1799996830523 1273
17.1999996826053 1292
17.2199996821582 1288
17.2399996817112 1291
17.2599996812642 1277
17.2799996808171 1286
17.2999996803701 1270
17.3199996799231 1256
17.339999679476 1300
17.359999679029 1373
17.379999678582 1329
17.3999996781349 1323
17.4199996776879 1340
17.4399996772408 1275
17.4599996767938 1313
17.4799996763468 1272
17.4999996758997 1330
17.5199996754527 1318
17.5399996750057 1327
17.5599996745586 1316
17.5799996741116 1339
17.5999996736646 1343
17.6199996732175 1316
17.6399996727705 1325
17.6599996723235 1318
17.6799996718764 1407
17.6999996714294 1316
17.7199996709824 1337
17.7399996705353 1381
17.7599996700883 1321
17.7799996696413 1358
17.7999996691942 1377
17.8199996687472 1282
17.8399996683002 1346
17.8599996678531 1342
17.8799996674061 1335
17.899999666959 1359
17.919999666512 1443
17.939999666065 1408
17.9599996656179 1355
17.9799996651709 1315
17.9999996647239 1442
18.0199996642768 1388
18.0399996638298 1307
18.0599996633828 1359
18.0799996629357 1388
18.0999996624887 1353
18.1199996620417 1374
18.1399996615946 1398
18.1599996611476 1438
18.1799996607006 1377
18.1999996602535 1470
18.2199996598065 1444
18.2399996593595 1382
18.2599996589124 1333
18.2799996584654 1380
18.2999996580184 1450
18.3199996575713 1506
18.3399996571243 1408
18.3599996566772 1450
18.3799996562302 1415
18.3999996557832 1429
18.4199996553361 1460
18.4399996548891 1525
18.4599996544421 1466
18.479999653995 1457
18.499999653548 1420
18.519999653101 1517
18.5399996526539 1479
18.5599996522069 1480
18.5799996517599 1497
18.5999996513128 1500
18.6199996508658 1446
18.6399996504188 1439
18.6599996499717 1512
18.6799996495247 1532
18.6999996490777 1508
18.7199996486306 1555
18.7399996481836 1535
18.7599996477366 1595
18.7799996472895 1538
18.7999996468425 1501
18.8199996463954 1550
18.8399996459484 1504
18.8599996455014 1551
18.8799996450543 1491
18.8999996446073 1556
18.9199996441603 1582
18.9399996437132 1577
18.9599996432662 1528
18.9799996428192 1563
18.9999996423721 1589
19.0199996419251 1574
19.0399996414781 1557
19.059999641031 1575
19.079999640584 1570
19.099999640137 1669
19.1199996396899 1575
19.1399996392429 1676
19.1599996387959 1597
19.1799996383488 1614
19.1999996379018 1601
19.2199996374547 1649
19.2399996370077 1640
19.2599996365607 1657
19.2799996361136 1592
19.2999996356666 1580
19.3199996352196 1608
19.3399996347725 1596
19.3599996343255 1701
19.3799996338785 1646
19.3999996334314 1672
19.4199996329844 1715
19.4399996325374 1703
19.4599996320903 1707
19.4799996316433 1890
19.4999996311963 1846
19.5199996307492 1791
19.5399996303022 1826
19.5599996298552 1759
19.5799996294081 1775
19.5999996289611 1770
19.6199996285141 1813
19.639999628067 1731
19.65999962762 1751
19.6799996271729 1718
19.6999996267259 1645
19.7199996262789 1635
19.7399996258318 1672
19.7599996253848 1750
19.7799996249378 1714
19.7999996244907 1695
19.8199996240437 1672
19.8399996235967 1733
19.8599996231496 1658
19.8799996227026 1713
19.8999996222556 1622
19.9199996218085 1715
19.9399996213615 1734
19.9599996209145 1708
19.9799996204674 1698
19.9999996200204 1694
