3 2278
3.01999999955297 2120
3.03999999910593 2012
3.0599999986589 1865
3.07999999821186 1834
3.09999999776483 1662
3.11999999731779 1574
3.13999999687076 1598
3.15999999642372 1563
3.17999999597669 1445
3.19999999552965 1493
3.21999999508262 1497
3.23999999463558 1403
3.25999999418855 1445
3.27999999374151 1361
3.29999999329448 1365
3.31999999284744 1308
3.33999999240041 1329
3.35999999195337 1366
3.37999999150634 1332
3.3999999910593 1280
3.41999999061227 1216
3.43999999016523 1192
3.4599999897182 1297
3.47999998927116 1282
3.49999998882413 1241
3.51999998837709 1176
3.53999998793006 1194
3.55999998748302 1178
3.57999998703599 1157
3.59999998658895 1162
3.61999998614192 1119
3.63999998569489 1127
3.65999998524785 1119
3.67999998480082 1118
3.69999998435378 1120
3.71999998390675 1064
3.73999998345971 1039
3.75999998301268 1054
3.77999998256564 1086
3.79999998211861 1052
3.81999998167157 1081
3.83999998122454 1063
3.8599999807775 1034
3.87999998033047 1027
3.89999997988343 940
3.9199999794364 1012
3.93999997898936 999
3.95999997854233 1009
3.97999997809529 983
3.99999997764826 1014
4.01999997720122 994
4.03999997675419 936
4.05999997630715 990
4.07999997586012 962
4.09999997541308 985
4.11999997496605 938
4.13999997451901 968
4.15999997407198 1001
4.17999997362494 938
4.19999997317791 935
4.21999997273087 955
4.23999997228384 872
4.25999997183681 871
4.27999997138977 853
4.29999997094274 908
4.3199999704957 851
4.33999997004867 831
4.35999996960163 801
4.3799999691546 833
4.39999996870756 818
4.41999996826053 837
4.43999996781349 801
4.45999996736646 866
4.47999996691942 821
4.49999996647239 842
4.51999996602535 781
4.53999996557832 832
4.55999996513128 784
4.57999996468425 801
4.59999996423721 794
4.61999996379018 821
4.63999996334314 822
4.65999996289611 783
4.67999996244907 742
4.69999996200204 745
4.719999961555 706
4.73999996110797 777
4.75999996066093 758
4.7799999602139 794
4.79999995976686 736
4.81999995931983 801
4.83999995887279 744
4.85999995842576 729
4.87999995797873 738
4.89999995753169 699
4.91999995708466 713
4.93999995663762 776
4.95999995619059 681
4.97999995574355 778
4.99999995529652 718
5.01999995484948 799
5.03999995440245 731
5.05999995395541 769
5.07999995350838 765
5.09999995306134 774
5.11999995261431 761
5.13999995216727 773
5.15999995172024 778
5.1799999512732 784
5.19999995082617 771
5.21999995037913 744
5.2399999499321 740
5.25999994948506 803
5.27999994903803 844
5.29999994859099 869
5.31999994814396 849
5.33999994769692 776
5.35999994724989 829
5.37999994680285 824
5.39999994635582 836
5.41999994590878 894
5.43999994546175 881
5.45999994501471 917
5.47999994456768 929
5.49999994412065 960
5.51999994367361 910
5.53999994322658 927
5.55999994277954 973
5.57999994233251 955
5.59999994188547 997
5.61999994143844 1074
5.6399999409914 1070
5.65999994054437 1192
5.67999994009733 1262
5.6999999396503 1251
5.71999993920326 1445
5.73999993875623 1583
5.75999993830919 1787
5.77999993786216 2010
5.79999993741512 2172
5.81999993696809 2310
5.83999993652105 2233
5.85999993607402 1787
5.87999993562698 1318
5.89999993517995 993
5.91999993473291 815
5.93999993428588 838
5.95999993383884 745
5.97999993339181 710
5.99999993294477 732
6.01999993249774 714
6.0399999320507 696
6.05999993160367 645
6.07999993115663 691
6.0999999307096 700
6.11999993026257 733
6.13999992981553 660
6.1599999293685 669
6.17999992892146 677
6.19999992847443 651
6.21999992802739 682
6.23999992758036 646
6.25999992713332 674
6.27999992668629 693
6.29999992623925 726
6.31999992579222 681
6.33999992534518 716
6.35999992489815 709
6.37999992445111 702
6.39999992400408 779
6.41999992355704 706
6.43999992311001 730
6.45999992266297 783
6.47999992221594 787
6.4999999217689 828
6.51999992132187 844
6.53999992087483 849
6.5599999204278 855
6.57999991998076 893
6.59999991953373 871
6.61999991908669 929
6.63999991863966 948
6.65999991819262 989
6.67999991774559 1059
6.69999991729855 976
6.71999991685152 1003
6.73999991640449 1019
6.75999991595745 985
6.77999991551042 968
6.79999991506338 924
6.81999991461635 778
6.83999991416931 756
6.85999991372228 713
6.87999991327524 687
6.89999991282821 626
6.91999991238117 645
6.93999991193414 659
6.9599999114871 659
6.97999991104007 612
6.99999991059303 584
7.019999910146 581
7.03999990969896 632
7.05999990925193 581
7.07999990880489 666
7.09999990835786 609
7.11999990791082 619
7.13999990746379 566
7.15999990701675 588
7.17999990656972 588
7.19999990612268 606
7.21999990567565 642
7.23999990522861 640
7.25999990478158 578
7.27999990433454 576
7.29999990388751 627
7.31999990344047 581
7.33999990299344 595
7.35999990254641 563
7.37999990209937 581
7.39999990165234 550
7.4199999012053 565
7.43999990075827 559
7.45999990031123 575
7.4799998998642 576
7.49999989941716 576
7.51999989897013 556
7.53999989852309 610
7.55999989807606 633
7.57999989762902 567
7.59999989718199 576
7.61999989673495 580
7.63999989628792 580
7.65999989584088 589
7.67999989539385 565
7.69999989494681 607
7.71999989449978 572
7.73999989405274 583
7.75999989360571 548
7.77999989315867 605
7.79999989271164 516
7.8199998922646 567
7.83999989181757 573
7.85999989137053 583
7.8799998909235 567
7.89999989047646 574
7.91999989002943 575
7.9399998895824 589
7.95999988913536 548
7.97999988868833 585
7.99999988824129 550
8.01999988779426 560
8.03999988734722 596
8.05999988690019 585
8.07999988645315 551
8.09999988600612 587
8.11999988555908 582
8.13999988511205 584
8.15999988466501 597
8.17999988421798 552
8.19999988377094 605
8.21999988332391 578
8.23999988287687 549
8.25999988242984 575
8.2799998819828 590
8.29999988153577 542
8.31999988108873 589
8.3399998806417 572
8.35999988019466 615
8.37999987974763 589
8.39999987930059 544
8.41999987885356 605
8.43999987840652 560
8.45999987795949 543
8.47999987751245 606
8.49999987706542 547
8.51999987661839 543
8.53999987617135 582
8.55999987572432 542
8.57999987527728 593
8.59999987483025 538
8.61999987438321 596
8.63999987393618 591
8.65999987348914 598
8.67999987304211 585
8.69999987259507 579
8.71999987214804 595
8.739999871701 593
8.75999987125397 552
8.77999987080693 570
8.7999998703599 506
8.81999986991286 594
8.83999986946583 583
8.85999986901879 565
8.87999986857176 574
8.89999986812472 527
8.91999986767769 602
8.93999986723065 550
8.95999986678362 585
8.97999986633658 596
8.99999986588955 514
9.01999986544251 575
9.03999986499548 567
9.05999986454844 598
9.07999986410141 590
9.09999986365438 626
9.11999986320734 604
9.13999986276031 582
9.15999986231327 619
9.17999986186624 604
9.1999998614192 618
9.21999986097217 675
9.23999986052513 651
9.2599998600781 752
9.27999985963106 743
9.29999985918403 778
9.31999985873699 853
9.33999985828996 900
9.35999985784292 979
9.37999985739589 1033
9.39999985694885 1062
9.41999985650182 1077
9.43999985605478 953
9.45999985560775 884
9.47999985516071 803
9.49999985471368 673
9.51999985426664 655
9.53999985381961 599
9.55999985337257 632
9.57999985292554 662
9.5999998524785 559
9.61999985203147 572
9.63999985158443 536
9.6599998511374 575
9.67999985069037 559
9.69999985024333 562
9.7199998497963 506
9.73999984934926 550
9.75999984890223 568
9.77999984845519 623
9.79999984800816 504
9.81999984756112 545
9.83999984711409 559
9.85999984666705 578
9.87999984622002 564
9.89999984577298 573
9.91999984532595 553
9.93999984487891 599
9.95999984443188 578
9.97999984398484 580
9.99999984353781 546
10.0199998430908 543
10.0399998426437 580
10.0599998421967 512
10.0799998417497 545
10.0999998413026 554
10.1199998408556 559
10.1399998404086 554
10.1599998399615 597
10.1799998395145 591
10.1999998390675 630
10.2199998386204 609
10.2399998381734 582
10.2599998377264 580
10.2799998372793 594
10.2999998368323 539
10.3199998363853 535
10.3399998359382 550
10.3599998354912 540
10.3799998350441 490
10.3999998345971 543
10.4199998341501 554
10.439999833703 560
10.459999833256 523
10.479999832809 499
10.4999998323619 538
10.5199998319149 597
10.5399998314679 571
10.5599998310208 518
10.5799998305738 611
10.5999998301268 563
10.6199998296797 568
10.6399998292327 614
10.6599998287857 556
10.6799998283386 559
10.6999998278916 634
10.7199998274446 593
10.7399998269975 596
10.7599998265505 628
10.7799998261034 620
10.7999998256564 613
10.8199998252094 635
10.8399998247623 707
10.8599998243153 703
10.8799998238683 720
10.8999998234212 697
10.9199998229742 787
10.9399998225272 763
10.9599998220801 743
10.9799998216331 835
10.9999998211861 816
11.019999820739 837
11.039999820292 777
11.059999819845 830
11.0799998193979 811
11.0999998189509 783
11.1199998185039 750
11.1399998180568 735
11.1599998176098 721
11.1799998171628 712
11.1999998167157 671
11.2199998162687 614
11.2399998158216 601
11.2599998153746 588
11.2799998149276 663
11.2999998144805 651
11.3199998140335 629
11.3399998135865 613
11.3599998131394 596
11.3799998126924 650
11.3999998122454 614
11.4199998117983 661
11.4399998113513 660
11.4599998109043 621
11.4799998104572 727
11.4999998100102 685
11.5199998095632 708
11.5399998091161 762
11.5599998086691 747
11.5799998082221 696
11.599999807775 639
11.619999807328 670
11.639999806881 606
11.6599998064339 669
11.6799998059869 592
11.6999998055398 592
11.7199998050928 594
11.7399998046458 509
11.7599998041987 578
11.7799998037517 603
11.7999998033047 544
11.8199998028576 581
11.8399998024106 561
11.8599998019636 561
11.8799998015165 559
11.8999998010695 547
11.9199998006225 575
11.9399998001754 549
11.9599997997284 539
11.9799997992814 536
11.9999997988343 525
12.0199997983873 540
12.0399997979403 549
12.0599997974932 543
12.0799997970462 591
12.0999997965992 575
12.1199997961521 511
12.1399997957051 525
12.159999795258 581
12.179999794811 539
12.199999794364 531
12.2199997939169 542
12.2399997934699 567
12.2599997930229 587
12.2799997925758 554
12.2999997921288 614
12.3199997916818 580
12.3399997912347 563
12.3599997907877 569
12.3799997903407 612
12.3999997898936 526
12.4199997894466 548
12.4399997889996 547
12.4599997885525 559
12.4799997881055 563
12.4999997876585 547
12.5199997872114 577
12.5399997867644 597
12.5599997863173 546
12.5799997858703 522
12.5999997854233 550
12.6199997849762 547
12.6399997845292 550
12.6599997840822 551
12.6799997836351 573
12.6999997831881 595
12.7199997827411 500
12.739999782294 553
12.759999781847 597
12.7799997814 554
12.7999997809529 573
12.8199997805059 566
12.8399997800589 560
12.8599997796118 569
12.8799997791648 596
12.8999997787178 608
12.9199997782707 572
12.9399997778237 588
12.9599997773767 576
12.9799997769296 555
12.9999997764826 532
13.0199997760355 611
13.0399997755885 565
13.0599997751415 569
13.0799997746944 612
13.0999997742474 584
13.1199997738004 611
13.1399997733533 578
13.1599997729063 596
13.1799997724593 585
13.1999997720122 595
13.2199997715652 581
13.2399997711182 622
13.2599997706711 602
13.2799997702241 575
13.2999997697771 640
13.31999976933 614
13.339999768883 629
13.359999768436 605
13.3799997679889 574
13.3999997675419 617
13.4199997670949 637
13.4399997666478 669
13.4599997662008 569
13.4799997657537 576
13.4999997653067 576
13.5199997648597 609
13.5399997644126 636
13.5599997639656 616
13.5799997635186 615
13.5999997630715 618
13.6199997626245 587
13.6399997621775 574
13.6599997617304 569
13.6799997612834 609
13.6999997608364 522
13.7199997603893 590
13.7399997599423 601
13.7599997594953 606
13.7799997590482 580
13.7999997586012 618
13.8199997581542 606
13.8399997577071 577
13.8599997572601 558
13.879999756813 595
13.899999756366 613
13.919999755919 600
13.9399997554719 585
13.9599997550249 592
13.9799997545779 561
13.9999997541308 601
14.0199997536838 621
14.0399997532368 631
14.0599997527897 621
14.0799997523427 597
14.0999997518957 605
14.1199997514486 618
14.1399997510016 586
14.1599997505546 601
14.1799997501075 623
14.1999997496605 613
14.2199997492135 622
14.2399997487664 611
14.2599997483194 605
14.2799997478724 625
14.2999997474253 664
14.3199997469783 655
14.3399997465312 710
14.3599997460842 677
14.3799997456372 624
14.3999997451901 674
14.4199997447431 660
14.4399997442961 683
14.459999743849 700
14.479999743402 645
14.499999742955 713
14.5199997425079 682
14.5399997420609 632
14.5599997416139 643
14.5799997411668 657
14.5999997407198 713
14.6199997402728 665
14.6399997398257 640
14.6599997393787 656
14.6799997389317 593
14.6999997384846 650
14.7199997380376 668
14.7399997375906 661
14.7599997371435 672
14.7799997366965 657
14.7999997362494 666
14.8199997358024 628
14.8399997353554 696
14.8599997349083 663
14.8799997344613 694
14.8999997340143 658
14.9199997335672 697
14.9399997331202 682
14.9599997326732 677
14.9799997322261 695
14.9999997317791 675
15.0199997313321 636
15.039999730885 599
15.059999730438 668
15.079999729991 632
15.0999997295439 691
15.1199997290969 652
15.1399997286499 651
15.1599997282028 683
15.1799997277558 647
15.1999997273088 693
15.2199997268617 669
15.2399997264147 677
15.2599997259676 666
15.2799997255206 655
15.2999997250736 692
15.3199997246265 694
15.3399997241795 690
15.3599997237325 712
15.3799997232854 716
15.3999997228384 713
15.4199997223914 713
15.4399997219443 671
15.4599997214973 690
15.4799997210503 690
15.4999997206032 722
15.5199997201562 673
15.5399997197092 688
15.5599997192621 710
15.5799997188151 725
15.5999997183681 748
15.619999717921 721
15.639999717474 736
15.659999717027 742
15.6799997165799 712
15.6999997161329 734
15.7199997156858 742
15.7399997152388 747
15.7599997147918 723
15.7799997143447 667
15.7999997138977 735
15.8199997134507 729
15.8399997130036 707
15.8599997125566 691
15.8799997121096 736
15.8999997116625 733
15.9199997112155 722
15.9399997107685 750
15.9599997103214 724
15.9799997098744 670
15.9999997094274 754
16.0199997089803 717
16.0399997085333 771
16.0599997080863 781
16.0799997076392 750
16.0999997071922 767
16.1199997067451 778
16.1399997062981 765
16.1599997058511 786
16.179999705404 779
16.199999704957 717
16.21999970451 731
16.2399997040629 798
16.2599997036159 774
16.2799997031689 789
16.2999997027218 793
16.3199997022748 760
16.3399997018278 807
16.3599997013807 737
16.3799997009337 783
16.3999997004867 831
16.4199997000396 787
16.4399996995926 768
16.4599996991456 787
16.4799996986985 794
16.4999996982515 847
16.5199996978045 784
16.5399996973574 859
16.5599996969104 820
16.5799996964633 816
16.5999996960163 813
16.6199996955693 786
16.6399996951222 769
16.6599996946752 830
16.6799996942282 802
16.6999996937811 862
16.7199996933341 819
16.7399996928871 841
16.75999969244 867
16.779999691993 817
16.799999691546 853
16.8199996910989 834
16.8399996906519 882
16.8599996902049 862
16.8799996897578 929
16.8999996893108 924
16.9199996888638 989
16.9399996884167 1085
16.9599996879697 1117
16.9799996875226 1231
16.9999996870756 1276
17.0199996866286 1333
17.0399996861815 1381
17.0599996857345 1268
17.0799996852875 1205
17.0999996848404 1115
17.1199996843934 997
17.1399996839464 979
17.1599996834993 916
17.1799996830523 885
17.1999996826053 909
17.2199996821582 905
17.2399996817112 896
17.2599996812642 838
17.2799996808171 906
17.2999996803701 899
17.3199996799231 857
17.339999679476 917
17.359999679029 914
17.379999678582 969
17.3999996781349 955
17.4199996776879 886
17.4399996772408 929
17.4599996767938 925
17.4799996763468 950
17.4999996758997 901
17.5199996754527 921
17.5399996750057 896
17.5599996745586 928
17.5799996741116 904
17.5999996736646 941
17.6199996732175 957
17.6399996727705 943
17.6599996723235 968
17.6799996718764 964
17.6999996714294 934
17.7199996709824 952
17.7399996705353 938
17.7599996700883 908
17.7799996696413 924
17.7999996691942 915
17.8199996687472 902
17.8399996683002 979
17.8599996678531 1039
17.8799996674061 928
17.899999666959 976
17.919999666512 971
17.939999666065 967
17.9599996656179 981
17.9799996651709 911
17.9999996647239 935
18.0199996642768 982
18.0399996638298 945
18.0599996633828 960
18.0799996629357 972
18.0999996624887 917
18.1199996620417 982
18.1399996615946 1003
18.1599996611476 1072
18.1799996607006 1001
18.1999996602535 1008
18.2199996598065 1048
18.2399996593595 1022
18.2599996589124 1069
18.2799996584654 972
18.2999996580184 991
18.3199996575713 997
18.3399996571243 993
18.3599996566772 998
18.3799996562302 1040
18.3999996557832 973
18.4199996553361 991
18.4399996548891 1040
18.4599996544421 1077
18.479999653995 1027
18.499999653548 1021
18.519999653101 1064
18.5399996526539 1013
18.5599996522069 1042
18.5799996517599 993
18.5999996513128 1028
18.6199996508658 1048
18.6399996504188 1075
18.6599996499717 1118
18.6799996495247 1101
18.6999996490777 1069
18.7199996486306 1024
18.7399996481836 1108
18.7599996477366 1137
18.7799996472895 1101
18.7999996468425 1072
18.8199996463954 1082
18.8399996459484 1123
18.8599996455014 1110
18.8799996450543 1035
18.8999996446073 1105
18.9199996441603 1078
18.9399996437132 1128
18.9599996432662 1094
18.9799996428192 1075
18.9999996423721 1132
19.0199996419251 1104
19.0399996414781 1173
19.059999641031 1174
19.079999640584 1133
19.099999640137 1114
19.1199996396899 1130
19.1399996392429 1159
19.1599996387959 1213
19.1799996383488 1177
19.1999996379018 1146
19.2199996374547 1157
19.2399996370077 1146
19.2599996365607 1210
19.2799996361136 1168
19.2999996356666 1141
19.3199996352196 1198
19.3399996347725 1175
19.3599996343255 1188
19.3799996338785 1174
19.3999996334314 1226
19.4199996329844 1238
19.4399996325374 1189
19.4599996320903 1279
19.4799996316433 1208
19.4999996311963 1257
19.5199996307492 1264
19.5399996303022 1319
19.5599996298552 1317
19.5799996294081 1321
19.5999996289611 1270
19.6199996285141 1250
19.639999628067 1333
19.65999962762 1240
19.6799996271729 1321
19.6999996267259 1310
19.7199996262789 1309
19.7399996258318 1270
19.7599996253848 1282
19.7799996249378 1307
19.7999996244907 1308
19.8199996240437 1331
19.8399996235967 1307
19.8599996231496 1329
19.8799996227026 1265
19.8999996222556 1349
19.9199996218085 1373
19.9399996213615 1363
19.9599996209145 1334
19.9799996204674 1358
19.9999996200204 1339
