3 2396
3.01999999955297 2237
3.03999999910593 2173
3.0599999986589 2072
3.07999999821186 1916
3.09999999776483 1815
3.11999999731779 1677
3.13999999687076 1685
3.15999999642372 1700
3.17999999597669 1634
3.19999999552965 1615
3.21999999508262 1574
3.23999999463558 1514
3.25999999418855 1562
3.27999999374151 1575
3.29999999329448 1556
3.31999999284744 1475
3.33999999240041 1446
3.35999999195337 1438
3.37999999150634 1387
3.3999999910593 1436
3.41999999061227 1410
3.43999999016523 1425
3.4599999897182 1362
3.47999998927116 1297
3.49999998882413 1320
3.51999998837709 1340
3.53999998793006 1298
3.55999998748302 1299
3.57999998703599 1203
3.59999998658895 1266
3.61999998614192 1170
3.63999998569489 1173
3.65999998524785 1157
3.67999998480082 1189
3.69999998435378 1162
3.71999998390675 1197
3.73999998345971 1130
3.75999998301268 1107
3.77999998256564 1176
3.79999998211861 1141
3.81999998167157 1040
3.83999998122454 1070
3.8599999807775 1092
3.87999998033047 1043
3.89999997988343 1067
3.9199999794364 990
3.93999997898936 1012
3.95999997854233 982
3.97999997809529 1042
3.99999997764826 973
4.01999997720122 1022
4.03999997675419 989
4.05999997630715 942
4.07999997586012 990
4.09999997541308 1001
4.11999997496605 929
4.13999997451901 983
4.15999997407198 911
4.17999997362494 960
4.19999997317791 965
4.21999997273087 938
4.23999997228384 879
4.25999997183681 878
4.27999997138977 916
4.29999997094274 925
4.3199999704957 892
4.33999997004867 808
4.35999996960163 895
4.3799999691546 882
4.39999996870756 846
4.41999996826053 857
4.43999996781349 812
4.45999996736646 818
4.47999996691942 800
4.49999996647239 820
4.51999996602535 833
4.53999996557832 843
4.55999996513128 814
4.57999996468425 786
4.59999996423721 831
4.61999996379018 828
4.63999996334314 780
4.65999996289611 740
4.67999996244907 804
4.69999996200204 823
4.719999961555 810
4.73999996110797 763
4.75999996066093 763
4.7799999602139 752
4.79999995976686 786
4.81999995931983 760
4.83999995887279 766
4.85999995842576 743
4.87999995797873 728
4.89999995753169 721
4.91999995708466 721
4.93999995663762 733
4.95999995619059 754
4.97999995574355 684
4.99999995529652 675
5.01999995484948 703
5.03999995440245 704
5.05999995395541 744
5.07999995350838 719
5.09999995306134 701
5.11999995261431 690
5.13999995216727 705
5.15999995172024 701
5.1799999512732 691
5.19999995082617 663
5.21999995037913 688
5.2399999499321 693
5.25999994948506 696
5.27999994903803 696
5.29999994859099 651
5.31999994814396 663
5.33999994769692 688
5.35999994724989 663
5.37999994680285 704
5.39999994635582 665
5.41999994590878 682
5.43999994546175 661
5.45999994501471 684
5.47999994456768 701
5.49999994412065 695
5.51999994367361 668
5.53999994322658 627
5.55999994277954 709
5.57999994233251 622
5.59999994188547 630
5.61999994143844 630
5.6399999409914 681
5.65999994054437 645
5.67999994009733 661
5.6999999396503 618
5.71999993920326 605
5.73999993875623 677
5.75999993830919 663
5.77999993786216 650
5.79999993741512 642
5.81999993696809 637
5.83999993652105 636
5.85999993607402 659
5.87999993562698 671
5.89999993517995 647
5.91999993473291 641
5.93999993428588 633
5.95999993383884 655
5.97999993339181 649
5.99999993294477 618
6.01999993249774 632
6.0399999320507 649
6.05999993160367 619
6.07999993115663 660
6.0999999307096 642
6.11999993026257 671
6.13999992981553 653
6.1599999293685 690
6.17999992892146 645
6.19999992847443 677
6.21999992802739 662
6.23999992758036 672
6.25999992713332 651
6.27999992668629 644
6.29999992623925 654
6.31999992579222 618
6.33999992534518 637
6.35999992489815 622
6.37999992445111 622
6.39999992400408 691
6.41999992355704 620
6.43999992311001 665
6.45999992266297 636
6.47999992221594 621
6.4999999217689 659
6.51999992132187 653
6.53999992087483 623
6.5599999204278 625
6.57999991998076 662
6.59999991953373 645
6.61999991908669 606
6.63999991863966 664
6.65999991819262 667
6.67999991774559 630
6.69999991729855 672
6.71999991685152 645
6.73999991640449 635
6.75999991595745 671
6.77999991551042 638
6.79999991506338 647
6.81999991461635 611
6.83999991416931 654
6.85999991372228 637
6.87999991327524 625
6.89999991282821 594
6.91999991238117 590
6.93999991193414 624
6.9599999114871 618
6.97999991104007 611
6.99999991059303 651
7.019999910146 647
7.03999990969896 655
7.05999990925193 620
7.07999990880489 626
7.09999990835786 646
7.11999990791082 591
7.13999990746379 607
7.15999990701675 634
7.17999990656972 613
7.19999990612268 638
7.21999990567565 622
7.23999990522861 584
7.25999990478158 632
7.27999990433454 590
7.29999990388751 619
7.31999990344047 618
7.33999990299344 631
7.35999990254641 660
7.37999990209937 619
7.39999990165234 663
7.4199999012053 662
7.43999990075827 663
7.45999990031123 618
7.4799998998642 597
7.49999989941716 629
7.51999989897013 620
7.53999989852309 657
7.55999989807606 612
7.57999989762902 634
7.59999989718199 602
7.61999989673495 662
7.63999989628792 626
7.65999989584088 613
7.67999989539385 579
7.69999989494681 588
7.71999989449978 612
7.73999989405274 660
7.75999989360571 654
7.77999989315867 671
7.79999989271164 645
7.8199998922646 683
7.83999989181757 660
7.85999989137053 656
7.8799998909235 608
7.89999989047646 661
7.91999989002943 647
7.9399998895824 650
7.95999988913536 641
7.97999988868833 710
7.99999988824129 666
8.01999988779426 659
8.03999988734722 659
8.05999988690019 664
8.07999988645315 678
8.09999988600612 643
8.11999988555908 672
8.13999988511205 667
8.15999988466501 636
8.17999988421798 678
8.19999988377094 667
8.21999988332391 670
8.23999988287687 644
8.25999988242984 679
8.2799998819828 661
8.29999988153577 664
8.31999988108873 677
8.3399998806417 699
8.35999988019466 673
8.37999987974763 737
8.39999987930059 708
8.41999987885356 726
8.43999987840652 744
8.45999987795949 725
8.47999987751245 775
8.49999987706542 773
8.51999987661839 796
8.53999987617135 726
8.55999987572432 766
8.57999987527728 749
8.59999987483025 826
8.61999987438321 843
8.63999987393618 858
8.65999987348914 859
8.67999987304211 924
8.69999987259507 903
8.71999987214804 986
8.739999871701 972
8.75999987125397 1063
8.77999987080693 1066
8.7999998703599 1158
8.81999986991286 1214
8.83999986946583 1340
8.85999986901879 1443
8.87999986857176 1476
8.89999986812472 1534
8.91999986767769 1470
8.93999986723065 1517
8.95999986678362 1502
8.97999986633658 1515
8.99999986588955 1530
9.01999986544251 1406
9.03999986499548 1246
9.05999986454844 1102
9.07999986410141 1050
9.09999986365438 1012
9.11999986320734 965
9.13999986276031 935
9.15999986231327 986
9.17999986186624 933
9.1999998614192 923
9.21999986097217 955
9.23999986052513 891
9.2599998600781 899
9.27999985963106 914
9.29999985918403 942
9.31999985873699 916
9.33999985828996 910
9.35999985784292 912
9.37999985739589 848
9.39999985694885 832
9.41999985650182 825
9.43999985605478 834
9.45999985560775 830
9.47999985516071 817
9.49999985471368 817
9.51999985426664 807
9.53999985381961 802
9.55999985337257 837
9.57999985292554 833
9.5999998524785 836
9.61999985203147 879
9.63999985158443 819
9.6599998511374 863
9.67999985069037 901
9.69999985024333 869
9.7199998497963 962
9.73999984934926 1006
9.75999984890223 969
9.77999984845519 1045
9.79999984800816 1062
9.81999984756112 1083
9.83999984711409 1227
9.85999984666705 1228
9.87999984622002 1421
9.89999984577298 1506
9.91999984532595 1604
9.93999984487891 1614
9.95999984443188 1391
9.97999984398484 1363
9.99999984353781 1294
10.0199998430908 1187
10.0399998426437 1095
10.0599998421967 1048
10.0799998417497 970
10.0999998413026 953
10.1199998408556 884
10.1399998404086 916
10.1599998399615 786
10.1799998395145 788
10.1999998390675 817
10.2199998386204 755
10.2399998381734 720
10.2599998377264 737
10.2799998372793 747
10.2999998368323 680
10.3199998363853 682
10.3399998359382 698
10.3599998354912 656
10.3799998350441 703
10.3999998345971 679
10.4199998341501 659
10.439999833703 698
10.459999833256 690
10.479999832809 618
10.4999998323619 681
10.5199998319149 649
10.5399998314679 682
10.5599998310208 662
10.5799998305738 657
10.5999998301268 652
10.6199998296797 654
10.6399998292327 622
10.6599998287857 660
10.6799998283386 655
10.6999998278916 621
10.7199998274446 625
10.7399998269975 654
10.7599998265505 645
10.7799998261034 611
10.7999998256564 696
10.8199998252094 642
10.8399998247623 618
10.8599998243153 663
10.8799998238683 706
10.8999998234212 698
10.9199998229742 647
10.9399998225272 670
10.9599998220801 654
10.9799998216331 613
10.9999998211861 647
11.019999820739 635
11.039999820292 640
11.059999819845 642
11.0799998193979 627
11.0999998189509 602
11.1199998185039 624
11.1399998180568 629
11.1599998176098 581
11.1799998171628 588
11.1999998167157 598
11.2199998162687 618
11.2399998158216 548
11.2599998153746 569
11.2799998149276 543
11.2999998144805 573
11.3199998140335 571
11.3399998135865 563
11.3599998131394 573
11.3799998126924 566
11.3999998122454 618
11.4199998117983 584
11.4399998113513 588
11.4599998109043 557
11.4799998104572 579
11.4999998100102 580
11.5199998095632 550
11.5399998091161 646
11.5599998086691 588
11.5799998082221 586
11.599999807775 576
11.619999807328 606
11.639999806881 601
11.6599998064339 545
11.6799998059869 563
11.6999998055398 582
11.7199998050928 558
11.7399998046458 567
11.7599998041987 582
11.7799998037517 574
11.7999998033047 568
11.8199998028576 577
11.8399998024106 552
11.8599998019636 580
11.8799998015165 635
11.8999998010695 586
11.9199998006225 569
11.9399998001754 562
11.9599997997284 585
11.9799997992814 583
11.9999997988343 544
12.0199997983873 584
12.0399997979403 586
12.0599997974932 583
12.0799997970462 581
12.0999997965992 559
12.1199997961521 585
12.1399997957051 607
12.159999795258 571
12.179999794811 607
12.199999794364 609
12.2199997939169 553
12.2399997934699 566
12.2599997930229 585
12.2799997925758 570
12.2999997921288 592
12.3199997916818 602
12.3399997912347 587
12.3599997907877 599
12.3799997903407 631
12.3999997898936 598
12.4199997894466 601
12.4399997889996 613
12.4599997885525 653
12.4799997881055 633
12.4999997876585 683
12.5199997872114 736
12.5399997867644 743
12.5599997863173 788
12.5799997858703 833
12.5999997854233 875
12.6199997849762 882
12.6399997845292 870
12.6599997840822 863
12.6799997836351 833
12.6999997831881 815
12.7199997827411 753
12.739999782294 737
12.759999781847 690
12.7799997814 686
12.7999997809529 650
12.8199997805059 613
12.8399997800589 629
12.8599997796118 621
12.8799997791648 658
12.8999997787178 632
12.9199997782707 640
12.9399997778237 628
12.9599997773767 606
12.9799997769296 623
12.9999997764826 658
13.0199997760355 610
13.0399997755885 604
13.0599997751415 618
13.0799997746944 654
13.0999997742474 637
13.1199997738004 672
13.1399997733533 653
13.1599997729063 612
13.1799997724593 594
13.1999997720122 643
13.2199997715652 722
13.2399997711182 637
13.2599997706711 717
13.2799997702241 707
13.2999997697771 727
13.31999976933 760
13.339999768883 781
13.359999768436 767
13.3799997679889 818
13.3999997675419 764
13.4199997670949 723
13.4399997666478 710
13.4599997662008 675
13.4799997657537 688
13.4999997653067 661
13.5199997648597 594
13.5399997644126 601
13.5599997639656 638
13.5799997635186 595
13.5999997630715 643
13.6199997626245 668
13.6399997621775 584
13.6599997617304 595
13.6799997612834 640
13.6999997608364 583
13.7199997603893 570
13.7399997599423 592
13.7599997594953 642
13.7799997590482 601
13.7999997586012 623
13.8199997581542 626
13.8399997577071 655
13.8599997572601 601
13.879999756813 563
13.899999756366 583
13.919999755919 608
13.9399997554719 656
13.9599997550249 631
13.9799997545779 641
13.9999997541308 633
14.0199997536838 601
14.0399997532368 613
14.0599997527897 588
14.0799997523427 621
14.0999997518957 621
14.1199997514486 629
14.1399997510016 635
14.1599997505546 584
14.1799997501075 637
14.1999997496605 614
14.2199997492135 625
14.2399997487664 626
14.2599997483194 612
14.2799997478724 600
14.2999997474253 600
14.3199997469783 677
14.3399997465312 599
14.3599997460842 646
14.3799997456372 624
14.3999997451901 613
14.4199997447431 627
14.4399997442961 642
14.459999743849 647
14.479999743402 617
14.499999742955 627
14.5199997425079 676
14.5399997420609 677
14.5599997416139 655
14.5799997411668 628
14.5999997407198 598
14.6199997402728 657
14.6399997398257 684
14.6599997393787 656
14.6799997389317 639
14.6999997384846 612
14.7199997380376 639
14.7399997375906 649
14.7599997371435 657
14.7799997366965 648
14.7999997362494 640
14.8199997358024 677
14.8399997353554 621
14.8599997349083 636
14.8799997344613 629
14.8999997340143 643
14.9199997335672 676
14.9399997331202 670
14.9599997326732 671
14.9799997322261 637
14.9999997317791 659
15.0199997313321 617
15.039999730885 619
15.059999730438 630
15.079999729991 587
15.0999997295439 637
15.1199997290969 639
15.1399997286499 630
15.1599997282028 646
15.1799997277558 653
15.1999997273088 645
15.2199997268617 660
15.2399997264147 636
15.2599997259676 642
15.2799997255206 650
15.2999997250736 694
15.3199997246265 652
15.3399997241795 675
15.3599997237325 675
15.3799997232854 682
15.3999997228384 659
15.4199997223914 697
15.4399997219443 688
15.4599997214973 691
15.4799997210503 693
15.4999997206032 626
15.5199997201562 664
15.5399997197092 697
15.5599997192621 640
15.5799997188151 653
15.5999997183681 663
15.619999717921 627
15.639999717474 656
15.659999717027 625
15.6799997165799 703
15.6999997161329 655
15.7199997156858 681
15.7399997152388 663
15.7599997147918 687
15.7799997143447 681
15.7999997138977 695
15.8199997134507 674
15.8399997130036 685
15.8599997125566 735
15.8799997121096 715
15.8999997116625 721
15.9199997112155 671
15.9399997107685 733
15.9599997103214 664
15.9799997098744 644
15.9999997094274 673
16.0199997089803 638
16.0399997085333 681
16.0599997080863 666
16.0799997076392 711
16.0999997071922 711
16.1199997067451 680
16.1399997062981 726
16.1599997058511 728
16.179999705404 744
16.199999704957 678
16.21999970451 725
16.2399997040629 686
16.2599997036159 731
16.2799997031689 763
16.2999997027218 707
16.3199997022748 709
16.3399997018278 716
16.3599997013807 746
16.3799997009337 668
16.3999997004867 762
16.4199997000396 704
16.4399996995926 789
16.4599996991456 738
16.4799996986985 757
16.4999996982515 759
16.5199996978045 760
16.5399996973574 718
16.5599996969104 757
16.5799996964633 767
16.5999996960163 769
16.6199996955693 771
16.6399996951222 757
16.6599996946752 781
16.6799996942282 766
16.6999996937811 826
16.7199996933341 802
16.7399996928871 888
16.75999969244 890
16.779999691993 912
16.799999691546 921
16.8199996910989 970
16.8399996906519 1019
16.8599996902049 1139
16.8799996897578 1185
16.8999996893108 1343
16.9199996888638 1469
16.9399996884167 1682
16.9599996879697 1751
16.9799996875226 1789
16.9999996870756 1712
17.0199996866286 1491
17.0399996861815 1325
17.0599996857345 1035
17.0799996852875 968
17.0999996848404 890
17.1199996843934 857
17.1399996839464 824
17.1599996834993 859
17.1799996830523 790
17.1999996826053 775
17.2199996821582 790
17.2399996817112 836
17.2599996812642 769
17.2799996808171 757
17.2999996803701 784
17.3199996799231 806
17.339999679476 799
17.359999679029 788
17.379999678582 809
17.3999996781349 826
17.4199996776879 797
17.4399996772408 848
17.4599996767938 814
17.4799996763468 800
17.4999996758997 758
17.5199996754527 809
17.5399996750057 798
17.5599996745586 855
17.5799996741116 825
17.5999996736646 836
17.6199996732175 859
17.6399996727705 804
17.6599996723235 836
17.6799996718764 854
17.6999996714294 845
17.7199996709824 850
17.7399996705353 878
17.7599996700883 851
17.7799996696413 840
17.7999996691942 848
17.8199996687472 861
17.8399996683002 845
17.8599996678531 816
17.8799996674061 809
17.899999666959 841
17.919999666512 829
17.939999666065 837
17.9599996656179 900
17.9799996651709 837
17.9999996647239 858
18.0199996642768 880
18.0399996638298 896
18.0599996633828 889
18.0799996629357 924
18.0999996624887 907
18.1199996620417 855
18.1399996615946 853
18.1599996611476 895
18.1799996607006 826
18.1999996602535 889
18.2199996598065 931
18.2399996593595 851
18.2599996589124 886
18.2799996584654 909
18.2999996580184 898
18.3199996575713 912
18.3399996571243 931
18.3599996566772 919
18.3799996562302 951
18.3999996557832 878
18.4199996553361 911
18.4399996548891 930
18.4599996544421 973
18.479999653995 893
18.499999653548 920
18.519999653101 937
18.5399996526539 973
18.5599996522069 944
18.5799996517599 883
18.5999996513128 930
18.6199996508658 892
18.6399996504188 907
18.6599996499717 920
18.6799996495247 918
18.6999996490777 931
18.7199996486306 942
18.7399996481836 924
18.7599996477366 913
18.7799996472895 880
18.7999996468425 937
18.8199996463954 950
18.8399996459484 933
18.8599996455014 945
18.8799996450543 988
18.8999996446073 915
18.9199996441603 956
18.9399996437132 938
18.9599996432662 944
18.9799996428192 936
18.9999996423721 923
19.0199996419251 893
19.0399996414781 910
19.059999641031 937
19.079999640584 976
19.099999640137 942
19.1199996396899 980
19.1399996392429 1005
19.1599996387959 934
19.1799996383488 960
19.1999996379018 913
19.2199996374547 938
19.2399996370077 999
19.2599996365607 941
19.2799996361136 931
19.2999996356666 940
19.3199996352196 935
19.3399996347725 1044
19.3599996343255 991
19.3799996338785 985
19.3999996334314 1027
19.4199996329844 989
19.4399996325374 979
19.4599996320903 985
19.4799996316433 979
19.4999996311963 1006
19.5199996307492 966
19.5399996303022 1012
19.5599996298552 999
19.5799996294081 1022
19.5999996289611 1025
19.6199996285141 1069
19.639999628067 1021
19.65999962762 988
19.6799996271729 1104
19.6999996267259 1075
19.7199996262789 1022
19.7399996258318 1091
19.7599996253848 1131
19.7799996249378 1128
19.7999996244907 1174
19.8199996240437 1170
19.8399996235967 1225
19.8599996231496 1190
19.8799996227026 1259
19.8999996222556 1160
19.9199996218085 1193
19.9399996213615 1230
19.9599996209145 1166
19.9799996204674 1145
19.9999996200204 1167
