3 2333
3.01999999955297 2183
3.03999999910593 2064
3.0599999986589 1856
3.07999999821186 1793
3.09999999776483 1767
3.11999999731779 1652
3.13999999687076 1587
3.15999999642372 1621
3.17999999597669 1595
3.19999999552965 1561
3.21999999508262 1488
3.23999999463558 1501
3.25999999418855 1405
3.27999999374151 1469
3.29999999329448 1455
3.31999999284744 1449
3.33999999240041 1382
3.35999999195337 1296
3.37999999150634 1396
3.3999999910593 1347
3.41999999061227 1294
3.43999999016523 1248
3.4599999897182 1315
3.47999998927116 1254
3.49999998882413 1269
3.51999998837709 1294
3.53999998793006 1256
3.55999998748302 1227
3.57999998703599 1250
3.59999998658895 1119
3.61999998614192 1135
3.63999998569489 1152
3.65999998524785 1113
3.67999998480082 1161
3.69999998435378 1127
3.71999998390675 1164
3.73999998345971 1095
3.75999998301268 1063
3.77999998256564 1083
3.79999998211861 1116
3.81999998167157 1092
3.83999998122454 1082
3.8599999807775 1126
3.87999998033047 1061
3.89999997988343 961
3.9199999794364 1008
3.93999997898936 1072
3.95999997854233 1010
3.97999997809529 1061
3.99999997764826 983
4.01999997720122 1011
4.03999997675419 1025
4.05999997630715 1117
4.07999997586012 1080
4.09999997541308 1094
4.11999997496605 1119
4.13999997451901 1027
4.15999997407198 997
4.17999997362494 923
4.19999997317791 871
4.21999997273087 893
4.23999997228384 867
4.25999997183681 853
4.27999997138977 909
4.29999997094274 856
4.3199999704957 858
4.33999997004867 804
4.35999996960163 840
4.3799999691546 837
4.39999996870756 807
4.41999996826053 874
4.43999996781349 790
4.45999996736646 833
4.47999996691942 793
4.49999996647239 793
4.51999996602535 763
4.53999996557832 781
4.55999996513128 784
4.57999996468425 743
4.59999996423721 767
4.61999996379018 802
4.63999996334314 815
4.65999996289611 785
4.67999996244907 769
4.69999996200204 873
4.719999961555 757
4.73999996110797 776
4.75999996066093 743
4.7799999602139 773
4.79999995976686 805
4.81999995931983 757
4.83999995887279 720
4.85999995842576 761
4.87999995797873 802
4.89999995753169 756
4.91999995708466 785
4.93999995663762 773
4.95999995619059 734
4.97999995574355 724
4.99999995529652 765
5.01999995484948 783
5.03999995440245 705
5.05999995395541 733
5.07999995350838 775
5.09999995306134 787
5.11999995261431 844
5.13999995216727 845
5.15999995172024 848
5.1799999512732 853
5.19999995082617 884
5.21999995037913 919
5.2399999499321 968
5.25999994948506 922
5.27999994903803 923
5.29999994859099 988
5.31999994814396 1008
5.33999994769692 989
5.35999994724989 1032
5.37999994680285 1115
5.39999994635582 1224
5.41999994590878 1312
5.43999994546175 1314
5.45999994501471 1297
5.47999994456768 1215
5.49999994412065 1238
5.51999994367361 1305
5.53999994322658 1325
5.55999994277954 1532
5.57999994233251 1501
5.59999994188547 1685
5.61999994143844 1738
5.6399999409914 1914
5.65999994054437 2135
5.67999994009733 2309
5.6999999396503 2639
5.71999993920326 3052
5.73999993875623 3776
5.75999993830919 4655
5.77999993786216 5336
5.79999993741512 4559
5.81999993696809 3188
5.83999993652105 1914
5.85999993607402 1400
5.87999993562698 1123
5.89999993517995 985
5.91999993473291 873
5.93999993428588 852
5.95999993383884 798
5.97999993339181 765
5.99999993294477 744
6.01999993249774 753
6.0399999320507 705
6.05999993160367 705
6.07999993115663 704
6.0999999307096 732
6.11999993026257 771
6.13999992981553 720
6.1599999293685 710
6.17999992892146 761
6.19999992847443 762
6.21999992802739 721
6.23999992758036 752
6.25999992713332 692
6.27999992668629 722
6.29999992623925 753
6.31999992579222 792
6.33999992534518 817
6.35999992489815 833
6.37999992445111 834
6.39999992400408 860
6.41999992355704 867
6.43999992311001 988
6.45999992266297 956
6.47999992221594 999
6.4999999217689 1041
6.51999992132187 1096
6.53999992087483 1193
6.5599999204278 1306
6.57999991998076 1406
6.59999991953373 1532
6.61999991908669 1644
6.63999991863966 1946
6.65999991819262 2011
6.67999991774559 1716
6.69999991729855 1348
6.71999991685152 1165
6.73999991640449 1109
6.75999991595745 1031
6.77999991551042 1011
6.79999991506338 960
6.81999991461635 825
6.83999991416931 801
6.85999991372228 669
6.87999991327524 648
6.89999991282821 652
6.91999991238117 629
6.93999991193414 628
6.9599999114871 585
6.97999991104007 608
6.99999991059303 600
7.019999910146 612
7.03999990969896 569
7.05999990925193 577
7.07999990880489 609
7.09999990835786 620
7.11999990791082 580
7.13999990746379 614
7.15999990701675 563
7.17999990656972 608
7.19999990612268 586
7.21999990567565 599
7.23999990522861 576
7.25999990478158 589
7.27999990433454 575
7.29999990388751 538
7.31999990344047 581
7.33999990299344 570
7.35999990254641 554
7.37999990209937 659
7.39999990165234 569
7.4199999012053 566
7.43999990075827 567
7.45999990031123 578
7.4799998998642 591
7.49999989941716 584
7.51999989897013 555
7.53999989852309 597
7.55999989807606 588
7.57999989762902 566
7.59999989718199 569
7.61999989673495 585
7.63999989628792 581
7.65999989584088 631
7.67999989539385 606
7.69999989494681 577
7.71999989449978 600
7.73999989405274 602
7.75999989360571 599
7.77999989315867 608
7.79999989271164 565
7.8199998922646 594
7.83999989181757 563
7.85999989137053 558
7.8799998909235 585
7.89999989047646 537
7.91999989002943 571
7.9399998895824 597
7.95999988913536 618
7.97999988868833 567
7.99999988824129 552
8.01999988779426 554
8.03999988734722 560
8.05999988690019 565
8.07999988645315 586
8.09999988600612 580
8.11999988555908 595
8.13999988511205 568
8.15999988466501 546
8.17999988421798 588
8.19999988377094 595
8.21999988332391 571
8.23999988287687 570
8.25999988242984 603
8.2799998819828 570
8.29999988153577 582
8.31999988108873 552
8.3399998806417 580
8.35999988019466 611
8.37999987974763 528
8.39999987930059 600
8.41999987885356 592
8.43999987840652 561
8.45999987795949 567
8.47999987751245 553
8.49999987706542 554
8.51999987661839 560
8.53999987617135 543
8.55999987572432 553
8.57999987527728 559
8.59999987483025 578
8.61999987438321 554
8.63999987393618 574
8.65999987348914 529
8.67999987304211 551
8.69999987259507 531
8.71999987214804 565
8.739999871701 549
8.75999987125397 609
8.77999987080693 534
8.7999998703599 593
8.81999986991286 565
8.83999986946583 597
8.85999986901879 588
8.87999986857176 616
8.89999986812472 584
8.91999986767769 583
8.93999986723065 580
8.95999986678362 598
8.97999986633658 597
8.99999986588955 626
9.01999986544251 624
9.03999986499548 636
9.05999986454844 630
9.07999986410141 645
9.09999986365438 672
9.11999986320734 688
9.13999986276031 688
9.15999986231327 715
9.17999986186624 764
9.1999998614192 802
9.21999986097217 853
9.23999986052513 946
9.2599998600781 981
9.27999985963106 1056
9.29999985918403 1147
9.31999985873699 1332
9.33999985828996 1587
9.35999985784292 1847
9.37999985739589 2082
9.39999985694885 1825
9.41999985650182 1354
9.43999985605478 950
9.45999985560775 772
9.47999985516071 719
9.49999985471368 665
9.51999985426664 615
9.53999985381961 602
9.55999985337257 608
9.57999985292554 583
9.5999998524785 562
9.61999985203147 564
9.63999985158443 558
9.6599998511374 577
9.67999985069037 564
9.69999985024333 563
9.7199998497963 551
9.73999984934926 540
9.75999984890223 565
9.77999984845519 574
9.79999984800816 603
9.81999984756112 567
9.83999984711409 544
9.85999984666705 562
9.87999984622002 591
9.89999984577298 570
9.91999984532595 554
9.93999984487891 561
9.95999984443188 577
9.97999984398484 554
9.99999984353781 495
10.0199998430908 539
10.0399998426437 545
10.0599998421967 548
10.0799998417497 558
10.0999998413026 563
10.1199998408556 580
10.1399998404086 594
10.1599998399615 597
10.1799998395145 585
10.1999998390675 621
10.2199998386204 612
10.2399998381734 584
10.2599998377264 589
10.2799998372793 534
10.2999998368323 513
10.3199998363853 528
10.3399998359382 541
10.3599998354912 548
10.3799998350441 564
10.3999998345971 563
10.4199998341501 533
10.439999833703 563
10.459999833256 547
10.479999832809 569
10.4999998323619 560
10.5199998319149 544
10.5399998314679 553
10.5599998310208 576
10.5799998305738 528
10.5999998301268 549
10.6199998296797 571
10.6399998292327 606
10.6599998287857 607
10.6799998283386 641
10.6999998278916 652
10.7199998274446 616
10.7399998269975 672
10.7599998265505 706
10.7799998261034 731
10.7999998256564 779
10.8199998252094 795
10.8399998247623 775
10.8599998243153 847
10.8799998238683 854
10.8999998234212 980
10.9199998229742 1045
10.9399998225272 1165
10.9599998220801 1272
10.9799998216331 1499
10.9999998211861 1592
11.019999820739 1387
11.039999820292 1069
11.059999819845 960
11.0799998193979 783
11.0999998189509 759
11.1199998185039 700
11.1399998180568 660
11.1599998176098 690
11.1799998171628 612
11.1999998167157 617
11.2199998162687 662
11.2399998158216 639
11.2599998153746 624
11.2799998149276 610
11.2999998144805 629
11.3199998140335 645
11.3399998135865 647
11.3599998131394 690
11.3799998126924 747
11.3999998122454 763
11.4199998117983 784
11.4399998113513 884
11.4599998109043 968
11.4799998104572 1046
11.4999998100102 1073
11.5199998095632 941
11.5399998091161 839
11.5599998086691 757
11.5799998082221 647
11.599999807775 633
11.619999807328 600
11.639999806881 597
11.6599998064339 594
11.6799998059869 542
11.6999998055398 570
11.7199998050928 518
11.7399998046458 538
11.7599998041987 555
11.7799998037517 515
11.7999998033047 527
11.8199998028576 487
11.8399998024106 519
11.8599998019636 544
11.8799998015165 510
11.8999998010695 520
11.9199998006225 459
11.9399998001754 518
11.9599997997284 517
11.9799997992814 537
11.9999997988343 524
12.0199997983873 517
12.0399997979403 533
12.0599997974932 513
12.0799997970462 489
12.0999997965992 550
12.1199997961521 515
12.1399997957051 541
12.159999795258 586
12.179999794811 546
12.199999794364 555
12.2199997939169 554
12.2399997934699 514
12.2599997930229 593
12.2799997925758 549
12.2999997921288 581
12.3199997916818 520
12.3399997912347 561
12.3599997907877 503
12.3799997903407 546
12.3999997898936 525
12.4199997894466 519
12.4399997889996 530
12.4599997885525 525
12.4799997881055 552
12.4999997876585 535
12.5199997872114 541
12.5399997867644 533
12.5599997863173 546
12.5799997858703 524
12.5999997854233 486
12.6199997849762 542
12.6399997845292 504
12.6599997840822 541
12.6799997836351 568
12.6999997831881 563
12.7199997827411 490
12.739999782294 538
12.759999781847 536
12.7799997814 482
12.7999997809529 519
12.8199997805059 500
12.8399997800589 549
12.8599997796118 511
12.8799997791648 583
12.8999997787178 510
12.9199997782707 567
12.9399997778237 503
12.9599997773767 515
12.9799997769296 502
12.9999997764826 573
13.0199997760355 569
13.0399997755885 542
13.0599997751415 542
13.0799997746944 542
13.0999997742474 579
13.1199997738004 575
13.1399997733533 576
13.1599997729063 549
13.1799997724593 564
13.1999997720122 587
13.2199997715652 614
13.2399997711182 632
13.2599997706711 609
13.2799997702241 647
13.2999997697771 614
13.31999976933 650
13.339999768883 609
13.359999768436 573
13.3799997679889 606
13.3999997675419 578
13.4199997670949 550
13.4399997666478 565
13.4599997662008 574
13.4799997657537 590
13.4999997653067 560
13.5199997648597 547
13.5399997644126 601
13.5599997639656 556
13.5799997635186 550
13.5999997630715 560
13.6199997626245 547
13.6399997621775 572
13.6599997617304 540
13.6799997612834 559
13.6999997608364 556
13.7199997603893 621
13.7399997599423 575
13.7599997594953 546
13.7799997590482 531
13.7999997586012 522
13.8199997581542 527
13.8399997577071 539
13.8599997572601 542
13.879999756813 555
13.899999756366 553
13.919999755919 553
13.9399997554719 543
13.9599997550249 604
13.9799997545779 560
13.9999997541308 550
14.0199997536838 579
14.0399997532368 571
14.0599997527897 575
14.0799997523427 543
14.0999997518957 520
14.1199997514486 576
14.1399997510016 589
14.1599997505546 601
14.1799997501075 604
14.1999997496605 602
14.2199997492135 564
14.2399997487664 612
14.2599997483194 587
14.2799997478724 583
14.2999997474253 614
14.3199997469783 630
14.3399997465312 608
14.3599997460842 634
14.3799997456372 626
14.3999997451901 650
14.4199997447431 745
14.4399997442961 743
14.459999743849 747
14.479999743402 653
14.499999742955 638
14.5199997425079 614
14.5399997420609 631
14.5599997416139 613
14.5799997411668 607
14.5999997407198 592
14.6199997402728 599
14.6399997398257 600
14.6599997393787 570
14.6799997389317 604
14.6999997384846 653
14.7199997380376 566
14.7399997375906 613
14.7599997371435 602
14.7799997366965 593
14.7999997362494 648
14.8199997358024 659
14.8399997353554 640
14.8599997349083 672
14.8799997344613 641
14.8999997340143 620
14.9199997335672 615
14.9399997331202 622
14.9599997326732 575
14.9799997322261 598
14.9999997317791 551
15.0199997313321 610
15.039999730885 624
15.059999730438 639
15.079999729991 656
15.0999997295439 566
15.1199997290969 622
15.1399997286499 589
15.1599997282028 585
15.1799997277558 638
15.1999997273088 603
15.2199997268617 621
15.2399997264147 657
15.2599997259676 628
15.2799997255206 634
15.2999997250736 629
15.3199997246265 593
15.3399997241795 597
15.3599997237325 614
15.3799997232854 641
15.3999997228384 611
15.4199997223914 600
15.4399997219443 586
15.4599997214973 604
15.4799997210503 601
15.4999997206032 658
15.5199997201562 670
15.5399997197092 651
15.5599997192621 629
15.5799997188151 648
15.5999997183681 626
15.619999717921 672
15.639999717474 641
15.659999717027 630
15.6799997165799 623
15.6999997161329 623
15.7199997156858 698
15.7399997152388 633
15.7599997147918 599
15.7799997143447 652
15.7999997138977 679
15.8199997134507 687
15.8399997130036 644
15.8599997125566 675
15.8799997121096 690
15.8999997116625 659
15.9199997112155 709
15.9399997107685 663
15.9599997103214 665
15.9799997098744 651
15.9999997094274 657
16.0199997089803 673
16.0399997085333 650
16.0599997080863 715
16.0799997076392 669
16.0999997071922 710
16.1199997067451 685
16.1399997062981 708
16.1599997058511 675
16.179999705404 680
16.199999704957 686
16.21999970451 694
16.2399997040629 691
16.2599997036159 702
16.2799997031689 724
16.2999997027218 727
16.3199997022748 691
16.3399997018278 747
16.3599997013807 740
16.3799997009337 696
16.3999997004867 681
16.4199997000396 710
16.4399996995926 711
16.4599996991456 659
16.4799996986985 703
16.4999996982515 742
16.5199996978045 739
16.5399996973574 707
16.5599996969104 673
16.5799996964633 713
16.5999996960163 684
16.6199996955693 681
16.6399996951222 740
16.6599996946752 751
16.6799996942282 723
16.6999996937811 744
16.7199996933341 720
16.7399996928871 739
16.75999969244 728
16.779999691993 728
16.799999691546 741
16.8199996910989 754
16.8399996906519 798
16.8599996902049 831
16.8799996897578 865
16.8999996893108 842
16.9199996888638 942
16.9399996884167 1033
16.9599996879697 1135
16.9799996875226 1238
16.9999996870756 1362
17.0199996866286 1227
17.0399996861815 1104
17.0599996857345 1033
17.0799996852875 918
17.0999996848404 861
17.1199996843934 800
17.1399996839464 777
17.1599996834993 830
17.1799996830523 806
17.1999996826053 857
17.2199996821582 863
17.2399996817112 872
17.2599996812642 907
17.2799996808171 819
17.2999996803701 859
17.3199996799231 843
17.339999679476 799
17.359999679029 818
17.379999678582 834
17.3999996781349 818
17.4199996776879 831
17.4399996772408 809
17.4599996767938 786
17.4799996763468 797
17.4999996758997 782
17.5199996754527 831
17.5399996750057 814
17.5599996745586 832
17.5799996741116 793
17.5999996736646 860
17.6199996732175 813
17.6399996727705 779
17.6599996723235 774
17.6799996718764 788
17.6999996714294 842
17.7199996709824 813
17.7399996705353 746
17.7599996700883 843
17.7799996696413 859
17.7999996691942 807
17.8199996687472 854
17.8399996683002 893
17.8599996678531 793
17.8799996674061 844
17.899999666959 824
17.919999666512 883
17.939999666065 857
17.9599996656179 799
17.9799996651709 822
17.9999996647239 872
18.0199996642768 840
18.0399996638298 885
18.0599996633828 878
18.0799996629357 803
18.0999996624887 846
18.1199996620417 865
18.1399996615946 808
18.1599996611476 850
18.1799996607006 827
18.1999996602535 839
18.2199996598065 831
18.2399996593595 864
18.2599996589124 855
18.2799996584654 843
18.2999996580184 955
18.3199996575713 896
18.3399996571243 866
18.3599996566772 904
18.3799996562302 897
18.3999996557832 866
18.4199996553361 870
18.4399996548891 905
18.4599996544421 857
18.479999653995 874
18.499999653548 898
18.519999653101 892
18.5399996526539 910
18.5599996522069 870
18.5799996517599 900
18.5999996513128 878
18.6199996508658 869
18.6399996504188 941
18.6599996499717 880
18.6799996495247 936
18.6999996490777 972
18.7199996486306 940
18.7399996481836 922
18.7599996477366 856
18.7799996472895 897
18.7999996468425 911
18.8199996463954 971
18.8399996459484 973
18.8599996455014 932
18.8799996450543 936
18.8999996446073 940
18.9199996441603 927
18.9399996437132 911
18.9599996432662 937
18.9799996428192 987
18.9999996423721 966
19.0199996419251 973
19.0399996414781 971
19.059999641031 970
19.079999640584 921
19.099999640137 1012
19.1199996396899 1066
19.1399996392429 1061
19.1599996387959 1000
19.1799996383488 1001
19.1999996379018 996
19.2199996374547 1025
19.2399996370077 1000
19.2599996365607 1047
19.2799996361136 975
19.2999996356666 1023
19.3199996352196 1007
19.3399996347725 973
19.3599996343255 1009
19.3799996338785 1056
19.3999996334314 1069
19.4199996329844 1059
19.4399996325374 1137
19.4599996320903 1063
19.4799996316433 1082
19.4999996311963 1201
19.5199996307492 1208
19.5399996303022 1240
19.5599996298552 1299
19.5799996294081 1372
19.5999996289611 1333
19.6199996285141 1388
19.639999628067 1364
19.65999962762 1269
19.6799996271729 1262
19.6999996267259 1133
19.7199996262789 1221
19.7399996258318 1165
19.7599996253848 1174
19.7799996249378 1156
19.7999996244907 1249
19.8199996240437 1253
19.8399996235967 1363
19.8599996231496 1433
19.8799996227026 1439
19.8999996222556 1471
19.9199996218085 1492
19.9399996213615 1391
19.9599996209145 1374
19.9799996204674 1323
19.9999996200204 1179
