3 2173
3.01999999955297 2038
3.03999999910593 1782
3.0599999986589 1772
3.07999999821186 1718
3.09999999776483 1617
3.11999999731779 1550
3.13999999687076 1419
3.15999999642372 1414
3.17999999597669 1394
3.19999999552965 1362
3.21999999508262 1420
3.23999999463558 1411
3.25999999418855 1366
3.27999999374151 1332
3.29999999329448 1231
3.31999999284744 1318
3.33999999240041 1278
3.35999999195337 1280
3.37999999150634 1257
3.3999999910593 1306
3.41999999061227 1235
3.43999999016523 1261
3.4599999897182 1226
3.47999998927116 1192
3.49999998882413 1181
3.51999998837709 1181
3.53999998793006 1202
3.55999998748302 1201
3.57999998703599 1132
3.59999998658895 1155
3.61999998614192 1142
3.63999998569489 1121
3.65999998524785 1072
3.67999998480082 1052
3.69999998435378 1069
3.71999998390675 1035
3.73999998345971 1000
3.75999998301268 1027
3.77999998256564 1029
3.79999998211861 1065
3.81999998167157 995
3.83999998122454 974
3.8599999807775 904
3.87999998033047 986
3.89999997988343 986
3.9199999794364 934
3.93999997898936 985
3.95999997854233 941
3.97999997809529 927
3.99999997764826 900
4.01999997720122 885
4.03999997675419 927
4.05999997630715 975
4.07999997586012 892
4.09999997541308 862
4.11999997496605 887
4.13999997451901 889
4.15999997407198 861
4.17999997362494 849
4.19999997317791 826
4.21999997273087 835
4.23999997228384 809
4.25999997183681 838
4.27999997138977 834
4.29999997094274 813
4.3199999704957 835
4.33999997004867 824
4.35999996960163 800
4.3799999691546 757
4.39999996870756 800
4.41999996826053 778
4.43999996781349 737
4.45999996736646 779
4.47999996691942 795
4.49999996647239 808
4.51999996602535 747
4.53999996557832 779
4.55999996513128 761
4.57999996468425 829
4.59999996423721 778
4.61999996379018 764
4.63999996334314 791
4.65999996289611 805
4.67999996244907 784
4.69999996200204 728
4.719999961555 733
4.73999996110797 732
4.75999996066093 738
4.7799999602139 718
4.79999995976686 735
4.81999995931983 745
4.83999995887279 701
4.85999995842576 726
4.87999995797873 734
4.89999995753169 730
4.91999995708466 705
4.93999995663762 716
4.95999995619059 728
4.97999995574355 647
4.99999995529652 644
5.01999995484948 692
5.03999995440245 684
5.05999995395541 696
5.07999995350838 727
5.09999995306134 713
5.11999995261431 670
5.13999995216727 675
5.15999995172024 676
5.1799999512732 679
5.19999995082617 679
5.21999995037913 672
5.2399999499321 662
5.25999994948506 659
5.27999994903803 670
5.29999994859099 665
5.31999994814396 679
5.33999994769692 679
5.35999994724989 706
5.37999994680285 654
5.39999994635582 663
5.41999994590878 642
5.43999994546175 621
5.45999994501471 666
5.47999994456768 643
5.49999994412065 684
5.51999994367361 656
5.53999994322658 678
5.55999994277954 686
5.57999994233251 666
5.59999994188547 647
5.61999994143844 664
5.6399999409914 659
5.65999994054437 648
5.67999994009733 680
5.6999999396503 662
5.71999993920326 711
5.73999993875623 641
5.75999993830919 666
5.77999993786216 636
5.79999993741512 684
5.81999993696809 639
5.83999993652105 657
5.85999993607402 616
5.87999993562698 712
5.89999993517995 678
5.91999993473291 676
5.93999993428588 631
5.95999993383884 673
5.97999993339181 662
5.99999993294477 629
6.01999993249774 689
6.0399999320507 647
6.05999993160367 683
6.07999993115663 662
6.0999999307096 687
6.11999993026257 721
6.13999992981553 657
6.1599999293685 658
6.17999992892146 704
6.19999992847443 664
6.21999992802739 696
6.23999992758036 692
6.25999992713332 645
6.27999992668629 688
6.29999992623925 706
6.31999992579222 674
6.33999992534518 706
6.35999992489815 686
6.37999992445111 712
6.39999992400408 774
6.41999992355704 705
6.43999992311001 706
6.45999992266297 707
6.47999992221594 810
6.4999999217689 734
6.51999992132187 755
6.53999992087483 690
6.5599999204278 753
6.57999991998076 723
6.59999991953373 714
6.61999991908669 716
6.63999991863966 734
6.65999991819262 753
6.67999991774559 778
6.69999991729855 776
6.71999991685152 804
6.73999991640449 777
6.75999991595745 790
6.77999991551042 802
6.79999991506338 743
6.81999991461635 780
6.83999991416931 832
6.85999991372228 784
6.87999991327524 839
6.89999991282821 779
6.91999991238117 825
6.93999991193414 732
6.9599999114871 819
6.97999991104007 744
6.99999991059303 754
7.019999910146 803
7.03999990969896 761
7.05999990925193 783
7.07999990880489 794
7.09999990835786 760
7.11999990791082 779
7.13999990746379 821
7.15999990701675 724
7.17999990656972 774
7.19999990612268 813
7.21999990567565 784
7.23999990522861 749
7.25999990478158 723
7.27999990433454 806
7.29999990388751 761
7.31999990344047 754
7.33999990299344 733
7.35999990254641 769
7.37999990209937 766
7.39999990165234 725
7.4199999012053 730
7.43999990075827 737
7.45999990031123 759
7.4799998998642 795
7.49999989941716 721
7.51999989897013 730
7.53999989852309 742
7.55999989807606 723
7.57999989762902 730
7.59999989718199 728
7.61999989673495 732
7.63999989628792 755
7.65999989584088 789
7.67999989539385 715
7.69999989494681 700
7.71999989449978 698
7.73999989405274 699
7.75999989360571 720
7.77999989315867 722
7.79999989271164 722
7.8199998922646 752
7.83999989181757 671
7.85999989137053 734
7.8799998909235 740
7.89999989047646 752
7.91999989002943 701
7.9399998895824 749
7.95999988913536 733
7.97999988868833 762
7.99999988824129 709
8.01999988779426 728
8.03999988734722 716
8.05999988690019 742
8.07999988645315 773
8.09999988600612 757
8.11999988555908 775
8.13999988511205 764
8.15999988466501 769
8.17999988421798 756
8.19999988377094 748
8.21999988332391 782
8.23999988287687 801
8.25999988242984 793
8.2799998819828 775
8.29999988153577 806
8.31999988108873 843
8.3399998806417 786
8.35999988019466 816
8.37999987974763 814
8.39999987930059 853
8.41999987885356 898
8.43999987840652 832
8.45999987795949 875
8.47999987751245 954
8.49999987706542 932
8.51999987661839 908
8.53999987617135 907
8.55999987572432 958
8.57999987527728 961
8.59999987483025 1044
8.61999987438321 1049
8.63999987393618 1109
8.65999987348914 1134
8.67999987304211 1265
8.69999987259507 1265
8.71999987214804 1313
8.739999871701 1365
8.75999987125397 1433
8.77999987080693 1544
8.7999998703599 1626
8.81999986991286 1694
8.83999986946583 1782
8.85999986901879 1923
8.87999986857176 2118
8.89999986812472 2223
8.91999986767769 2518
8.93999986723065 2672
8.95999986678362 2722
8.97999986633658 2506
8.99999986588955 2429
9.01999986544251 2315
9.03999986499548 2249
9.05999986454844 2150
9.07999986410141 2094
9.09999986365438 1937
9.11999986320734 1934
9.13999986276031 1842
9.15999986231327 1744
9.17999986186624 1713
9.1999998614192 1721
9.21999986097217 1685
9.23999986052513 1696
9.2599998600781 1667
9.27999985963106 1627
9.29999985918403 1626
9.31999985873699 1638
9.33999985828996 1710
9.35999985784292 1586
9.37999985739589 1545
9.39999985694885 1497
9.41999985650182 1439
9.43999985605478 1382
9.45999985560775 1335
9.47999985516071 1273
9.49999985471368 1307
9.51999985426664 1249
9.53999985381961 1255
9.55999985337257 1243
9.57999985292554 1247
9.5999998524785 1204
9.61999985203147 1284
9.63999985158443 1298
9.6599998511374 1363
9.67999985069037 1378
9.69999985024333 1424
9.7199998497963 1493
9.73999984934926 1500
9.75999984890223 1574
9.77999984845519 1637
9.79999984800816 1703
9.81999984756112 1759
9.83999984711409 1893
9.85999984666705 1983
9.87999984622002 2172
9.89999984577298 2215
9.91999984532595 2395
9.93999984487891 2469
9.95999984443188 2515
9.97999984398484 2546
9.99999984353781 2499
10.0199998430908 2326
10.0399998426437 2054
10.0599998421967 1897
10.0799998417497 1701
10.0999998413026 1618
10.1199998408556 1463
10.1399998404086 1393
10.1599998399615 1292
10.1799998395145 1267
10.1999998390675 1222
10.2199998386204 1168
10.2399998381734 1149
10.2599998377264 1124
10.2799998372793 1102
10.2999998368323 1060
10.3199998363853 1047
10.3399998359382 1041
10.3599998354912 994
10.3799998350441 1048
10.3999998345971 1001
10.4199998341501 967
10.439999833703 1019
10.459999833256 1042
10.479999832809 974
10.4999998323619 1011
10.5199998319149 1028
10.5399998314679 1020
10.5599998310208 964
10.5799998305738 1004
10.5999998301268 960
10.6199998296797 979
10.6399998292327 974
10.6599998287857 1027
10.6799998283386 1046
10.6999998278916 1025
10.7199998274446 992
10.7399998269975 1039
10.7599998265505 1005
10.7799998261034 1051
10.7999998256564 1073
10.8199998252094 945
10.8399998247623 1070
10.8599998243153 1049
10.8799998238683 995
10.8999998234212 973
10.9199998229742 989
10.9399998225272 1008
10.9599998220801 917
10.9799998216331 891
10.9999998211861 895
11.019999820739 834
11.039999820292 802
11.059999819845 792
11.0799998193979 782
11.0999998189509 777
11.1199998185039 717
11.1399998180568 747
11.1599998176098 738
11.1799998171628 683
11.1999998167157 668
11.2199998162687 708
11.2399998158216 716
11.2599998153746 662
11.2799998149276 717
11.2999998144805 705
11.3199998140335 682
11.3399998135865 716
11.3599998131394 665
11.3799998126924 635
11.3999998122454 639
11.4199998117983 684
11.4399998113513 692
11.4599998109043 634
11.4799998104572 650
11.4999998100102 648
11.5199998095632 653
11.5399998091161 628
11.5599998086691 633
11.5799998082221 647
11.599999807775 607
11.619999807328 632
11.639999806881 583
11.6599998064339 637
11.6799998059869 661
11.6999998055398 626
11.7199998050928 636
11.7399998046458 642
11.7599998041987 586
11.7799998037517 647
11.7999998033047 579
11.8199998028576 604
11.8399998024106 669
11.8599998019636 624
11.8799998015165 607
11.8999998010695 603
11.9199998006225 593
11.9399998001754 645
11.9599997997284 610
11.9799997992814 605
11.9999997988343 604
12.0199997983873 574
12.0399997979403 606
12.0599997974932 592
12.0799997970462 610
12.0999997965992 599
12.1199997961521 660
12.1399997957051 627
12.159999795258 672
12.179999794811 608
12.199999794364 633
12.2199997939169 629
12.2399997934699 629
12.2599997930229 630
12.2799997925758 645
12.2999997921288 646
12.3199997916818 693
12.3399997912347 700
12.3599997907877 717
12.3799997903407 691
12.3999997898936 714
12.4199997894466 788
12.4399997889996 793
12.4599997885525 844
12.4799997881055 922
12.4999997876585 962
12.5199997872114 1005
12.5399997867644 1147
12.5599997863173 1278
12.5799997858703 1284
12.5999997854233 1356
12.6199997849762 1391
12.6399997845292 1455
12.6599997840822 1384
12.6799997836351 1296
12.6999997831881 1279
12.7199997827411 1200
12.739999782294 1096
12.759999781847 1014
12.7799997814 960
12.7999997809529 813
12.8199997805059 818
12.8399997800589 814
12.8599997796118 795
12.8799997791648 713
12.8999997787178 725
12.9199997782707 742
12.9399997778237 684
12.9599997773767 740
12.9799997769296 672
12.9999997764826 670
13.0199997760355 670
13.0399997755885 709
13.0599997751415 698
13.0799997746944 649
13.0999997742474 664
13.1199997738004 675
13.1399997733533 667
13.1599997729063 656
13.1799997724593 693
13.1999997720122 709
13.2199997715652 698
13.2399997711182 644
13.2599997706711 672
13.2799997702241 705
13.2999997697771 745
13.31999976933 668
13.339999768883 714
13.359999768436 637
13.3799997679889 710
13.3999997675419 611
13.4199997670949 703
13.4399997666478 660
13.4599997662008 579
13.4799997657537 672
13.4999997653067 633
13.5199997648597 632
13.5399997644126 657
13.5599997639656 635
13.5799997635186 696
13.5999997630715 682
13.6199997626245 602
13.6399997621775 650
13.6599997617304 638
13.6799997612834 613
13.6999997608364 623
13.7199997603893 672
13.7399997599423 604
13.7599997594953 654
13.7799997590482 667
13.7999997586012 608
13.8199997581542 651
13.8399997577071 619
13.8599997572601 644
13.879999756813 603
13.899999756366 659
13.919999755919 639
13.9399997554719 629
13.9599997550249 616
13.9799997545779 646
13.9999997541308 617
14.0199997536838 608
14.0399997532368 609
14.0599997527897 638
14.0799997523427 650
14.0999997518957 644
14.1199997514486 602
14.1399997510016 615
14.1599997505546 625
14.1799997501075 682
14.1999997496605 658
14.2199997492135 635
14.2399997487664 615
14.2599997483194 666
14.2799997478724 668
14.2999997474253 657
14.3199997469783 666
14.3399997465312 679
14.3599997460842 687
14.3799997456372 692
14.3999997451901 679
14.4199997447431 665
14.4399997442961 670
14.459999743849 703
14.479999743402 665
14.499999742955 691
14.5199997425079 675
14.5399997420609 724
14.5599997416139 759
14.5799997411668 682
14.5999997407198 690
14.6199997402728 704
14.6399997398257 702
14.6599997393787 659
14.6799997389317 684
14.6999997384846 697
14.7199997380376 658
14.7399997375906 655
14.7599997371435 691
14.7799997366965 667
14.7999997362494 660
14.8199997358024 649
14.8399997353554 663
14.8599997349083 628
14.8799997344613 661
14.8999997340143 654
14.9199997335672 625
14.9399997331202 627
14.9599997326732 658
14.9799997322261 631
14.9999997317791 613
15.0199997313321 648
15.039999730885 645
15.059999730438 616
15.079999729991 656
15.0999997295439 654
15.1199997290969 668
15.1399997286499 651
15.1599997282028 642
15.1799997277558 663
15.1999997273088 658
15.2199997268617 667
15.2399997264147 638
15.2599997259676 638
15.2799997255206 652
15.2999997250736 658
15.3199997246265 645
15.3399997241795 683
15.3599997237325 636
15.3799997232854 619
15.3999997228384 667
15.4199997223914 632
15.4399997219443 634
15.4599997214973 637
15.4799997210503 670
15.4999997206032 631
15.5199997201562 664
15.5399997197092 659
15.5599997192621 644
15.5799997188151 668
15.5999997183681 634
15.619999717921 646
15.639999717474 679
15.659999717027 697
15.6799997165799 628
15.6999997161329 665
15.7199997156858 650
15.7399997152388 660
15.7599997147918 677
15.7799997143447 680
15.7999997138977 669
15.8199997134507 669
15.8399997130036 627
15.8599997125566 632
15.8799997121096 656
15.8999997116625 668
15.9199997112155 664
15.9399997107685 669
15.9599997103214 700
15.9799997098744 659
15.9999997094274 671
16.0199997089803 690
16.0399997085333 718
16.0599997080863 695
16.0799997076392 663
16.0999997071922 667
16.1199997067451 700
16.1399997062981 678
16.1599997058511 657
16.179999705404 693
16.199999704957 691
16.21999970451 685
16.2399997040629 653
16.2599997036159 662
16.2799997031689 672
16.2999997027218 683
16.3199997022748 686
16.3399997018278 707
16.3599997013807 738
16.3799997009337 760
16.3999997004867 681
16.4199997000396 736
16.4399996995926 745
16.4599996991456 713
16.4799996986985 716
16.4999996982515 732
16.5199996978045 733
16.5399996973574 740
16.5599996969104 676
16.5799996964633 729
16.5999996960163 710
16.6199996955693 728
16.6399996951222 712
16.6599996946752 720
16.6799996942282 754
16.6999996937811 755
16.7199996933341 770
16.7399996928871 805
16.75999969244 861
16.779999691993 837
16.799999691546 929
16.8199996910989 898
16.8399996906519 964
16.8599996902049 1017
16.8799996897578 1069
16.8999996893108 1203
16.9199996888638 1288
16.9399996884167 1339
16.9599996879697 1453
16.9799996875226 1430
16.9999996870756 1373
17.0199996866286 1294
17.0399996861815 1202
17.0599996857345 1009
17.0799996852875 915
17.0999996848404 868
17.1199996843934 797
17.1399996839464 743
17.1599996834993 756
17.1799996830523 751
17.1999996826053 772
17.2199996821582 769
17.2399996817112 777
17.2599996812642 755
17.2799996808171 764
17.2999996803701 722
17.3199996799231 724
17.339999679476 754
17.359999679029 758
17.379999678582 802
17.3999996781349 752
17.4199996776879 801
17.4399996772408 770
17.4599996767938 762
17.4799996763468 761
17.4999996758997 772
17.5199996754527 760
17.5399996750057 762
17.5599996745586 759
17.5799996741116 747
17.5999996736646 780
17.6199996732175 770
17.6399996727705 790
17.6599996723235 814
17.6799996718764 780
17.6999996714294 871
17.7199996709824 837
17.7399996705353 785
17.7599996700883 807
17.7799996696413 832
17.7999996691942 827
17.8199996687472 831
17.8399996683002 854
17.8599996678531 840
17.8799996674061 882
17.899999666959 859
17.919999666512 805
17.939999666065 827
17.9599996656179 812
17.9799996651709 815
17.9999996647239 828
18.0199996642768 852
18.0399996638298 850
18.0599996633828 845
18.0799996629357 863
18.0999996624887 842
18.1199996620417 864
18.1399996615946 875
18.1599996611476 887
18.1799996607006 899
18.1999996602535 926
18.2199996598065 837
18.2399996593595 883
18.2599996589124 890
18.2799996584654 874
18.2999996580184 953
18.3199996575713 896
18.3399996571243 935
18.3599996566772 932
18.3799996562302 933
18.3999996557832 922
18.4199996553361 908
18.4399996548891 904
18.4599996544421 879
18.479999653995 896
18.499999653548 890
18.519999653101 902
18.5399996526539 876
18.5599996522069 944
18.5799996517599 925
18.5999996513128 969
18.6199996508658 921
18.6399996504188 870
18.6599996499717 920
18.6799996495247 929
18.6999996490777 861
18.7199996486306 932
18.7399996481836 936
18.7599996477366 926
18.7799996472895 930
18.7999996468425 880
18.8199996463954 963
18.8399996459484 956
18.8599996455014 873
18.8799996450543 887
18.8999996446073 906
18.9199996441603 957
18.9399996437132 909
18.9599996432662 924
18.9799996428192 939
18.9999996423721 913
19.0199996419251 915
19.0399996414781 935
19.059999641031 886
19.079999640584 937
19.099999640137 940
19.1199996396899 964
19.1399996392429 903
19.1599996387959 957
19.1799996383488 957
19.1999996379018 941
19.2199996374547 920
19.2399996370077 967
19.2599996365607 957
19.2799996361136 980
19.2999996356666 918
19.3199996352196 942
19.3399996347725 991
19.3599996343255 941
19.3799996338785 970
19.3999996334314 971
19.4199996329844 940
19.4399996325374 944
19.4599996320903 953
19.4799996316433 987
19.4999996311963 958
19.5199996307492 958
19.5399996303022 1007
19.5599996298552 986
19.5799996294081 1014
19.5999996289611 991
19.6199996285141 1025
19.639999628067 973
19.65999962762 977
19.6799996271729 1028
19.6999996267259 1085
19.7199996262789 1026
19.7399996258318 1002
19.7599996253848 1049
19.7799996249378 1055
19.7999996244907 1015
19.8199996240437 1137
19.8399996235967 1128
19.8599996231496 1203
19.8799996227026 1169
19.8999996222556 1220
19.9199996218085 1246
19.9399996213615 1343
19.9599996209145 1222
19.9799996204674 1246
19.9999996200204 1211
