3 2186
3.01999999955297 2025
3.03999999910593 1928
3.0599999986589 1749
3.07999999821186 1668
3.09999999776483 1548
3.11999999731779 1550
3.13999999687076 1504
3.15999999642372 1503
3.17999999597669 1407
3.19999999552965 1366
3.21999999508262 1442
3.23999999463558 1394
3.25999999418855 1334
3.27999999374151 1310
3.29999999329448 1267
3.31999999284744 1378
3.33999999240041 1309
3.35999999195337 1330
3.37999999150634 1237
3.3999999910593 1242
3.41999999061227 1218
3.43999999016523 1216
3.4599999897182 1240
3.47999998927116 1276
3.49999998882413 1150
3.51999998837709 1161
3.53999998793006 1103
3.55999998748302 1159
3.57999998703599 1177
3.59999998658895 1084
3.61999998614192 1189
3.63999998569489 1089
3.65999998524785 1141
3.67999998480082 1045
3.69999998435378 1056
3.71999998390675 1072
3.73999998345971 997
3.75999998301268 965
3.77999998256564 987
3.79999998211861 955
3.81999998167157 1048
3.83999998122454 1031
3.8599999807775 951
3.87999998033047 914
3.89999997988343 1005
3.9199999794364 916
3.93999997898936 944
3.95999997854233 936
3.97999997809529 906
3.99999997764826 916
4.01999997720122 981
4.03999997675419 863
4.05999997630715 911
4.07999997586012 903
4.09999997541308 928
4.11999997496605 896
4.13999997451901 897
4.15999997407198 838
4.17999997362494 887
4.19999997317791 874
4.21999997273087 846
4.23999997228384 847
4.25999997183681 821
4.27999997138977 842
4.29999997094274 853
4.3199999704957 828
4.33999997004867 815
4.35999996960163 836
4.3799999691546 826
4.39999996870756 741
4.41999996826053 813
4.43999996781349 844
4.45999996736646 807
4.47999996691942 815
4.49999996647239 816
4.51999996602535 863
4.53999996557832 789
4.55999996513128 834
4.57999996468425 816
4.59999996423721 776
4.61999996379018 805
4.63999996334314 815
4.65999996289611 821
4.67999996244907 775
4.69999996200204 765
4.719999961555 783
4.73999996110797 832
4.75999996066093 794
4.7799999602139 763
4.79999995976686 802
4.81999995931983 832
4.83999995887279 872
4.85999995842576 847
4.87999995797873 846
4.89999995753169 874
4.91999995708466 889
4.93999995663762 945
4.95999995619059 912
4.97999995574355 897
4.99999995529652 954
5.01999995484948 947
5.03999995440245 995
5.05999995395541 1011
5.07999995350838 1096
5.09999995306134 1061
5.11999995261431 1147
5.13999995216727 1174
5.15999995172024 1220
5.1799999512732 1306
5.19999995082617 1367
5.21999995037913 1323
5.2399999499321 1489
5.25999994948506 1611
5.27999994903803 1671
5.29999994859099 1829
5.31999994814396 1968
5.33999994769692 2175
5.35999994724989 2361
5.37999994680285 2620
5.39999994635582 3014
5.41999994590878 3524
5.43999994546175 3912
5.45999994501471 4250
5.47999994456768 4179
5.49999994412065 3939
5.51999994367361 3394
5.53999994322658 2861
5.55999994277954 2377
5.57999994233251 2116
5.59999994188547 1950
5.61999994143844 1766
5.6399999409914 1604
5.65999994054437 1464
5.67999994009733 1434
5.6999999396503 1344
5.71999993920326 1335
5.73999993875623 1220
5.75999993830919 1185
5.77999993786216 1181
5.79999993741512 1124
5.81999993696809 1016
5.83999993652105 976
5.85999993607402 955
5.87999993562698 923
5.89999993517995 941
5.91999993473291 899
5.93999993428588 909
5.95999993383884 839
5.97999993339181 784
5.99999993294477 825
6.01999993249774 806
6.0399999320507 801
6.05999993160367 777
6.07999993115663 801
6.0999999307096 736
6.11999993026257 718
6.13999992981553 749
6.1599999293685 688
6.17999992892146 689
6.19999992847443 689
6.21999992802739 712
6.23999992758036 641
6.25999992713332 664
6.27999992668629 698
6.29999992623925 635
6.31999992579222 672
6.33999992534518 622
6.35999992489815 620
6.37999992445111 646
6.39999992400408 615
6.41999992355704 624
6.43999992311001 667
6.45999992266297 641
6.47999992221594 665
6.4999999217689 647
6.51999992132187 641
6.53999992087483 641
6.5599999204278 658
6.57999991998076 639
6.59999991953373 642
6.61999991908669 632
6.63999991863966 621
6.65999991819262 620
6.67999991774559 653
6.69999991729855 630
6.71999991685152 574
6.73999991640449 620
6.75999991595745 588
6.77999991551042 645
6.79999991506338 577
6.81999991461635 668
6.83999991416931 580
6.85999991372228 603
6.87999991327524 572
6.89999991282821 595
6.91999991238117 569
6.93999991193414 565
6.9599999114871 590
6.97999991104007 601
6.99999991059303 570
7.019999910146 619
7.03999990969896 568
7.05999990925193 581
7.07999990880489 575
7.09999990835786 587
7.11999990791082 586
7.13999990746379 562
7.15999990701675 601
7.17999990656972 574
7.19999990612268 599
7.21999990567565 654
7.23999990522861 562
7.25999990478158 573
7.27999990433454 587
7.29999990388751 582
7.31999990344047 610
7.33999990299344 570
7.35999990254641 572
7.37999990209937 572
7.39999990165234 558
7.4199999012053 573
7.43999990075827 598
7.45999990031123 584
7.4799998998642 578
7.49999989941716 575
7.51999989897013 605
7.53999989852309 583
7.55999989807606 571
7.57999989762902 568
7.59999989718199 608
7.61999989673495 585
7.63999989628792 578
7.65999989584088 568
7.67999989539385 562
7.69999989494681 568
7.71999989449978 572
7.73999989405274 593
7.75999989360571 582
7.77999989315867 605
7.79999989271164 575
7.8199998922646 577
7.83999989181757 603
7.85999989137053 551
7.8799998909235 572
7.89999989047646 555
7.91999989002943 570
7.9399998895824 598
7.95999988913536 590
7.97999988868833 561
7.99999988824129 553
8.01999988779426 517
8.03999988734722 592
8.05999988690019 560
8.07999988645315 616
8.09999988600612 572
8.11999988555908 597
8.13999988511205 569
8.15999988466501 548
8.17999988421798 564
8.19999988377094 599
8.21999988332391 592
8.23999988287687 524
8.25999988242984 553
8.2799998819828 534
8.29999988153577 529
8.31999988108873 546
8.3399998806417 542
8.35999988019466 532
8.37999987974763 562
8.39999987930059 582
8.41999987885356 528
8.43999987840652 562
8.45999987795949 567
8.47999987751245 602
8.49999987706542 555
8.51999987661839 571
8.53999987617135 590
8.55999987572432 564
8.57999987527728 513
8.59999987483025 559
8.61999987438321 524
8.63999987393618 523
8.65999987348914 528
8.67999987304211 545
8.69999987259507 549
8.71999987214804 556
8.739999871701 538
8.75999987125397 554
8.77999987080693 559
8.7999998703599 585
8.81999986991286 566
8.83999986946583 538
8.85999986901879 576
8.87999986857176 535
8.89999986812472 581
8.91999986767769 575
8.93999986723065 604
8.95999986678362 597
8.97999986633658 588
8.99999986588955 582
9.01999986544251 641
9.03999986499548 611
9.05999986454844 640
9.07999986410141 606
9.09999986365438 654
9.11999986320734 660
9.13999986276031 634
9.15999986231327 720
9.17999986186624 759
9.1999998614192 782
9.21999986097217 819
9.23999986052513 872
9.2599998600781 938
9.27999985963106 927
9.29999985918403 1074
9.31999985873699 1152
9.33999985828996 1396
9.35999985784292 1499
9.37999985739589 1486
9.39999985694885 1421
9.41999985650182 1278
9.43999985605478 1075
9.45999985560775 952
9.47999985516071 828
9.49999985471368 766
9.51999985426664 723
9.53999985381961 729
9.55999985337257 701
9.57999985292554 649
9.5999998524785 651
9.61999985203147 604
9.63999985158443 625
9.6599998511374 610
9.67999985069037 575
9.69999985024333 587
9.7199998497963 568
9.73999984934926 539
9.75999984890223 587
9.77999984845519 604
9.79999984800816 569
9.81999984756112 637
9.83999984711409 575
9.85999984666705 565
9.87999984622002 564
9.89999984577298 589
9.91999984532595 610
9.93999984487891 548
9.95999984443188 557
9.97999984398484 577
9.99999984353781 568
10.0199998430908 556
10.0399998426437 549
10.0599998421967 613
10.0799998417497 563
10.0999998413026 575
10.1199998408556 601
10.1399998404086 529
10.1599998399615 577
10.1799998395145 564
10.1999998390675 565
10.2199998386204 555
10.2399998381734 586
10.2599998377264 556
10.2799998372793 576
10.2999998368323 531
10.3199998363853 564
10.3399998359382 548
10.3599998354912 621
10.3799998350441 545
10.3999998345971 547
10.4199998341501 549
10.439999833703 620
10.459999833256 561
10.479999832809 542
10.4999998323619 582
10.5199998319149 595
10.5399998314679 577
10.5599998310208 591
10.5799998305738 637
10.5999998301268 617
10.6199998296797 647
10.6399998292327 682
10.6599998287857 671
10.6799998283386 665
10.6999998278916 731
10.7199998274446 749
10.7399998269975 752
10.7599998265505 889
10.7799998261034 982
10.7999998256564 1001
10.8199998252094 1044
10.8399998247623 1077
10.8599998243153 979
10.8799998238683 994
10.8999998234212 900
10.9199998229742 891
10.9399998225272 766
10.9599998220801 829
10.9799998216331 750
10.9999998211861 766
11.019999820739 783
11.039999820292 700
11.059999819845 671
11.0799998193979 641
11.0999998189509 636
11.1199998185039 627
11.1399998180568 631
11.1599998176098 573
11.1799998171628 617
11.1999998167157 565
11.2199998162687 598
11.2399998158216 588
11.2599998153746 518
11.2799998149276 525
11.2999998144805 552
11.3199998140335 599
11.3399998135865 541
11.3599998131394 575
11.3799998126924 584
11.3999998122454 626
11.4199998117983 550
11.4399998113513 535
11.4599998109043 565
11.4799998104572 569
11.4999998100102 532
11.5199998095632 548
11.5399998091161 517
11.5599998086691 486
11.5799998082221 570
11.599999807775 559
11.619999807328 562
11.639999806881 588
11.6599998064339 544
11.6799998059869 575
11.6999998055398 595
11.7199998050928 552
11.7399998046458 526
11.7599998041987 566
11.7799998037517 556
11.7999998033047 558
11.8199998028576 545
11.8399998024106 542
11.8599998019636 546
11.8799998015165 501
11.8999998010695 528
11.9199998006225 524
11.9399998001754 541
11.9599997997284 547
11.9799997992814 559
11.9999997988343 539
12.0199997983873 549
12.0399997979403 560
12.0599997974932 528
12.0799997970462 585
12.0999997965992 536
12.1199997961521 536
12.1399997957051 517
12.159999795258 547
12.179999794811 593
12.199999794364 564
12.2199997939169 605
12.2399997934699 579
12.2599997930229 618
12.2799997925758 597
12.2999997921288 612
12.3199997916818 612
12.3399997912347 642
12.3599997907877 615
12.3799997903407 601
12.3999997898936 622
12.4199997894466 629
12.4399997889996 534
12.4599997885525 641
12.4799997881055 601
12.4999997876585 599
12.5199997872114 577
12.5399997867644 567
12.5599997863173 552
12.5799997858703 554
12.5999997854233 613
12.6199997849762 588
12.6399997845292 562
12.6599997840822 564
12.6799997836351 540
12.6999997831881 569
12.7199997827411 544
12.739999782294 542
12.759999781847 524
12.7799997814 563
12.7999997809529 590
12.8199997805059 585
12.8399997800589 576
12.8599997796118 537
12.8799997791648 564
12.8999997787178 615
12.9199997782707 586
12.9399997778237 581
12.9599997773767 552
12.9799997769296 606
12.9999997764826 565
13.0199997760355 602
13.0399997755885 599
13.0599997751415 609
13.0799997746944 591
13.0999997742474 597
13.1199997738004 584
13.1399997733533 556
13.1599997729063 560
13.1799997724593 597
13.1999997720122 538
13.2199997715652 571
13.2399997711182 541
13.2599997706711 603
13.2799997702241 626
13.2999997697771 597
13.31999976933 565
13.339999768883 626
13.359999768436 579
13.3799997679889 602
13.3999997675419 610
13.4199997670949 580
13.4399997666478 629
13.4599997662008 615
13.4799997657537 579
13.4999997653067 588
13.5199997648597 635
13.5399997644126 596
13.5599997639656 627
13.5799997635186 553
13.5999997630715 614
13.6199997626245 580
13.6399997621775 556
13.6599997617304 579
13.6799997612834 599
13.6999997608364 609
13.7199997603893 609
13.7399997599423 583
13.7599997594953 632
13.7799997590482 603
13.7999997586012 602
13.8199997581542 635
13.8399997577071 596
13.8599997572601 543
13.879999756813 609
13.899999756366 588
13.919999755919 591
13.9399997554719 585
13.9599997550249 600
13.9799997545779 583
13.9999997541308 568
14.0199997536838 634
14.0399997532368 648
14.0599997527897 606
14.0799997523427 559
14.0999997518957 608
14.1199997514486 596
14.1399997510016 603
14.1599997505546 593
14.1799997501075 621
14.1999997496605 622
14.2199997492135 587
14.2399997487664 634
14.2599997483194 626
14.2799997478724 686
14.2999997474253 606
14.3199997469783 619
14.3399997465312 697
14.3599997460842 631
14.3799997456372 635
14.3999997451901 642
14.4199997447431 609
14.4399997442961 650
14.459999743849 623
14.479999743402 657
14.499999742955 623
14.5199997425079 653
14.5399997420609 647
14.5599997416139 589
14.5799997411668 671
14.5999997407198 582
14.6199997402728 604
14.6399997398257 619
14.6599997393787 623
14.6799997389317 616
14.6999997384846 632
14.7199997380376 603
14.7399997375906 651
14.7599997371435 628
14.7799997366965 616
14.7999997362494 625
14.8199997358024 652
14.8399997353554 656
14.8599997349083 607
14.8799997344613 635
14.8999997340143 574
14.9199997335672 674
14.9399997331202 633
14.9599997326732 642
14.9799997322261 620
14.9999997317791 619
15.0199997313321 613
15.039999730885 630
15.059999730438 640
15.079999729991 668
15.0999997295439 693
15.1199997290969 638
15.1399997286499 638
15.1599997282028 632
15.1799997277558 643
15.1999997273088 647
15.2199997268617 639
15.2399997264147 669
15.2599997259676 632
15.2799997255206 651
15.2999997250736 664
15.3199997246265 657
15.3399997241795 649
15.3599997237325 651
15.3799997232854 665
15.3999997228384 650
15.4199997223914 656
15.4399997219443 653
15.4599997214973 645
15.4799997210503 678
15.4999997206032 649
15.5199997201562 674
15.5399997197092 662
15.5599997192621 629
15.5799997188151 682
15.5999997183681 652
15.619999717921 672
15.639999717474 718
15.659999717027 679
15.6799997165799 681
15.6999997161329 703
15.7199997156858 727
15.7399997152388 650
15.7599997147918 675
15.7799997143447 672
15.7999997138977 684
15.8199997134507 674
15.8399997130036 705
15.8599997125566 715
15.8799997121096 658
15.8999997116625 690
15.9199997112155 661
15.9399997107685 637
15.9599997103214 709
15.9799997098744 742
15.9999997094274 681
16.0199997089803 708
16.0399997085333 689
16.0599997080863 642
16.0799997076392 667
16.0999997071922 663
16.1199997067451 691
16.1399997062981 719
16.1599997058511 736
16.179999705404 696
16.199999704957 724
16.21999970451 718
16.2399997040629 688
16.2599997036159 718
16.2799997031689 727
16.2999997027218 763
16.3199997022748 721
16.3399997018278 714
16.3599997013807 706
16.3799997009337 785
16.3999997004867 770
16.4199997000396 664
16.4399996995926 756
16.4599996991456 709
16.4799996986985 745
16.4999996982515 686
16.5199996978045 718
16.5399996973574 720
16.5599996969104 737
16.5799996964633 792
16.5999996960163 710
16.6199996955693 751
16.6399996951222 754
16.6599996946752 765
16.6799996942282 738
16.6999996937811 741
16.7199996933341 782
16.7399996928871 778
16.75999969244 763
16.779999691993 826
16.799999691546 785
16.8199996910989 772
16.8399996906519 817
16.8599996902049 816
16.8799996897578 826
16.8999996893108 852
16.9199996888638 890
16.9399996884167 869
16.9599996879697 886
16.9799996875226 959
16.9999996870756 987
17.0199996866286 994
17.0399996861815 983
17.0599996857345 1026
17.0799996852875 950
17.0999996848404 858
17.1199996843934 848
17.1399996839464 898
17.1599996834993 817
17.1799996830523 781
17.1999996826053 841
17.2199996821582 861
17.2399996817112 856
17.2599996812642 849
17.2799996808171 782
17.2999996803701 810
17.3199996799231 855
17.339999679476 853
17.359999679029 795
17.379999678582 821
17.3999996781349 898
17.4199996776879 869
17.4399996772408 834
17.4599996767938 847
17.4799996763468 817
17.4999996758997 819
17.5199996754527 818
17.5399996750057 801
17.5599996745586 855
17.5799996741116 831
17.5999996736646 831
17.6199996732175 856
17.6399996727705 846
17.6599996723235 813
17.6799996718764 849
17.6999996714294 858
17.7199996709824 832
17.7399996705353 894
17.7599996700883 805
17.7799996696413 841
17.7999996691942 843
17.8199996687472 882
17.8399996683002 892
17.8599996678531 873
17.8799996674061 869
17.899999666959 881
17.919999666512 844
17.939999666065 817
17.9599996656179 863
17.9799996651709 867
17.9999996647239 868
18.0199996642768 876
18.0399996638298 880
18.0599996633828 879
18.0799996629357 948
18.0999996624887 878
18.1199996620417 871
18.1399996615946 920
18.1599996611476 890
18.1799996607006 864
18.1999996602535 863
18.2199996598065 903
18.2399996593595 876
18.2599996589124 846
18.2799996584654 907
18.2999996580184 934
18.3199996575713 920
18.3399996571243 906
18.3599996566772 926
18.3799996562302 913
18.3999996557832 895
18.4199996553361 895
18.4399996548891 915
18.4599996544421 940
18.479999653995 885
18.499999653548 923
18.519999653101 930
18.5399996526539 932
18.5599996522069 932
18.5799996517599 938
18.5999996513128 972
18.6199996508658 975
18.6399996504188 973
18.6599996499717 1018
18.6799996495247 1002
18.6999996490777 1033
18.7199996486306 1013
18.7399996481836 1014
18.7599996477366 1002
18.7799996472895 1031
18.7999996468425 962
18.8199996463954 955
18.8399996459484 975
18.8599996455014 1002
18.8799996450543 1035
18.8999996446073 1027
18.9199996441603 1024
18.9399996437132 989
18.9599996432662 1000
18.9799996428192 1038
18.9999996423721 1020
19.0199996419251 1028
19.0399996414781 1039
19.059999641031 1014
19.079999640584 1050
19.099999640137 1054
19.1199996396899 1042
19.1399996392429 1003
19.1599996387959 1003
19.1799996383488 1035
19.1999996379018 1034
19.2199996374547 1066
19.2399996370077 1018
19.2599996365607 1027
19.2799996361136 1035
19.2999996356666 1085
19.3199996352196 1208
19.3399996347725 1054
19.3599996343255 1037
19.3799996338785 1112
19.3999996334314 1132
19.4199996329844 1124
19.4399996325374 1318
19.4599996320903 1239
19.4799996316433 1257
19.4999996311963 1310
19.5199996307492 1302
19.5399996303022 1272
19.5599996298552 1218
19.5799996294081 1265
19.5999996289611 1152
19.6199996285141 1215
19.639999628067 1138
19.65999962762 1164
19.6799996271729 1142
19.6999996267259 1096
19.7199996262789 1133
19.7399996258318 1149
19.7599996253848 1169
19.7799996249378 1120
19.7999996244907 1114
19.8199996240437 1143
19.8399996235967 1119
19.8599996231496 1121
19.8799996227026 1126
19.8999996222556 1082
19.9199996218085 1106
19.9399996213615 1129
19.9599996209145 1116
19.9799996204674 1116
19.9999996200204 1187
