3 2214
3.01999999955297 2014
3.03999999910593 1873
3.0599999986589 1812
3.07999999821186 1648
3.09999999776483 1587
3.11999999731779 1527
3.13999999687076 1415
3.15999999642372 1406
3.17999999597669 1424
3.19999999552965 1457
3.21999999508262 1349
3.23999999463558 1292
3.25999999418855 1333
3.27999999374151 1305
3.29999999329448 1263
3.31999999284744 1282
3.33999999240041 1348
3.35999999195337 1208
3.37999999150634 1229
3.3999999910593 1225
3.41999999061227 1175
3.43999999016523 1267
3.4599999897182 1194
3.47999998927116 1156
3.49999998882413 1150
3.51999998837709 1087
3.53999998793006 1097
3.55999998748302 1104
3.57999998703599 1087
3.59999998658895 1069
3.61999998614192 1085
3.63999998569489 1011
3.65999998524785 1117
3.67999998480082 1063
3.69999998435378 1049
3.71999998390675 1028
3.73999998345971 969
3.75999998301268 981
3.77999998256564 958
3.79999998211861 1018
3.81999998167157 940
3.83999998122454 951
3.8599999807775 968
3.87999998033047 959
3.89999997988343 906
3.9199999794364 976
3.93999997898936 970
3.95999997854233 918
3.97999997809529 999
3.99999997764826 936
4.01999997720122 958
4.03999997675419 965
4.05999997630715 984
4.07999997586012 928
4.09999997541308 950
4.11999997496605 969
4.13999997451901 872
4.15999997407198 883
4.17999997362494 888
4.19999997317791 844
4.21999997273087 793
4.23999997228384 846
4.25999997183681 780
4.27999997138977 741
4.29999997094274 774
4.3199999704957 758
4.33999997004867 752
4.35999996960163 780
4.3799999691546 747
4.39999996870756 703
4.41999996826053 709
4.43999996781349 747
4.45999996736646 763
4.47999996691942 747
4.49999996647239 741
4.51999996602535 735
4.53999996557832 719
4.55999996513128 742
4.57999996468425 720
4.59999996423721 662
4.61999996379018 711
4.63999996334314 661
4.65999996289611 684
4.67999996244907 706
4.69999996200204 648
4.719999961555 664
4.73999996110797 690
4.75999996066093 653
4.7799999602139 647
4.79999995976686 712
4.81999995931983 676
4.83999995887279 672
4.85999995842576 636
4.87999995797873 639
4.89999995753169 652
4.91999995708466 678
4.93999995663762 625
4.95999995619059 700
4.97999995574355 701
4.99999995529652 651
5.01999995484948 696
5.03999995440245 686
5.05999995395541 654
5.07999995350838 631
5.09999995306134 674
5.11999995261431 685
5.13999995216727 692
5.15999995172024 767
5.1799999512732 705
5.19999995082617 734
5.21999995037913 748
5.2399999499321 735
5.25999994948506 791
5.27999994903803 794
5.29999994859099 773
5.31999994814396 880
5.33999994769692 886
5.35999994724989 951
5.37999994680285 971
5.39999994635582 1029
5.41999994590878 1021
5.43999994546175 980
5.45999994501471 927
5.47999994456768 925
5.49999994412065 862
5.51999994367361 919
5.53999994322658 898
5.55999994277954 978
5.57999994233251 1028
5.59999994188547 1056
5.61999994143844 1126
5.6399999409914 1197
5.65999994054437 1277
5.67999994009733 1384
5.6999999396503 1518
5.71999993920326 1808
5.73999993875623 2099
5.75999993830919 2154
5.77999993786216 2180
5.79999993741512 1879
5.81999993696809 1410
5.83999993652105 1145
5.85999993607402 890
5.87999993562698 728
5.89999993517995 690
5.91999993473291 668
5.93999993428588 628
5.95999993383884 683
5.97999993339181 581
5.99999993294477 589
6.01999993249774 601
6.0399999320507 644
6.05999993160367 579
6.07999993115663 637
6.0999999307096 644
6.11999993026257 591
6.13999992981553 598
6.1599999293685 575
6.17999992892146 603
6.19999992847443 652
6.21999992802739 627
6.23999992758036 613
6.25999992713332 636
6.27999992668629 593
6.29999992623925 609
6.31999992579222 622
6.33999992534518 612
6.35999992489815 613
6.37999992445111 621
6.39999992400408 604
6.41999992355704 613
6.43999992311001 657
6.45999992266297 622
6.47999992221594 648
6.4999999217689 645
6.51999992132187 644
6.53999992087483 697
6.5599999204278 716
6.57999991998076 714
6.59999991953373 772
6.61999991908669 780
6.63999991863966 811
6.65999991819262 754
6.67999991774559 741
6.69999991729855 737
6.71999991685152 702
6.73999991640449 749
6.75999991595745 654
6.77999991551042 694
6.79999991506338 618
6.81999991461635 627
6.83999991416931 591
6.85999991372228 589
6.87999991327524 567
6.89999991282821 560
6.91999991238117 575
6.93999991193414 562
6.9599999114871 529
6.97999991104007 543
6.99999991059303 561
7.019999910146 546
7.03999990969896 527
7.05999990925193 539
7.07999990880489 529
7.09999990835786 514
7.11999990791082 539
7.13999990746379 520
7.15999990701675 567
7.17999990656972 609
7.19999990612268 546
7.21999990567565 515
7.23999990522861 487
7.25999990478158 549
7.27999990433454 558
7.29999990388751 525
7.31999990344047 546
7.33999990299344 513
7.35999990254641 573
7.37999990209937 523
7.39999990165234 531
7.4199999012053 549
7.43999990075827 543
7.45999990031123 540
7.4799998998642 569
7.49999989941716 588
7.51999989897013 525
7.53999989852309 561
7.55999989807606 516
7.57999989762902 547
7.59999989718199 528
7.61999989673495 547
7.63999989628792 514
7.65999989584088 557
7.67999989539385 517
7.69999989494681 498
7.71999989449978 569
7.73999989405274 539
7.75999989360571 525
7.77999989315867 526
7.79999989271164 580
7.8199998922646 534
7.83999989181757 509
7.85999989137053 551
7.8799998909235 556
7.89999989047646 514
7.91999989002943 552
7.9399998895824 544
7.95999988913536 520
7.97999988868833 567
7.99999988824129 545
8.01999988779426 563
8.03999988734722 556
8.05999988690019 573
8.07999988645315 526
8.09999988600612 573
8.11999988555908 569
8.13999988511205 553
8.15999988466501 574
8.17999988421798 527
8.19999988377094 555
8.21999988332391 549
8.23999988287687 549
8.25999988242984 511
8.2799998819828 543
8.29999988153577 509
8.31999988108873 533
8.3399998806417 531
8.35999988019466 540
8.37999987974763 525
8.39999987930059 522
8.41999987885356 523
8.43999987840652 542
8.45999987795949 540
8.47999987751245 504
8.49999987706542 541
8.51999987661839 539
8.53999987617135 512
8.55999987572432 537
8.57999987527728 530
8.59999987483025 540
8.61999987438321 539
8.63999987393618 562
8.65999987348914 534
8.67999987304211 501
8.69999987259507 516
8.71999987214804 541
8.739999871701 515
8.75999987125397 533
8.77999987080693 557
8.7999998703599 494
8.81999986991286 551
8.83999986946583 516
8.85999986901879 546
8.87999986857176 500
8.89999986812472 613
8.91999986767769 562
8.93999986723065 541
8.95999986678362 565
8.97999986633658 555
8.99999986588955 595
9.01999986544251 607
9.03999986499548 618
9.05999986454844 636
9.07999986410141 616
9.09999986365438 630
9.11999986320734 670
9.13999986276031 682
9.15999986231327 684
9.17999986186624 749
9.1999998614192 775
9.21999986097217 835
9.23999986052513 905
9.2599998600781 1047
9.27999985963106 1257
9.29999985918403 1320
9.31999985873699 1322
9.33999985828996 1151
9.35999985784292 940
9.37999985739589 907
9.39999985694885 796
9.41999985650182 679
9.43999985605478 664
9.45999985560775 622
9.47999985516071 515
9.49999985471368 568
9.51999985426664 542
9.53999985381961 511
9.55999985337257 565
9.57999985292554 545
9.5999998524785 601
9.61999985203147 540
9.63999985158443 574
9.6599998511374 549
9.67999985069037 511
9.69999985024333 530
9.7199998497963 541
9.73999984934926 576
9.75999984890223 581
9.77999984845519 569
9.79999984800816 528
9.81999984756112 529
9.83999984711409 551
9.85999984666705 573
9.87999984622002 565
9.89999984577298 565
9.91999984532595 583
9.93999984487891 550
9.95999984443188 555
9.97999984398484 530
9.99999984353781 541
10.0199998430908 579
10.0399998426437 572
10.0599998421967 639
10.0799998417497 622
10.0999998413026 655
10.1199998408556 672
10.1399998404086 736
10.1599998399615 698
10.1799998395145 696
10.1999998390675 671
10.2199998386204 572
10.2399998381734 574
10.2599998377264 586
10.2799998372793 554
10.2999998368323 522
10.3199998363853 535
10.3399998359382 478
10.3599998354912 552
10.3799998350441 574
10.3999998345971 542
10.4199998341501 551
10.439999833703 510
10.459999833256 509
10.479999832809 501
10.4999998323619 525
10.5199998319149 540
10.5399998314679 574
10.5599998310208 549
10.5799998305738 563
10.5999998301268 556
10.6199998296797 593
10.6399998292327 603
10.6599998287857 607
10.6799998283386 669
10.6999998278916 654
10.7199998274446 748
10.7399998269975 729
10.7599998265505 720
10.7799998261034 748
10.7999998256564 756
10.8199998252094 757
10.8399998247623 763
10.8599998243153 794
10.8799998238683 894
10.8999998234212 1040
10.9199998229742 1165
10.9399998225272 1144
10.9599998220801 1040
10.9799998216331 943
10.9999998211861 813
11.019999820739 757
11.039999820292 656
11.059999819845 663
11.0799998193979 564
11.0999998189509 575
11.1199998185039 552
11.1399998180568 541
11.1599998176098 565
11.1799998171628 540
11.1999998167157 561
11.2199998162687 583
11.2399998158216 569
11.2599998153746 572
11.2799998149276 575
11.2999998144805 579
11.3199998140335 588
11.3399998135865 600
11.3599998131394 646
11.3799998126924 628
11.3999998122454 700
11.4199998117983 749
11.4399998113513 798
11.4599998109043 823
11.4799998104572 797
11.4999998100102 744
11.5199998095632 698
11.5399998091161 669
11.5599998086691 623
11.5799998082221 637
11.599999807775 560
11.619999807328 554
11.639999806881 515
11.6599998064339 551
11.6799998059869 529
11.6999998055398 501
11.7199998050928 520
11.7399998046458 541
11.7599998041987 502
11.7799998037517 535
11.7999998033047 495
11.8199998028576 544
11.8399998024106 505
11.8599998019636 523
11.8799998015165 529
11.8999998010695 549
11.9199998006225 513
11.9399998001754 533
11.9599997997284 542
11.9799997992814 545
11.9999997988343 543
12.0199997983873 571
12.0399997979403 539
12.0599997974932 531
12.0799997970462 528
12.0999997965992 567
12.1199997961521 608
12.1399997957051 589
12.159999795258 628
12.179999794811 590
12.199999794364 644
12.2199997939169 576
12.2399997934699 558
12.2599997930229 598
12.2799997925758 509
12.2999997921288 573
12.3199997916818 555
12.3399997912347 559
12.3599997907877 525
12.3799997903407 514
12.3999997898936 503
12.4199997894466 552
12.4399997889996 590
12.4599997885525 530
12.4799997881055 530
12.4999997876585 499
12.5199997872114 533
12.5399997867644 508
12.5599997863173 489
12.5799997858703 500
12.5999997854233 539
12.6199997849762 528
12.6399997845292 513
12.6599997840822 505
12.6799997836351 535
12.6999997831881 544
12.7199997827411 530
12.739999782294 532
12.759999781847 546
12.7799997814 576
12.7999997809529 555
12.8199997805059 546
12.8399997800589 528
12.8599997796118 538
12.8799997791648 554
12.8999997787178 537
12.9199997782707 572
12.9399997778237 520
12.9599997773767 497
12.9799997769296 523
12.9999997764826 484
13.0199997760355 542
13.0399997755885 540
13.0599997751415 496
13.0799997746944 537
13.0999997742474 540
13.1199997738004 514
13.1399997733533 531
13.1599997729063 566
13.1799997724593 595
13.1999997720122 547
13.2199997715652 594
13.2399997711182 611
13.2599997706711 556
13.2799997702241 560
13.2999997697771 584
13.31999976933 552
13.339999768883 585
13.359999768436 538
13.3799997679889 536
13.3999997675419 549
13.4199997670949 571
13.4399997666478 581
13.4599997662008 590
13.4799997657537 559
13.4999997653067 505
13.5199997648597 546
13.5399997644126 591
13.5599997639656 510
13.5799997635186 512
13.5999997630715 514
13.6199997626245 525
13.6399997621775 567
13.6599997617304 530
13.6799997612834 545
13.6999997608364 592
13.7199997603893 549
13.7399997599423 566
13.7599997594953 546
13.7799997590482 509
13.7999997586012 525
13.8199997581542 546
13.8399997577071 551
13.8599997572601 551
13.879999756813 551
13.899999756366 557
13.919999755919 520
13.9399997554719 560
13.9599997550249 543
13.9799997545779 563
13.9999997541308 543
14.0199997536838 565
14.0399997532368 551
14.0599997527897 544
14.0799997523427 546
14.0999997518957 553
14.1199997514486 596
14.1399997510016 592
14.1599997505546 587
14.1799997501075 571
14.1999997496605 596
14.2199997492135 621
14.2399997487664 616
14.2599997483194 630
14.2799997478724 603
14.2999997474253 621
14.3199997469783 610
14.3399997465312 634
14.3599997460842 632
14.3799997456372 632
14.3999997451901 662
14.4199997447431 580
14.4399997442961 585
14.459999743849 610
14.479999743402 602
14.499999742955 644
14.5199997425079 605
14.5399997420609 582
14.5599997416139 607
14.5799997411668 586
14.5999997407198 596
14.6199997402728 623
14.6399997398257 631
14.6599997393787 583
14.6799997389317 612
14.6999997384846 570
14.7199997380376 585
14.7399997375906 633
14.7599997371435 635
14.7799997366965 649
14.7999997362494 610
14.8199997358024 680
14.8399997353554 621
14.8599997349083 620
14.8799997344613 650
14.8999997340143 629
14.9199997335672 568
14.9399997331202 580
14.9599997326732 594
14.9799997322261 604
14.9999997317791 577
15.0199997313321 607
15.039999730885 614
15.059999730438 602
15.079999729991 621
15.0999997295439 627
15.1199997290969 569
15.1399997286499 640
15.1599997282028 669
15.1799997277558 609
15.1999997273088 653
15.2199997268617 613
15.2399997264147 626
15.2599997259676 638
15.2799997255206 626
15.2999997250736 614
15.3199997246265 603
15.3399997241795 610
15.3599997237325 631
15.3799997232854 635
15.3999997228384 608
15.4199997223914 600
15.4399997219443 623
15.4599997214973 613
15.4799997210503 653
15.4999997206032 645
15.5199997201562 642
15.5399997197092 607
15.5599997192621 618
15.5799997188151 672
15.5999997183681 635
15.619999717921 587
15.639999717474 625
15.659999717027 624
15.6799997165799 634
15.6999997161329 597
15.7199997156858 641
15.7399997152388 635
15.7599997147918 606
15.7799997143447 652
15.7999997138977 600
15.8199997134507 651
15.8399997130036 623
15.8599997125566 657
15.8799997121096 618
15.8999997116625 634
15.9199997112155 637
15.9399997107685 641
15.9599997103214 627
15.9799997098744 629
15.9999997094274 651
16.0199997089803 673
16.0399997085333 693
16.0599997080863 665
16.0799997076392 633
16.0999997071922 687
16.1199997067451 692
16.1399997062981 695
16.1599997058511 709
16.179999705404 705
16.199999704957 744
16.21999970451 702
16.2399997040629 738
16.2599997036159 698
16.2799997031689 657
16.2999997027218 683
16.3199997022748 680
16.3399997018278 721
16.3599997013807 720
16.3799997009337 694
16.3999997004867 715
16.4199997000396 717
16.4399996995926 686
16.4599996991456 743
16.4799996986985 687
16.4999996982515 685
16.5199996978045 700
16.5399996973574 723
16.5599996969104 656
16.5799996964633 663
16.5999996960163 735
16.6199996955693 703
16.6399996951222 717
16.6599996946752 647
16.6799996942282 645
16.6999996937811 719
16.7199996933341 754
16.7399996928871 687
16.75999969244 697
16.779999691993 713
16.799999691546 721
16.8199996910989 752
16.8399996906519 702
16.8599996902049 740
16.8799996897578 807
16.8999996893108 821
16.9199996888638 890
16.9399996884167 864
16.9599996879697 862
16.9799996875226 850
16.9999996870756 849
17.0199996866286 799
17.0399996861815 774
17.0599996857345 776
17.0799996852875 768
17.0999996848404 745
17.1199996843934 819
17.1399996839464 777
17.1599996834993 783
17.1799996830523 808
17.1999996826053 801
17.2199996821582 878
17.2399996817112 781
17.2599996812642 778
17.2799996808171 839
17.2999996803701 875
17.3199996799231 808
17.339999679476 780
17.359999679029 797
17.379999678582 766
17.3999996781349 777
17.4199996776879 746
17.4399996772408 774
17.4599996767938 761
17.4799996763468 816
17.4999996758997 760
17.5199996754527 810
17.5399996750057 805
17.5599996745586 802
17.5799996741116 781
17.5999996736646 773
17.6199996732175 782
17.6399996727705 765
17.6599996723235 763
17.6799996718764 785
17.6999996714294 838
17.7199996709824 786
17.7399996705353 799
17.7599996700883 800
17.7799996696413 830
17.7999996691942 796
17.8199996687472 914
17.8399996683002 820
17.8599996678531 817
17.8799996674061 802
17.899999666959 838
17.919999666512 841
17.939999666065 767
17.9599996656179 796
17.9799996651709 803
17.9999996647239 839
18.0199996642768 832
18.0399996638298 849
18.0599996633828 832
18.0799996629357 782
18.0999996624887 800
18.1199996620417 888
18.1399996615946 840
18.1599996611476 806
18.1799996607006 796
18.1999996602535 801
18.2199996598065 860
18.2399996593595 848
18.2599996589124 831
18.2799996584654 835
18.2999996580184 843
18.3199996575713 876
18.3399996571243 860
18.3599996566772 791
18.3799996562302 884
18.3999996557832 925
18.4199996553361 831
18.4399996548891 887
18.4599996544421 820
18.479999653995 852
18.499999653548 871
18.519999653101 886
18.5399996526539 920
18.5599996522069 867
18.5799996517599 929
18.5999996513128 961
18.6199996508658 873
18.6399996504188 908
18.6599996499717 956
18.6799996495247 925
18.6999996490777 1002
18.7199996486306 954
18.7399996481836 968
18.7599996477366 946
18.7799996472895 956
18.7999996468425 935
18.8199996463954 882
18.8399996459484 904
18.8599996455014 973
18.8799996450543 988
18.8999996446073 984
18.9199996441603 975
18.9399996437132 918
18.9599996432662 912
18.9799996428192 948
18.9999996423721 936
19.0199996419251 1008
19.0399996414781 1064
19.059999641031 1119
19.079999640584 1152
19.099999640137 1136
19.1199996396899 1144
19.1399996392429 1122
19.1599996387959 1058
19.1799996383488 1020
19.1999996379018 972
19.2199996374547 1039
19.2399996370077 968
19.2599996365607 946
19.2799996361136 946
19.2999996356666 993
19.3199996352196 1029
19.3399996347725 1028
19.3599996343255 1019
19.3799996338785 1155
19.3999996334314 1139
19.4199996329844 1059
19.4399996325374 1166
19.4599996320903 1143
19.4799996316433 1201
19.4999996311963 1255
19.5199996307492 1276
19.5399996303022 1281
19.5599996298552 1227
19.5799996294081 1248
19.5999996289611 1161
19.6199996285141 1097
19.639999628067 1104
19.65999962762 1035
19.6799996271729 1041
19.6999996267259 1076
19.7199996262789 1044
19.7399996258318 1073
19.7599996253848 1104
19.7799996249378 1119
19.7999996244907 1190
19.8199996240437 1250
19.8399996235967 1268
19.8599996231496 1253
19.8799996227026 1224
19.8999996222556 1233
19.9199996218085 1129
19.9399996213615 1146
19.9599996209145 1113
19.9799996204674 1106
19.9999996200204 1043
