3 2499
3.01999999955297 2271
3.03999999910593 2138
3.0599999986589 2145
3.07999999821186 1984
3.09999999776483 1936
3.11999999731779 1852
3.13999999687076 1830
3.15999999642372 1764
3.17999999597669 1795
3.19999999552965 1756
3.21999999508262 1700
3.23999999463558 1752
3.25999999418855 1659
3.27999999374151 1666
3.29999999329448 1600
3.31999999284744 1623
3.33999999240041 1592
3.35999999195337 1598
3.37999999150634 1600
3.3999999910593 1550
3.41999999061227 1590
3.43999999016523 1660
3.4599999897182 1633
3.47999998927116 1571
3.49999998882413 1505
3.51999998837709 1527
3.53999998793006 1580
3.55999998748302 1565
3.57999998703599 1529
3.59999998658895 1492
3.61999998614192 1506
3.63999998569489 1423
3.65999998524785 1462
3.67999998480082 1485
3.69999998435378 1437
3.71999998390675 1446
3.73999998345971 1420
3.75999998301268 1484
3.77999998256564 1365
3.79999998211861 1374
3.81999998167157 1394
3.83999998122454 1377
3.8599999807775 1406
3.87999998033047 1441
3.89999997988343 1377
3.9199999794364 1369
3.93999997898936 1399
3.95999997854233 1377
3.97999997809529 1356
3.99999997764826 1334
4.01999997720122 1361
4.03999997675419 1378
4.05999997630715 1349
4.07999997586012 1321
4.09999997541308 1380
4.11999997496605 1365
4.13999997451901 1317
4.15999997407198 1365
4.17999997362494 1307
4.19999997317791 1339
4.21999997273087 1310
4.23999997228384 1299
4.25999997183681 1328
4.27999997138977 1348
4.29999997094274 1357
4.3199999704957 1360
4.33999997004867 1407
4.35999996960163 1372
4.3799999691546 1368
4.39999996870756 1355
4.41999996826053 1324
4.43999996781349 1405
4.45999996736646 1380
4.47999996691942 1292
4.49999996647239 1244
4.51999996602535 1364
4.53999996557832 1295
4.55999996513128 1277
4.57999996468425 1299
4.59999996423721 1271
4.61999996379018 1367
4.63999996334314 1259
4.65999996289611 1335
4.67999996244907 1297
4.69999996200204 1356
4.719999961555 1341
4.73999996110797 1347
4.75999996066093 1382
4.7799999602139 1368
4.79999995976686 1295
4.81999995931983 1390
4.83999995887279 1403
4.85999995842576 1354
4.87999995797873 1393
4.89999995753169 1340
4.91999995708466 1400
4.93999995663762 1386
4.95999995619059 1416
4.97999995574355 1431
4.99999995529652 1368
5.01999995484948 1435
5.03999995440245 1455
5.05999995395541 1494
5.07999995350838 1515
5.09999995306134 1512
5.11999995261431 1555
5.13999995216727 1577
5.15999995172024 1547
5.1799999512732 1505
5.19999995082617 1602
5.21999995037913 1619
5.2399999499321 1643
5.25999994948506 1751
5.27999994903803 1713
5.29999994859099 1722
5.31999994814396 1808
5.33999994769692 1873
5.35999994724989 1900
5.37999994680285 2052
5.39999994635582 2151
5.41999994590878 2204
5.43999994546175 2315
5.45999994501471 2253
5.47999994456768 2223
5.49999994412065 2059
5.51999994367361 1860
5.53999994322658 1703
5.55999994277954 1664
5.57999994233251 1610
5.59999994188547 1630
5.61999994143844 1519
5.6399999409914 1488
5.65999994054437 1434
5.67999994009733 1417
5.6999999396503 1447
5.71999993920326 1389
5.73999993875623 1405
5.75999993830919 1287
5.77999993786216 1346
5.79999993741512 1335
5.81999993696809 1356
5.83999993652105 1320
5.85999993607402 1291
5.87999993562698 1275
5.89999993517995 1282
5.91999993473291 1231
5.93999993428588 1267
5.95999993383884 1267
5.97999993339181 1277
5.99999993294477 1263
6.01999993249774 1254
6.0399999320507 1198
6.05999993160367 1138
6.07999993115663 1205
6.0999999307096 1176
6.11999993026257 1219
6.13999992981553 1136
6.1599999293685 1243
6.17999992892146 1165
6.19999992847443 1200
6.21999992802739 1201
6.23999992758036 1167
6.25999992713332 1099
6.27999992668629 1158
6.29999992623925 1134
6.31999992579222 1148
6.33999992534518 1136
6.35999992489815 1132
6.37999992445111 1121
6.39999992400408 1135
6.41999992355704 1136
6.43999992311001 1159
6.45999992266297 1118
6.47999992221594 1105
6.4999999217689 1167
6.51999992132187 1084
6.53999992087483 1163
6.5599999204278 1150
6.57999991998076 1115
6.59999991953373 1127
6.61999991908669 1186
6.63999991863966 1162
6.65999991819262 1108
6.67999991774559 1052
6.69999991729855 1154
6.71999991685152 1117
6.73999991640449 1126
6.75999991595745 1156
6.77999991551042 1160
6.79999991506338 1055
6.81999991461635 1082
6.83999991416931 1130
6.85999991372228 1112
6.87999991327524 1041
6.89999991282821 1138
6.91999991238117 1096
6.93999991193414 1086
6.9599999114871 1104
6.97999991104007 1052
6.99999991059303 1083
7.019999910146 1081
7.03999990969896 1081
7.05999990925193 1039
7.07999990880489 1077
7.09999990835786 1089
7.11999990791082 1072
7.13999990746379 1134
7.15999990701675 1136
7.17999990656972 1051
7.19999990612268 1095
7.21999990567565 1056
7.23999990522861 1085
7.25999990478158 1061
7.27999990433454 1039
7.29999990388751 1122
7.31999990344047 1062
7.33999990299344 1088
7.35999990254641 1061
7.37999990209937 1091
7.39999990165234 1084
7.4199999012053 1056
7.43999990075827 1113
7.45999990031123 1036
7.4799998998642 1044
7.49999989941716 1067
7.51999989897013 1094
7.53999989852309 1054
7.55999989807606 1084
7.57999989762902 1032
7.59999989718199 1024
7.61999989673495 1080
7.63999989628792 1090
7.65999989584088 939
7.67999989539385 1016
7.69999989494681 978
7.71999989449978 998
7.73999989405274 1066
7.75999989360571 999
7.77999989315867 1059
7.79999989271164 1030
7.8199998922646 1002
7.83999989181757 1071
7.85999989137053 1072
7.8799998909235 1067
7.89999989047646 1039
7.91999989002943 1031
7.9399998895824 1096
7.95999988913536 1045
7.97999988868833 1074
7.99999988824129 996
8.01999988779426 1056
8.03999988734722 1012
8.05999988690019 1007
8.07999988645315 991
8.09999988600612 1020
8.11999988555908 997
8.13999988511205 984
8.15999988466501 1081
8.17999988421798 1035
8.19999988377094 1084
8.21999988332391 999
8.23999988287687 977
8.25999988242984 981
8.2799998819828 1061
8.29999988153577 1015
8.31999988108873 1026
8.3399998806417 1023
8.35999988019466 1065
8.37999987974763 1000
8.39999987930059 1002
8.41999987885356 1059
8.43999987840652 1056
8.45999987795949 1005
8.47999987751245 1039
8.49999987706542 1036
8.51999987661839 1051
8.53999987617135 1038
8.55999987572432 1083
8.57999987527728 1066
8.59999987483025 1088
8.61999987438321 1047
8.63999987393618 1133
8.65999987348914 1101
8.67999987304211 1103
8.69999987259507 1049
8.71999987214804 1078
8.739999871701 1122
8.75999987125397 1154
8.77999987080693 1105
8.7999998703599 1118
8.81999986991286 1142
8.83999986946583 1160
8.85999986901879 1173
8.87999986857176 1158
8.89999986812472 1131
8.91999986767769 1092
8.93999986723065 1193
8.95999986678362 1103
8.97999986633658 1180
8.99999986588955 1138
9.01999986544251 1098
9.03999986499548 1154
9.05999986454844 1169
9.07999986410141 1118
9.09999986365438 1140
9.11999986320734 1117
9.13999986276031 1101
9.15999986231327 1194
9.17999986186624 1227
9.1999998614192 1200
9.21999986097217 1227
9.23999986052513 1261
9.2599998600781 1295
9.27999985963106 1246
9.29999985918403 1280
9.31999985873699 1317
9.33999985828996 1417
9.35999985784292 1472
9.37999985739589 1520
9.39999985694885 1521
9.41999985650182 1489
9.43999985605478 1315
9.45999985560775 1297
9.47999985516071 1290
9.49999985471368 1154
9.51999985426664 1174
9.53999985381961 1125
9.55999985337257 1124
9.57999985292554 1145
9.5999998524785 1141
9.61999985203147 1091
9.63999985158443 1110
9.6599998511374 1096
9.67999985069037 1101
9.69999985024333 1119
9.7199998497963 1112
9.73999984934926 1050
9.75999984890223 1043
9.77999984845519 1091
9.79999984800816 1049
9.81999984756112 1014
9.83999984711409 1017
9.85999984666705 1085
9.87999984622002 1054
9.89999984577298 983
9.91999984532595 1032
9.93999984487891 1088
9.95999984443188 1057
9.97999984398484 1082
9.99999984353781 1031
10.0199998430908 1030
10.0399998426437 1030
10.0599998421967 990
10.0799998417497 990
10.0999998413026 1082
10.1199998408556 1055
10.1399998404086 998
10.1599998399615 1045
10.1799998395145 996
10.1999998390675 1071
10.2199998386204 1039
10.2399998381734 991
10.2599998377264 1054
10.2799998372793 1005
10.2999998368323 1024
10.3199998363853 1001
10.3399998359382 1011
10.3599998354912 1033
10.3799998350441 1049
10.3999998345971 1067
10.4199998341501 1044
10.439999833703 1083
10.459999833256 992
10.479999832809 1085
10.4999998323619 1045
10.5199998319149 979
10.5399998314679 972
10.5599998310208 1011
10.5799998305738 1054
10.5999998301268 1030
10.6199998296797 1033
10.6399998292327 1033
10.6599998287857 1085
10.6799998283386 1034
10.6999998278916 1029
10.7199998274446 1056
10.7399998269975 1013
10.7599998265505 997
10.7799998261034 1029
10.7999998256564 1065
10.8199998252094 1014
10.8399998247623 1087
10.8599998243153 1114
10.8799998238683 1099
10.8999998234212 1105
10.9199998229742 1087
10.9399998225272 1064
10.9599998220801 1050
10.9799998216331 1048
10.9999998211861 1064
11.019999820739 1062
11.039999820292 963
11.059999819845 1012
11.0799998193979 993
11.0999998189509 968
11.1199998185039 975
11.1399998180568 1000
11.1599998176098 935
11.1799998171628 1016
11.1999998167157 998
11.2199998162687 1008
11.2399998158216 1019
11.2599998153746 977
11.2799998149276 979
11.2999998144805 977
11.3199998140335 1004
11.3399998135865 964
11.3599998131394 932
11.3799998126924 971
11.3999998122454 970
11.4199998117983 984
11.4399998113513 1006
11.4599998109043 1019
11.4799998104572 988
11.4999998100102 1069
11.5199998095632 1016
11.5399998091161 1008
11.5599998086691 974
11.5799998082221 960
11.599999807775 951
11.619999807328 999
11.639999806881 938
11.6599998064339 955
11.6799998059869 984
11.6999998055398 933
11.7199998050928 995
11.7399998046458 958
11.7599998041987 949
11.7799998037517 929
11.7999998033047 948
11.8199998028576 975
11.8399998024106 1025
11.8599998019636 969
11.8799998015165 947
11.8999998010695 954
11.9199998006225 978
11.9399998001754 936
11.9599997997284 1006
11.9799997992814 995
11.9999997988343 984
12.0199997983873 953
12.0399997979403 959
12.0599997974932 1034
12.0799997970462 978
12.0999997965992 957
12.1199997961521 947
12.1399997957051 973
12.159999795258 938
12.179999794811 944
12.199999794364 945
12.2199997939169 1004
12.2399997934699 957
12.2599997930229 1011
12.2799997925758 919
12.2999997921288 941
12.3199997916818 949
12.3399997912347 977
12.3599997907877 944
12.3799997903407 979
12.3999997898936 931
12.4199997894466 955
12.4399997889996 993
12.4599997885525 964
12.4799997881055 982
12.4999997876585 967
12.5199997872114 977
12.5399997867644 985
12.5599997863173 966
12.5799997858703 926
12.5999997854233 1005
12.6199997849762 1010
12.6399997845292 1042
12.6599997840822 944
12.6799997836351 1029
12.6999997831881 1008
12.7199997827411 966
12.739999782294 982
12.759999781847 925
12.7799997814 950
12.7999997809529 963
12.8199997805059 970
12.8399997800589 1071
12.8599997796118 921
12.8799997791648 937
12.8999997787178 961
12.9199997782707 991
12.9399997778237 950
12.9599997773767 979
12.9799997769296 982
12.9999997764826 995
13.0199997760355 987
13.0399997755885 988
13.0599997751415 973
13.0799997746944 1014
13.0999997742474 1006
13.1199997738004 1017
13.1399997733533 986
13.1599997729063 991
13.1799997724593 973
13.1999997720122 993
13.2199997715652 998
13.2399997711182 982
13.2599997706711 978
13.2799997702241 964
13.2999997697771 1005
13.31999976933 968
13.339999768883 928
13.359999768436 925
13.3799997679889 979
13.3999997675419 1028
13.4199997670949 1037
13.4399997666478 962
13.4599997662008 993
13.4799997657537 965
13.4999997653067 1021
13.5199997648597 972
13.5399997644126 949
13.5599997639656 1020
13.5799997635186 970
13.5999997630715 986
13.6199997626245 979
13.6399997621775 1021
13.6599997617304 1039
13.6799997612834 981
13.6999997608364 1020
13.7199997603893 1001
13.7399997599423 988
13.7599997594953 1044
13.7799997590482 989
13.7999997586012 1000
13.8199997581542 985
13.8399997577071 971
13.8599997572601 976
13.879999756813 1049
13.899999756366 1027
13.919999755919 1002
13.9399997554719 1012
13.9599997550249 982
13.9799997545779 1041
13.9999997541308 979
14.0199997536838 1002
14.0399997532368 1010
14.0599997527897 1051
14.0799997523427 1044
14.0999997518957 1087
14.1199997514486 1036
14.1399997510016 1040
14.1599997505546 1041
14.1799997501075 988
14.1999997496605 1042
14.2199997492135 1015
14.2399997487664 1036
14.2599997483194 1055
14.2799997478724 1061
14.2999997474253 1056
14.3199997469783 1077
14.3399997465312 1123
14.3599997460842 1038
14.3799997456372 1029
14.3999997451901 1053
14.4199997447431 1035
14.4399997442961 1007
14.459999743849 1051
14.479999743402 1055
14.499999742955 997
14.5199997425079 1049
14.5399997420609 1092
14.5599997416139 1077
14.5799997411668 1045
14.5999997407198 1020
14.6199997402728 1002
14.6399997398257 1076
14.6599997393787 1121
14.6799997389317 991
14.6999997384846 1037
14.7199997380376 1051
14.7399997375906 1054
14.7599997371435 1033
14.7799997366965 1073
14.7999997362494 1010
14.8199997358024 1007
14.8399997353554 1011
14.8599997349083 1045
14.8799997344613 1023
14.8999997340143 1052
14.9199997335672 985
14.9399997331202 1091
14.9599997326732 1008
14.9799997322261 1036
14.9999997317791 1085
15.0199997313321 1048
15.039999730885 1058
15.059999730438 1037
15.079999729991 1045
15.0999997295439 1037
15.1199997290969 1024
15.1399997286499 996
15.1599997282028 1051
15.1799997277558 1063
15.1999997273088 1088
15.2199997268617 1002
15.2399997264147 1008
15.2599997259676 1062
15.2799997255206 1079
15.2999997250736 1063
15.3199997246265 1132
15.3399997241795 1068
15.3599997237325 1111
15.3799997232854 1049
15.3999997228384 1098
15.4199997223914 1032
15.4399997219443 1027
15.4599997214973 1053
15.4799997210503 1075
15.4999997206032 1112
15.5199997201562 1138
15.5399997197092 1100
15.5599997192621 1085
15.5799997188151 1132
15.5999997183681 1078
15.619999717921 1045
15.639999717474 1094
15.659999717027 1004
15.6799997165799 1087
15.6999997161329 1075
15.7199997156858 1121
15.7399997152388 1097
15.7599997147918 1099
15.7799997143447 1096
15.7999997138977 1096
15.8199997134507 1102
15.8399997130036 1101
15.8599997125566 1127
15.8799997121096 1112
15.8999997116625 1084
15.9199997112155 1120
15.9399997107685 1063
15.9599997103214 1164
15.9799997098744 1083
15.9999997094274 1112
16.0199997089803 1093
16.0399997085333 1107
16.0599997080863 1123
16.0799997076392 1110
16.0999997071922 1135
16.1199997067451 1135
16.1399997062981 1140
16.1599997058511 1134
16.179999705404 1111
16.199999704957 1119
16.21999970451 1186
16.2399997040629 1114
16.2599997036159 1148
16.2799997031689 1227
16.2999997027218 1145
16.3199997022748 1187
16.3399997018278 1170
16.3599997013807 1231
16.3799997009337 1145
16.3999997004867 1185
16.4199997000396 1184
16.4399996995926 1164
16.4599996991456 1220
16.4799996986985 1187
16.4999996982515 1175
16.5199996978045 1280
16.5399996973574 1339
16.5599996969104 1176
16.5799996964633 1201
16.5999996960163 1224
16.6199996955693 1199
16.6399996951222 1184
16.6599996946752 1251
16.6799996942282 1220
16.6999996937811 1230
16.7199996933341 1309
16.7399996928871 1277
16.75999969244 1323
16.779999691993 1383
16.799999691546 1349
16.8199996910989 1447
16.8399996906519 1484
16.8599996902049 1518
16.8799996897578 1642
16.8999996893108 1727
16.9199996888638 1866
16.9399996884167 2022
16.9599996879697 2127
16.9799996875226 2292
16.9999996870756 2330
17.0199996866286 2275
17.0399996861815 2100
17.0599996857345 1940
17.0799996852875 1707
17.0999996848404 1477
17.1199996843934 1376
17.1399996839464 1364
17.1599996834993 1337
17.1799996830523 1372
17.1999996826053 1332
17.2199996821582 1272
17.2399996817112 1263
17.2599996812642 1290
17.2799996808171 1277
17.2999996803701 1290
17.3199996799231 1255
17.339999679476 1266
17.359999679029 1322
17.379999678582 1290
17.3999996781349 1348
17.4199996776879 1297
17.4399996772408 1328
17.4599996767938 1370
17.4799996763468 1365
17.4999996758997 1326
17.5199996754527 1337
17.5399996750057 1312
17.5599996745586 1341
17.5799996741116 1341
17.5999996736646 1339
17.6199996732175 1437
17.6399996727705 1337
17.6599996723235 1339
17.6799996718764 1347
17.6999996714294 1359
17.7199996709824 1351
17.7399996705353 1354
17.7599996700883 1382
17.7799996696413 1422
17.7999996691942 1427
17.8199996687472 1324
17.8399996683002 1400
17.8599996678531 1358
17.8799996674061 1382
17.899999666959 1414
17.919999666512 1410
17.939999666065 1404
17.9599996656179 1367
17.9799996651709 1319
17.9999996647239 1380
18.0199996642768 1492
18.0399996638298 1454
18.0599996633828 1425
18.0799996629357 1466
18.0999996624887 1393
18.1199996620417 1371
18.1399996615946 1415
18.1599996611476 1436
18.1799996607006 1448
18.1999996602535 1454
18.2199996598065 1420
18.2399996593595 1423
18.2599996589124 1505
18.2799996584654 1461
18.2999996580184 1422
18.3199996575713 1441
18.3399996571243 1502
18.3599996566772 1480
18.3799996562302 1520
18.3999996557832 1506
18.4199996553361 1467
18.4399996548891 1490
18.4599996544421 1515
18.479999653995 1492
18.499999653548 1489
18.519999653101 1502
18.5399996526539 1487
18.5599996522069 1520
18.5799996517599 1469
18.5999996513128 1483
18.6199996508658 1489
18.6399996504188 1492
18.6599996499717 1570
18.6799996495247 1499
18.6999996490777 1572
18.7199996486306 1583
18.7399996481836 1560
18.7599996477366 1542
18.7799996472895 1567
18.7999996468425 1534
18.8199996463954 1589
18.8399996459484 1619
18.8599996455014 1553
18.8799996450543 1581
18.8999996446073 1557
18.9199996441603 1596
18.9399996437132 1533
18.9599996432662 1612
18.9799996428192 1662
18.9999996423721 1629
19.0199996419251 1599
19.0399996414781 1633
19.059999641031 1633
19.079999640584 1591
19.099999640137 1529
19.1199996396899 1609
19.1399996392429 1559
19.1599996387959 1651
19.1799996383488 1638
19.1999996379018 1683
19.2199996374547 1620
19.2399996370077 1613
19.2599996365607 1641
19.2799996361136 1620
19.2999996356666 1646
19.3199996352196 1680
19.3399996347725 1659
19.3599996343255 1611
19.3799996338785 1675
19.3999996334314 1717
19.4199996329844 1689
19.4399996325374 1708
19.4599996320903 1623
19.4799996316433 1663
19.4999996311963 1656
19.5199996307492 1655
19.5399996303022 1694
19.5599996298552 1719
19.5799996294081 1696
19.5999996289611 1749
19.6199996285141 1767
19.639999628067 1746
19.65999962762 1710
19.6799996271729 1770
19.6999996267259 1737
19.7199996262789 1749
19.7399996258318 1735
19.7599996253848 1707
19.7799996249378 1822
19.7999996244907 1755
19.8199996240437 1814
19.8399996235967 1750
19.8599996231496 1791
19.8799996227026 1796
19.8999996222556 1746
19.9199996218085 1786
19.9399996213615 1807
19.9599996209145 1757
19.9799996204674 1751
19.9999996200204 1788
