3 2234
3.01999999955297 2025
3.03999999910593 1874
3.0599999986589 1873
3.07999999821186 1672
3.09999999776483 1600
3.11999999731779 1583
3.13999999687076 1534
3.15999999642372 1564
3.17999999597669 1519
3.19999999552965 1504
3.21999999508262 1461
3.23999999463558 1388
3.25999999418855 1431
3.27999999374151 1437
3.29999999329448 1395
3.31999999284744 1338
3.33999999240041 1276
3.35999999195337 1352
3.37999999150634 1345
3.3999999910593 1313
3.41999999061227 1296
3.43999999016523 1306
3.4599999897182 1243
3.47999998927116 1215
3.49999998882413 1185
3.51999998837709 1258
3.53999998793006 1256
3.55999998748302 1195
3.57999998703599 1123
3.59999998658895 1143
3.61999998614192 1091
3.63999998569489 1135
3.65999998524785 1145
3.67999998480082 1128
3.69999998435378 1087
3.71999998390675 1088
3.73999998345971 1074
3.75999998301268 1079
3.77999998256564 1106
3.79999998211861 1008
3.81999998167157 1043
3.83999998122454 1030
3.8599999807775 1026
3.87999998033047 1031
3.89999997988343 995
3.9199999794364 972
3.93999997898936 993
3.95999997854233 960
3.97999997809529 924
3.99999997764826 970
4.01999997720122 951
4.03999997675419 919
4.05999997630715 889
4.07999997586012 910
4.09999997541308 942
4.11999997496605 926
4.13999997451901 938
4.15999997407198 921
4.17999997362494 924
4.19999997317791 898
4.21999997273087 888
4.23999997228384 912
4.25999997183681 849
4.27999997138977 832
4.29999997094274 877
4.3199999704957 828
4.33999997004867 876
4.35999996960163 820
4.3799999691546 820
4.39999996870756 831
4.41999996826053 761
4.43999996781349 828
4.45999996736646 815
4.47999996691942 808
4.49999996647239 815
4.51999996602535 774
4.53999996557832 793
4.55999996513128 770
4.57999996468425 773
4.59999996423721 784
4.61999996379018 775
4.63999996334314 783
4.65999996289611 790
4.67999996244907 752
4.69999996200204 783
4.719999961555 773
4.73999996110797 774
4.75999996066093 738
4.7799999602139 748
4.79999995976686 709
4.81999995931983 738
4.83999995887279 725
4.85999995842576 700
4.87999995797873 742
4.89999995753169 710
4.91999995708466 692
4.93999995663762 717
4.95999995619059 722
4.97999995574355 747
4.99999995529652 708
5.01999995484948 673
5.03999995440245 711
5.05999995395541 702
5.07999995350838 673
5.09999995306134 698
5.11999995261431 727
5.13999995216727 669
5.15999995172024 705
5.1799999512732 720
5.19999995082617 686
5.21999995037913 708
5.2399999499321 681
5.25999994948506 679
5.27999994903803 714
5.29999994859099 696
5.31999994814396 690
5.33999994769692 675
5.35999994724989 707
5.37999994680285 707
5.39999994635582 715
5.41999994590878 662
5.43999994546175 707
5.45999994501471 669
5.47999994456768 643
5.49999994412065 633
5.51999994367361 624
5.53999994322658 648
5.55999994277954 688
5.57999994233251 642
5.59999994188547 605
5.61999994143844 647
5.6399999409914 674
5.65999994054437 640
5.67999994009733 689
5.6999999396503 674
5.71999993920326 646
5.73999993875623 658
5.75999993830919 664
5.77999993786216 673
5.79999993741512 656
5.81999993696809 638
5.83999993652105 651
5.85999993607402 643
5.87999993562698 627
5.89999993517995 674
5.91999993473291 624
5.93999993428588 628
5.95999993383884 651
5.97999993339181 670
5.99999993294477 616
6.01999993249774 673
6.0399999320507 611
6.05999993160367 626
6.07999993115663 618
6.0999999307096 632
6.11999993026257 644
6.13999992981553 606
6.1599999293685 634
6.17999992892146 690
6.19999992847443 599
6.21999992802739 656
6.23999992758036 656
6.25999992713332 624
6.27999992668629 649
6.29999992623925 639
6.31999992579222 624
6.33999992534518 655
6.35999992489815 621
6.37999992445111 648
6.39999992400408 619
6.41999992355704 660
6.43999992311001 657
6.45999992266297 696
6.47999992221594 679
6.4999999217689 634
6.51999992132187 672
6.53999992087483 686
6.5599999204278 650
6.57999991998076 631
6.59999991953373 610
6.61999991908669 665
6.63999991863966 643
6.65999991819262 669
6.67999991774559 636
6.69999991729855 652
6.71999991685152 648
6.73999991640449 640
6.75999991595745 642
6.77999991551042 610
6.79999991506338 653
6.81999991461635 637
6.83999991416931 624
6.85999991372228 633
6.87999991327524 603
6.89999991282821 601
6.91999991238117 605
6.93999991193414 590
6.9599999114871 635
6.97999991104007 627
6.99999991059303 677
7.019999910146 610
7.03999990969896 680
7.05999990925193 633
7.07999990880489 681
7.09999990835786 651
7.11999990791082 659
7.13999990746379 604
7.15999990701675 626
7.17999990656972 620
7.19999990612268 620
7.21999990567565 631
7.23999990522861 677
7.25999990478158 673
7.27999990433454 631
7.29999990388751 620
7.31999990344047 673
7.33999990299344 624
7.35999990254641 652
7.37999990209937 637
7.39999990165234 611
7.4199999012053 607
7.43999990075827 640
7.45999990031123 646
7.4799998998642 669
7.49999989941716 628
7.51999989897013 629
7.53999989852309 656
7.55999989807606 646
7.57999989762902 645
7.59999989718199 683
7.61999989673495 650
7.63999989628792 658
7.65999989584088 631
7.67999989539385 710
7.69999989494681 677
7.71999989449978 689
7.73999989405274 664
7.75999989360571 703
7.77999989315867 600
7.79999989271164 732
7.8199998922646 703
7.83999989181757 691
7.85999989137053 715
7.8799998909235 702
7.89999989047646 678
7.91999989002943 758
7.9399998895824 731
7.95999988913536 730
7.97999988868833 698
7.99999988824129 671
8.01999988779426 684
8.03999988734722 660
8.05999988690019 663
8.07999988645315 675
8.09999988600612 711
8.11999988555908 689
8.13999988511205 746
8.15999988466501 728
8.17999988421798 724
8.19999988377094 729
8.21999988332391 680
8.23999988287687 687
8.25999988242984 736
8.2799998819828 744
8.29999988153577 705
8.31999988108873 725
8.3399998806417 771
8.35999988019466 779
8.37999987974763 702
8.39999987930059 755
8.41999987885356 775
8.43999987840652 754
8.45999987795949 766
8.47999987751245 793
8.49999987706542 796
8.51999987661839 779
8.53999987617135 789
8.55999987572432 804
8.57999987527728 799
8.59999987483025 812
8.61999987438321 854
8.63999987393618 816
8.65999987348914 841
8.67999987304211 828
8.69999987259507 849
8.71999987214804 892
8.739999871701 872
8.75999987125397 900
8.77999987080693 904
8.7999998703599 949
8.81999986991286 1009
8.83999986946583 1015
8.85999986901879 1072
8.87999986857176 1078
8.89999986812472 1210
8.91999986767769 1270
8.93999986723065 1225
8.95999986678362 1204
8.97999986633658 1235
8.99999986588955 1206
9.01999986544251 1176
9.03999986499548 1209
9.05999986454844 1178
9.07999986410141 1092
9.09999986365438 1159
9.11999986320734 1082
9.13999986276031 1133
9.15999986231327 992
9.17999986186624 1082
9.1999998614192 1008
9.21999986097217 1056
9.23999986052513 1032
9.2599998600781 1065
9.27999985963106 1047
9.29999985918403 1041
9.31999985873699 1055
9.33999985828996 1058
9.35999985784292 1029
9.37999985739589 975
9.39999985694885 926
9.41999985650182 915
9.43999985605478 844
9.45999985560775 828
9.47999985516071 837
9.49999985471368 794
9.51999985426664 845
9.53999985381961 848
9.55999985337257 842
9.57999985292554 815
9.5999998524785 813
9.61999985203147 831
9.63999985158443 820
9.6599998511374 870
9.67999985069037 873
9.69999985024333 898
9.7199998497963 919
9.73999984934926 870
9.75999984890223 930
9.77999984845519 948
9.79999984800816 971
9.81999984756112 1047
9.83999984711409 1107
9.85999984666705 1155
9.87999984622002 1180
9.89999984577298 1237
9.91999984532595 1322
9.93999984487891 1390
9.95999984443188 1391
9.97999984398484 1308
9.99999984353781 1352
10.0199998430908 1259
10.0399998426437 1200
10.0599998421967 1105
10.0799998417497 1023
10.0999998413026 977
10.1199998408556 931
10.1399998404086 927
10.1599998399615 869
10.1799998395145 774
10.1999998390675 808
10.2199998386204 811
10.2399998381734 812
10.2599998377264 817
10.2799998372793 792
10.2999998368323 800
10.3199998363853 728
10.3399998359382 776
10.3599998354912 698
10.3799998350441 747
10.3999998345971 763
10.4199998341501 743
10.439999833703 740
10.459999833256 759
10.479999832809 739
10.4999998323619 724
10.5199998319149 689
10.5399998314679 707
10.5599998310208 690
10.5799998305738 722
10.5999998301268 715
10.6199998296797 678
10.6399998292327 707
10.6599998287857 717
10.6799998283386 711
10.6999998278916 745
10.7199998274446 675
10.7399998269975 719
10.7599998265505 686
10.7799998261034 695
10.7999998256564 701
10.8199998252094 714
10.8399998247623 725
10.8599998243153 681
10.8799998238683 666
10.8999998234212 720
10.9199998229742 744
10.9399998225272 678
10.9599998220801 713
10.9799998216331 605
10.9999998211861 669
11.019999820739 633
11.039999820292 631
11.059999819845 599
11.0799998193979 583
11.0999998189509 596
11.1199998185039 636
11.1399998180568 593
11.1599998176098 594
11.1799998171628 594
11.1999998167157 580
11.2199998162687 606
11.2399998158216 569
11.2599998153746 584
11.2799998149276 577
11.2999998144805 631
11.3199998140335 597
11.3399998135865 598
11.3599998131394 572
11.3799998126924 573
11.3999998122454 540
11.4199998117983 605
11.4399998113513 580
11.4599998109043 603
11.4799998104572 592
11.4999998100102 612
11.5199998095632 593
11.5399998091161 564
11.5599998086691 579
11.5799998082221 577
11.599999807775 571
11.619999807328 538
11.639999806881 590
11.6599998064339 587
11.6799998059869 574
11.6999998055398 583
11.7199998050928 531
11.7399998046458 609
11.7599998041987 586
11.7799998037517 592
11.7999998033047 545
11.8199998028576 616
11.8399998024106 586
11.8599998019636 605
11.8799998015165 601
11.8999998010695 571
11.9199998006225 587
11.9399998001754 526
11.9599997997284 549
11.9799997992814 527
11.9999997988343 558
12.0199997983873 540
12.0399997979403 582
12.0599997974932 587
12.0799997970462 579
12.0999997965992 580
12.1199997961521 600
12.1399997957051 601
12.159999795258 583
12.179999794811 595
12.199999794364 573
12.2199997939169 564
12.2399997934699 617
12.2599997930229 591
12.2799997925758 569
12.2999997921288 615
12.3199997916818 569
12.3399997912347 613
12.3599997907877 601
12.3799997903407 641
12.3999997898936 657
12.4199997894466 665
12.4399997889996 653
12.4599997885525 669
12.4799997881055 704
12.4999997876585 757
12.5199997872114 764
12.5399997867644 823
12.5599997863173 837
12.5799997858703 915
12.5999997854233 918
12.6199997849762 885
12.6399997845292 950
12.6599997840822 886
12.6799997836351 936
12.6999997831881 861
12.7199997827411 824
12.739999782294 801
12.759999781847 725
12.7799997814 702
12.7999997809529 662
12.8199997805059 676
12.8399997800589 637
12.8599997796118 661
12.8799997791648 676
12.8999997787178 648
12.9199997782707 640
12.9399997778237 647
12.9599997773767 627
12.9799997769296 641
12.9999997764826 652
13.0199997760355 629
13.0399997755885 625
13.0599997751415 658
13.0799997746944 598
13.0999997742474 637
13.1199997738004 600
13.1399997733533 618
13.1599997729063 619
13.1799997724593 617
13.1999997720122 616
13.2199997715652 646
13.2399997711182 621
13.2599997706711 676
13.2799997702241 624
13.2999997697771 643
13.31999976933 599
13.339999768883 609
13.359999768436 645
13.3799997679889 641
13.3999997675419 651
13.4199997670949 588
13.4399997666478 605
13.4599997662008 609
13.4799997657537 627
13.4999997653067 636
13.5199997648597 617
13.5399997644126 611
13.5599997639656 623
13.5799997635186 589
13.5999997630715 595
13.6199997626245 613
13.6399997621775 620
13.6599997617304 636
13.6799997612834 622
13.6999997608364 603
13.7199997603893 590
13.7399997599423 637
13.7599997594953 608
13.7799997590482 669
13.7999997586012 636
13.8199997581542 648
13.8399997577071 646
13.8599997572601 637
13.879999756813 619
13.899999756366 604
13.919999755919 667
13.9399997554719 650
13.9599997550249 682
13.9799997545779 647
13.9999997541308 646
14.0199997536838 646
14.0399997532368 627
14.0599997527897 653
14.0799997523427 611
14.0999997518957 648
14.1199997514486 622
14.1399997510016 636
14.1599997505546 627
14.1799997501075 657
14.1999997496605 662
14.2199997492135 650
14.2399997487664 634
14.2599997483194 650
14.2799997478724 656
14.2999997474253 670
14.3199997469783 639
14.3399997465312 675
14.3599997460842 661
14.3799997456372 643
14.3999997451901 648
14.4199997447431 682
14.4399997442961 703
14.459999743849 702
14.479999743402 652
14.499999742955 683
14.5199997425079 653
14.5399997420609 675
14.5599997416139 637
14.5799997411668 691
14.5999997407198 664
14.6199997402728 682
14.6399997398257 649
14.6599997393787 650
14.6799997389317 624
14.6999997384846 650
14.7199997380376 652
14.7399997375906 635
14.7599997371435 675
14.7799997366965 648
14.7999997362494 610
14.8199997358024 641
14.8399997353554 636
14.8599997349083 637
14.8799997344613 643
14.8999997340143 669
14.9199997335672 649
14.9399997331202 668
14.9599997326732 654
14.9799997322261 663
14.9999997317791 677
15.0199997313321 652
15.039999730885 676
15.059999730438 667
15.079999729991 727
15.0999997295439 711
15.1199997290969 677
15.1399997286499 695
15.1599997282028 683
15.1799997277558 633
15.1999997273088 715
15.2199997268617 688
15.2399997264147 691
15.2599997259676 677
15.2799997255206 676
15.2999997250736 675
15.3199997246265 628
15.3399997241795 682
15.3599997237325 696
15.3799997232854 688
15.3999997228384 692
15.4199997223914 679
15.4399997219443 669
15.4599997214973 665
15.4799997210503 675
15.4999997206032 665
15.5199997201562 694
15.5399997197092 712
15.5599997192621 680
15.5799997188151 674
15.5999997183681 694
15.619999717921 726
15.639999717474 701
15.659999717027 676
15.6799997165799 655
15.6999997161329 671
15.7199997156858 738
15.7399997152388 712
15.7599997147918 722
15.7799997143447 689
15.7999997138977 754
15.8199997134507 692
15.8399997130036 693
15.8599997125566 740
15.8799997121096 764
15.8999997116625 766
15.9199997112155 735
15.9399997107685 733
15.9599997103214 689
15.9799997098744 695
15.9999997094274 718
16.0199997089803 685
16.0399997085333 719
16.0599997080863 738
16.0799997076392 724
16.0999997071922 753
16.1199997067451 710
16.1399997062981 692
16.1599997058511 716
16.179999705404 713
16.199999704957 739
16.21999970451 740
16.2399997040629 739
16.2599997036159 742
16.2799997031689 717
16.2999997027218 789
16.3199997022748 780
16.3399997018278 736
16.3599997013807 724
16.3799997009337 730
16.3999997004867 746
16.4199997000396 789
16.4399996995926 760
16.4599996991456 782
16.4799996986985 814
16.4999996982515 753
16.5199996978045 788
16.5399996973574 786
16.5599996969104 770
16.5799996964633 827
16.5999996960163 761
16.6199996955693 816
16.6399996951222 787
16.6599996946752 794
16.6799996942282 804
16.6999996937811 800
16.7199996933341 839
16.7399996928871 867
16.75999969244 838
16.779999691993 855
16.799999691546 899
16.8199996910989 898
16.8399996906519 898
16.8599996902049 989
16.8799996897578 1052
16.8999996893108 1151
16.9199996888638 1210
16.9399996884167 1160
16.9599996879697 1254
16.9799996875226 1273
16.9999996870756 1167
17.0199996866286 1103
17.0399996861815 1090
17.0599996857345 993
17.0799996852875 912
17.0999996848404 851
17.1199996843934 827
17.1399996839464 867
17.1599996834993 830
17.1799996830523 857
17.1999996826053 798
17.2199996821582 838
17.2399996817112 791
17.2599996812642 864
17.2799996808171 852
17.2999996803701 851
17.3199996799231 869
17.339999679476 859
17.359999679029 838
17.379999678582 887
17.3999996781349 821
17.4199996776879 866
17.4399996772408 859
17.4599996767938 863
17.4799996763468 837
17.4999996758997 900
17.5199996754527 901
17.5399996750057 865
17.5599996745586 878
17.5799996741116 861
17.5999996736646 893
17.6199996732175 866
17.6399996727705 861
17.6599996723235 911
17.6799996718764 891
17.6999996714294 938
17.7199996709824 887
17.7399996705353 905
17.7599996700883 852
17.7799996696413 896
17.7999996691942 916
17.8199996687472 895
17.8399996683002 936
17.8599996678531 897
17.8799996674061 914
17.899999666959 896
17.919999666512 926
17.939999666065 960
17.9599996656179 909
17.9799996651709 971
17.9999996647239 933
18.0199996642768 996
18.0399996638298 967
18.0599996633828 932
18.0799996629357 983
18.0999996624887 1004
18.1199996620417 968
18.1399996615946 957
18.1599996611476 959
18.1799996607006 989
18.1999996602535 1003
18.2199996598065 1013
18.2399996593595 1016
18.2599996589124 976
18.2799996584654 1038
18.2999996580184 960
18.3199996575713 945
18.3399996571243 976
18.3599996566772 955
18.3799996562302 1033
18.3999996557832 1031
18.4199996553361 957
18.4399996548891 1032
18.4599996544421 994
18.479999653995 976
18.499999653548 1014
18.519999653101 1012
18.5399996526539 988
18.5599996522069 986
18.5799996517599 1011
18.5999996513128 1031
18.6199996508658 1012
18.6399996504188 1036
18.6599996499717 1000
18.6799996495247 1043
18.6999996490777 1016
18.7199996486306 1018
18.7399996481836 991
18.7599996477366 988
18.7799996472895 999
18.7999996468425 988
18.8199996463954 985
18.8399996459484 1031
18.8599996455014 1046
18.8799996450543 1003
18.8999996446073 993
18.9199996441603 1021
18.9399996437132 1054
18.9599996432662 1050
18.9799996428192 1050
18.9999996423721 1030
19.0199996419251 1028
19.0399996414781 1056
19.059999641031 1073
19.079999640584 1022
19.099999640137 1030
19.1199996396899 1042
19.1399996392429 1047
19.1599996387959 1055
19.1799996383488 1055
19.1999996379018 1063
19.2199996374547 1043
19.2399996370077 1088
19.2599996365607 1073
19.2799996361136 1082
19.2999996356666 1097
19.3199996352196 1088
19.3399996347725 1089
19.3599996343255 1065
19.3799996338785 1109
19.3999996334314 1127
19.4199996329844 1045
19.4399996325374 1108
19.4599996320903 1137
19.4799996316433 1117
19.4999996311963 1144
19.5199996307492 1147
19.5399996303022 1160
19.5599996298552 1128
19.5799996294081 1114
19.5999996289611 1138
19.6199996285141 1129
19.639999628067 1186
19.65999962762 1161
19.6799996271729 1183
19.6999996267259 1182
19.7199996262789 1123
19.7399996258318 1163
19.7599996253848 1166
19.7799996249378 1185
19.7999996244907 1271
19.8199996240437 1268
19.8399996235967 1314
19.8599996231496 1289
19.8799996227026 1289
19.8999996222556 1290
19.9199996218085 1388
19.9399996213615 1331
19.9599996209145 1297
19.9799996204674 1319
19.9999996200204 1320
