3 2612
3.01999999955297 2473
3.03999999910593 2386
3.0599999986589 2183
3.07999999821186 2052
3.09999999776483 1983
3.11999999731779 1885
3.13999999687076 1855
3.15999999642372 1742
3.17999999597669 1779
3.19999999552965 1734
3.21999999508262 1786
3.23999999463558 1693
3.25999999418855 1658
3.27999999374151 1592
3.29999999329448 1656
3.31999999284744 1560
3.33999999240041 1544
3.35999999195337 1484
3.37999999150634 1480
3.3999999910593 1488
3.41999999061227 1443
3.43999999016523 1463
3.4599999897182 1498
3.47999998927116 1381
3.49999998882413 1380
3.51999998837709 1325
3.53999998793006 1368
3.55999998748302 1349
3.57999998703599 1270
3.59999998658895 1334
3.61999998614192 1315
3.63999998569489 1281
3.65999998524785 1263
3.67999998480082 1303
3.69999998435378 1279
3.71999998390675 1266
3.73999998345971 1224
3.75999998301268 1196
3.77999998256564 1199
3.79999998211861 1149
3.81999998167157 1205
3.83999998122454 1202
3.8599999807775 1198
3.87999998033047 1141
3.89999997988343 1202
3.9199999794364 1180
3.93999997898936 1099
3.95999997854233 1099
3.97999997809529 1135
3.99999997764826 1136
4.01999997720122 1092
4.03999997675419 1169
4.05999997630715 1142
4.07999997586012 1171
4.09999997541308 1270
4.11999997496605 1191
4.13999997451901 1157
4.15999997407198 1032
4.17999997362494 951
4.19999997317791 994
4.21999997273087 929
4.23999997228384 903
4.25999997183681 942
4.27999997138977 902
4.29999997094274 894
4.3199999704957 908
4.33999997004867 850
4.35999996960163 893
4.3799999691546 903
4.39999996870756 882
4.41999996826053 886
4.43999996781349 878
4.45999996736646 853
4.47999996691942 877
4.49999996647239 856
4.51999996602535 851
4.53999996557832 806
4.55999996513128 889
4.57999996468425 841
4.59999996423721 787
4.61999996379018 780
4.63999996334314 826
4.65999996289611 813
4.67999996244907 753
4.69999996200204 828
4.719999961555 811
4.73999996110797 823
4.75999996066093 809
4.7799999602139 781
4.79999995976686 781
4.81999995931983 825
4.83999995887279 788
4.85999995842576 788
4.87999995797873 763
4.89999995753169 821
4.91999995708466 757
4.93999995663762 793
4.95999995619059 741
4.97999995574355 815
4.99999995529652 783
5.01999995484948 818
5.03999995440245 762
5.05999995395541 812
5.07999995350838 794
5.09999995306134 831
5.11999995261431 789
5.13999995216727 830
5.15999995172024 810
5.1799999512732 795
5.19999995082617 833
5.21999995037913 847
5.2399999499321 873
5.25999994948506 828
5.27999994903803 801
5.29999994859099 832
5.31999994814396 900
5.33999994769692 888
5.35999994724989 973
5.37999994680285 1055
5.39999994635582 1149
5.41999994590878 1125
5.43999994546175 1016
5.45999994501471 857
5.47999994456768 883
5.49999994412065 876
5.51999994367361 871
5.53999994322658 921
5.55999994277954 965
5.57999994233251 947
5.59999994188547 1023
5.61999994143844 1029
5.6399999409914 1063
5.65999994054437 1062
5.67999994009733 1134
5.6999999396503 1230
5.71999993920326 1372
5.73999993875623 1434
5.75999993830919 1735
5.77999993786216 1897
5.79999993741512 1642
5.81999993696809 1107
5.83999993652105 866
5.85999993607402 698
5.87999993562698 703
5.89999993517995 746
5.91999993473291 659
5.93999993428588 647
5.95999993383884 684
5.97999993339181 663
5.99999993294477 611
6.01999993249774 650
6.0399999320507 642
6.05999993160367 650
6.07999993115663 617
6.0999999307096 641
6.11999993026257 629
6.13999992981553 618
6.1599999293685 611
6.17999992892146 598
6.19999992847443 615
6.21999992802739 641
6.23999992758036 618
6.25999992713332 663
6.27999992668629 622
6.29999992623925 595
6.31999992579222 647
6.33999992534518 658
6.35999992489815 620
6.37999992445111 649
6.39999992400408 647
6.41999992355704 654
6.43999992311001 600
6.45999992266297 625
6.47999992221594 614
6.4999999217689 654
6.51999992132187 667
6.53999992087483 656
6.5599999204278 639
6.57999991998076 630
6.59999991953373 622
6.61999991908669 662
6.63999991863966 683
6.65999991819262 661
6.67999991774559 643
6.69999991729855 634
6.71999991685152 710
6.73999991640449 738
6.75999991595745 760
6.77999991551042 722
6.79999991506338 650
6.81999991461635 646
6.83999991416931 641
6.85999991372228 619
6.87999991327524 607
6.89999991282821 619
6.91999991238117 595
6.93999991193414 554
6.9599999114871 594
6.97999991104007 619
6.99999991059303 572
7.019999910146 599
7.03999990969896 626
7.05999990925193 610
7.07999990880489 620
7.09999990835786 610
7.11999990791082 566
7.13999990746379 589
7.15999990701675 613
7.17999990656972 627
7.19999990612268 616
7.21999990567565 610
7.23999990522861 578
7.25999990478158 563
7.27999990433454 550
7.29999990388751 654
7.31999990344047 583
7.33999990299344 580
7.35999990254641 628
7.37999990209937 569
7.39999990165234 561
7.4199999012053 569
7.43999990075827 592
7.45999990031123 590
7.4799998998642 578
7.49999989941716 604
7.51999989897013 592
7.53999989852309 577
7.55999989807606 597
7.57999989762902 597
7.59999989718199 606
7.61999989673495 567
7.63999989628792 598
7.65999989584088 588
7.67999989539385 614
7.69999989494681 617
7.71999989449978 591
7.73999989405274 621
7.75999989360571 620
7.77999989315867 649
7.79999989271164 613
7.8199998922646 595
7.83999989181757 632
7.85999989137053 547
7.8799998909235 599
7.89999989047646 634
7.91999989002943 558
7.9399998895824 535
7.95999988913536 619
7.97999988868833 568
7.99999988824129 577
8.01999988779426 646
8.03999988734722 632
8.05999988690019 576
8.07999988645315 597
8.09999988600612 634
8.11999988555908 617
8.13999988511205 654
8.15999988466501 640
8.17999988421798 590
8.19999988377094 530
8.21999988332391 610
8.23999988287687 575
8.25999988242984 596
8.2799998819828 607
8.29999988153577 588
8.31999988108873 540
8.3399998806417 585
8.35999988019466 561
8.37999987974763 592
8.39999987930059 608
8.41999987885356 601
8.43999987840652 601
8.45999987795949 572
8.47999987751245 604
8.49999987706542 619
8.51999987661839 603
8.53999987617135 573
8.55999987572432 602
8.57999987527728 585
8.59999987483025 580
8.61999987438321 604
8.63999987393618 550
8.65999987348914 572
8.67999987304211 604
8.69999987259507 593
8.71999987214804 583
8.739999871701 605
8.75999987125397 623
8.77999987080693 571
8.7999998703599 592
8.81999986991286 555
8.83999986946583 614
8.85999986901879 583
8.87999986857176 592
8.89999986812472 572
8.91999986767769 623
8.93999986723065 609
8.95999986678362 590
8.97999986633658 572
8.99999986588955 598
9.01999986544251 612
9.03999986499548 587
9.05999986454844 610
9.07999986410141 623
9.09999986365438 606
9.11999986320734 605
9.13999986276031 596
9.15999986231327 626
9.17999986186624 647
9.1999998614192 647
9.21999986097217 649
9.23999986052513 669
9.2599998600781 774
9.27999985963106 747
9.29999985918403 789
9.31999985873699 828
9.33999985828996 893
9.35999985784292 823
9.37999985739589 703
9.39999985694885 625
9.41999985650182 605
9.43999985605478 575
9.45999985560775 587
9.47999985516071 600
9.49999985471368 608
9.51999985426664 591
9.53999985381961 592
9.55999985337257 611
9.57999985292554 558
9.5999998524785 593
9.61999985203147 578
9.63999985158443 577
9.6599998511374 606
9.67999985069037 578
9.69999985024333 553
9.7199998497963 649
9.73999984934926 594
9.75999984890223 560
9.77999984845519 629
9.79999984800816 588
9.81999984756112 569
9.83999984711409 574
9.85999984666705 566
9.87999984622002 591
9.89999984577298 585
9.91999984532595 582
9.93999984487891 606
9.95999984443188 598
9.97999984398484 582
9.99999984353781 596
10.0199998430908 606
10.0399998426437 607
10.0599998421967 612
10.0799998417497 605
10.0999998413026 596
10.1199998408556 648
10.1399998404086 595
10.1599998399615 704
10.1799998395145 654
10.1999998390675 688
10.2199998386204 622
10.2399998381734 600
10.2599998377264 590
10.2799998372793 575
10.2999998368323 609
10.3199998363853 602
10.3399998359382 554
10.3599998354912 580
10.3799998350441 568
10.3999998345971 565
10.4199998341501 614
10.439999833703 569
10.459999833256 543
10.479999832809 572
10.4999998323619 572
10.5199998319149 563
10.5399998314679 547
10.5599998310208 546
10.5799998305738 612
10.5999998301268 632
10.6199998296797 611
10.6399998292327 581
10.6599998287857 605
10.6799998283386 628
10.6999998278916 591
10.7199998274446 625
10.7399998269975 610
10.7599998265505 618
10.7799998261034 645
10.7999998256564 618
10.8199998252094 622
10.8399998247623 610
10.8599998243153 614
10.8799998238683 628
10.8999998234212 624
10.9199998229742 682
10.9399998225272 716
10.9599998220801 796
10.9799998216331 743
10.9999998211861 642
11.019999820739 629
11.039999820292 595
11.059999819845 568
11.0799998193979 562
11.0999998189509 575
11.1199998185039 626
11.1399998180568 585
11.1599998176098 576
11.1799998171628 557
11.1999998167157 571
11.2199998162687 586
11.2399998158216 584
11.2599998153746 565
11.2799998149276 600
11.2999998144805 604
11.3199998140335 614
11.3399998135865 577
11.3599998131394 618
11.3799998126924 541
11.3999998122454 576
11.4199998117983 560
11.4399998113513 626
11.4599998109043 689
11.4799998104572 676
11.4999998100102 655
11.5199998095632 673
11.5399998091161 634
11.5599998086691 609
11.5799998082221 625
11.599999807775 625
11.619999807328 594
11.639999806881 594
11.6599998064339 585
11.6799998059869 612
11.6999998055398 592
11.7199998050928 580
11.7399998046458 599
11.7599998041987 631
11.7799998037517 578
11.7999998033047 573
11.8199998028576 570
11.8399998024106 596
11.8599998019636 575
11.8799998015165 606
11.8999998010695 571
11.9199998006225 572
11.9399998001754 565
11.9599997997284 554
11.9799997992814 579
11.9999997988343 583
12.0199997983873 566
12.0399997979403 648
12.0599997974932 577
12.0799997970462 586
12.0999997965992 603
12.1199997961521 607
12.1399997957051 633
12.159999795258 628
12.179999794811 583
12.199999794364 642
12.2199997939169 640
12.2399997934699 618
12.2599997930229 571
12.2799997925758 631
12.2999997921288 580
12.3199997916818 595
12.3399997912347 589
12.3599997907877 616
12.3799997903407 592
12.3999997898936 589
12.4199997894466 575
12.4399997889996 590
12.4599997885525 606
12.4799997881055 564
12.4999997876585 577
12.5199997872114 585
12.5399997867644 601
12.5599997863173 637
12.5799997858703 548
12.5999997854233 624
12.6199997849762 604
12.6399997845292 591
12.6599997840822 572
12.6799997836351 603
12.6999997831881 605
12.7199997827411 562
12.739999782294 563
12.759999781847 617
12.7799997814 583
12.7999997809529 632
12.8199997805059 621
12.8399997800589 595
12.8599997796118 574
12.8799997791648 631
12.8999997787178 572
12.9199997782707 595
12.9399997778237 629
12.9599997773767 624
12.9799997769296 644
12.9999997764826 600
13.0199997760355 621
13.0399997755885 596
13.0599997751415 634
13.0799997746944 598
13.0999997742474 609
13.1199997738004 632
13.1399997733533 628
13.1599997729063 653
13.1799997724593 597
13.1999997720122 614
13.2199997715652 612
13.2399997711182 664
13.2599997706711 631
13.2799997702241 654
13.2999997697771 660
13.31999976933 629
13.339999768883 626
13.359999768436 663
13.3799997679889 659
13.3999997675419 644
13.4199997670949 662
13.4399997666478 660
13.4599997662008 625
13.4799997657537 659
13.4999997653067 646
13.5199997648597 632
13.5399997644126 605
13.5599997639656 617
13.5799997635186 644
13.5999997630715 621
13.6199997626245 669
13.6399997621775 614
13.6599997617304 655
13.6799997612834 655
13.6999997608364 643
13.7199997603893 621
13.7399997599423 659
13.7599997594953 654
13.7799997590482 626
13.7999997586012 619
13.8199997581542 653
13.8399997577071 660
13.8599997572601 624
13.879999756813 658
13.899999756366 662
13.919999755919 651
13.9399997554719 680
13.9599997550249 617
13.9799997545779 584
13.9999997541308 705
14.0199997536838 663
14.0399997532368 632
14.0599997527897 609
14.0799997523427 652
14.0999997518957 658
14.1199997514486 666
14.1399997510016 630
14.1599997505546 669
14.1799997501075 674
14.1999997496605 703
14.2199997492135 659
14.2399997487664 652
14.2599997483194 637
14.2799997478724 648
14.2999997474253 694
14.3199997469783 676
14.3399997465312 687
14.3599997460842 669
14.3799997456372 665
14.3999997451901 659
14.4199997447431 670
14.4399997442961 657
14.459999743849 675
14.479999743402 694
14.499999742955 667
14.5199997425079 660
14.5399997420609 662
14.5599997416139 697
14.5799997411668 689
14.5999997407198 676
14.6199997402728 668
14.6399997398257 665
14.6599997393787 634
14.6799997389317 694
14.6999997384846 689
14.7199997380376 715
14.7399997375906 726
14.7599997371435 699
14.7799997366965 655
14.7999997362494 729
14.8199997358024 763
14.8399997353554 711
14.8599997349083 744
14.8799997344613 740
14.8999997340143 713
14.9199997335672 710
14.9399997331202 699
14.9599997326732 737
14.9799997322261 754
14.9999997317791 707
15.0199997313321 729
15.039999730885 762
15.059999730438 681
15.079999729991 685
15.0999997295439 731
15.1199997290969 742
15.1399997286499 726
15.1599997282028 736
15.1799997277558 713
15.1999997273088 773
15.2199997268617 726
15.2399997264147 744
15.2599997259676 749
15.2799997255206 739
15.2999997250736 728
15.3199997246265 754
15.3399997241795 744
15.3599997237325 759
15.3799997232854 778
15.3999997228384 730
15.4199997223914 787
15.4399997219443 749
15.4599997214973 754
15.4799997210503 735
15.4999997206032 760
15.5199997201562 747
15.5399997197092 781
15.5599997192621 719
15.5799997188151 787
15.5999997183681 773
15.619999717921 808
15.639999717474 789
15.659999717027 767
15.6799997165799 792
15.6999997161329 773
15.7199997156858 798
15.7399997152388 758
15.7599997147918 783
15.7799997143447 792
15.7999997138977 743
15.8199997134507 809
15.8399997130036 775
15.8599997125566 770
15.8799997121096 810
15.8999997116625 760
15.9199997112155 784
15.9399997107685 754
15.9599997103214 802
15.9799997098744 783
15.9999997094274 837
16.0199997089803 809
16.0399997085333 780
16.0599997080863 813
16.0799997076392 731
16.0999997071922 810
16.1199997067451 860
16.1399997062981 832
16.1599997058511 854
16.179999705404 836
16.199999704957 770
16.21999970451 815
16.2399997040629 810
16.2599997036159 847
16.2799997031689 847
16.2999997027218 912
16.3199997022748 877
16.3399997018278 883
16.3599997013807 836
16.3799997009337 848
16.3999997004867 896
16.4199997000396 834
16.4399996995926 905
16.4599996991456 824
16.4799996986985 799
16.4999996982515 885
16.5199996978045 915
16.5399996973574 868
16.5599996969104 905
16.5799996964633 891
16.5999996960163 874
16.6199996955693 907
16.6399996951222 883
16.6599996946752 902
16.6799996942282 855
16.6999996937811 873
16.7199996933341 934
16.7399996928871 948
16.75999969244 955
16.779999691993 1029
16.799999691546 1044
16.8199996910989 1071
16.8399996906519 1002
16.8599996902049 1107
16.8799996897578 1244
16.8999996893108 1376
16.9199996888638 1414
16.9399996884167 1582
16.9599996879697 1765
16.9799996875226 1960
16.9999996870756 2069
17.0199996866286 1908
17.0399996861815 1714
17.0599996857345 1464
17.0799996852875 1231
17.0999996848404 1054
17.1199996843934 1022
17.1399996839464 997
17.1599996834993 959
17.1799996830523 999
17.1999996826053 976
17.2199996821582 1016
17.2399996817112 967
17.2599996812642 1011
17.2799996808171 985
17.2999996803701 978
17.3199996799231 926
17.339999679476 956
17.359999679029 993
17.379999678582 975
17.3999996781349 950
17.4199996776879 985
17.4399996772408 980
17.4599996767938 961
17.4799996763468 924
17.4999996758997 998
17.5199996754527 998
17.5399996750057 1014
17.5599996745586 1078
17.5799996741116 945
17.5999996736646 964
17.6199996732175 978
17.6399996727705 1000
17.6599996723235 992
17.6799996718764 1003
17.6999996714294 985
17.7199996709824 992
17.7399996705353 1040
17.7599996700883 1053
17.7799996696413 989
17.7999996691942 990
17.8199996687472 1003
17.8399996683002 1062
17.8599996678531 1073
17.8799996674061 988
17.899999666959 1074
17.919999666512 1004
17.939999666065 1037
17.9599996656179 994
17.9799996651709 1047
17.9999996647239 1083
18.0199996642768 1085
18.0399996638298 1026
18.0599996633828 1074
18.0799996629357 1065
18.0999996624887 1012
18.1199996620417 1018
18.1399996615946 1064
18.1599996611476 1063
18.1799996607006 1030
18.1999996602535 1054
18.2199996598065 1088
18.2399996593595 1110
18.2599996589124 1079
18.2799996584654 1083
18.2999996580184 1054
18.3199996575713 1049
18.3399996571243 1048
18.3599996566772 1092
18.3799996562302 1080
18.3999996557832 1134
18.4199996553361 1068
18.4399996548891 1133
18.4599996544421 1124
18.479999653995 1089
18.499999653548 1129
18.519999653101 1068
18.5399996526539 1141
18.5599996522069 1088
18.5799996517599 1120
18.5999996513128 1182
18.6199996508658 1169
18.6399996504188 1207
18.6599996499717 1093
18.6799996495247 1189
18.6999996490777 1146
18.7199996486306 1124
18.7399996481836 1138
18.7599996477366 1215
18.7799996472895 1222
18.7999996468425 1218
18.8199996463954 1178
18.8399996459484 1218
18.8599996455014 1229
18.8799996450543 1166
18.8999996446073 1121
18.9199996441603 1216
18.9399996437132 1165
18.9599996432662 1219
18.9799996428192 1201
18.9999996423721 1253
19.0199996419251 1178
19.0399996414781 1213
19.059999641031 1212
19.079999640584 1255
19.099999640137 1286
19.1199996396899 1285
19.1399996392429 1277
19.1599996387959 1333
19.1799996383488 1273
19.1999996379018 1208
19.2199996374547 1212
19.2399996370077 1266
19.2599996365607 1219
19.2799996361136 1232
19.2999996356666 1242
19.3199996352196 1260
19.3399996347725 1237
19.3599996343255 1241
19.3799996338785 1223
19.3999996334314 1248
19.4199996329844 1326
19.4399996325374 1326
19.4599996320903 1307
19.4799996316433 1255
19.4999996311963 1282
19.5199996307492 1316
19.5399996303022 1344
19.5599996298552 1278
19.5799996294081 1297
19.5999996289611 1331
19.6199996285141 1317
19.639999628067 1226
19.65999962762 1305
19.6799996271729 1305
19.6999996267259 1324
19.7199996262789 1283
19.7399996258318 1201
19.7599996253848 1350
19.7799996249378 1309
19.7999996244907 1337
19.8199996240437 1356
19.8399996235967 1324
19.8599996231496 1341
19.8799996227026 1399
19.8999996222556 1337
19.9199996218085 1347
19.9399996213615 1350
19.9599996209145 1326
19.9799996204674 1256
19.9999996200204 1328
