3 2444
3.01999999955297 2280
3.03999999910593 2178
3.0599999986589 2026
3.07999999821186 1963
3.09999999776483 1789
3.11999999731779 1730
3.13999999687076 1761
3.15999999642372 1664
3.17999999597669 1679
3.19999999552965 1607
3.21999999508262 1553
3.23999999463558 1614
3.25999999418855 1608
3.27999999374151 1479
3.29999999329448 1518
3.31999999284744 1500
3.33999999240041 1473
3.35999999195337 1461
3.37999999150634 1391
3.3999999910593 1389
3.41999999061227 1421
3.43999999016523 1362
3.4599999897182 1364
3.47999998927116 1354
3.49999998882413 1317
3.51999998837709 1341
3.53999998793006 1240
3.55999998748302 1255
3.57999998703599 1342
3.59999998658895 1225
3.61999998614192 1222
3.63999998569489 1157
3.65999998524785 1194
3.67999998480082 1168
3.69999998435378 1221
3.71999998390675 1119
3.73999998345971 1105
3.75999998301268 1067
3.77999998256564 1139
3.79999998211861 1092
3.81999998167157 1071
3.83999998122454 1083
3.8599999807775 1067
3.87999998033047 1043
3.89999997988343 1049
3.9199999794364 994
3.93999997898936 1038
3.95999997854233 1049
3.97999997809529 962
3.99999997764826 973
4.01999997720122 1008
4.03999997675419 960
4.05999997630715 927
4.07999997586012 940
4.09999997541308 905
4.11999997496605 984
4.13999997451901 924
4.15999997407198 913
4.17999997362494 919
4.19999997317791 898
4.21999997273087 932
4.23999997228384 922
4.25999997183681 879
4.27999997138977 844
4.29999997094274 824
4.3199999704957 818
4.33999997004867 912
4.35999996960163 805
4.3799999691546 883
4.39999996870756 862
4.41999996826053 841
4.43999996781349 844
4.45999996736646 828
4.47999996691942 825
4.49999996647239 753
4.51999996602535 780
4.53999996557832 805
4.55999996513128 800
4.57999996468425 750
4.59999996423721 732
4.61999996379018 767
4.63999996334314 762
4.65999996289611 702
4.67999996244907 735
4.69999996200204 730
4.719999961555 732
4.73999996110797 738
4.75999996066093 700
4.7799999602139 718
4.79999995976686 714
4.81999995931983 738
4.83999995887279 719
4.85999995842576 694
4.87999995797873 632
4.89999995753169 721
4.91999995708466 759
4.93999995663762 684
4.95999995619059 748
4.97999995574355 701
4.99999995529652 678
5.01999995484948 693
5.03999995440245 695
5.05999995395541 715
5.07999995350838 643
5.09999995306134 667
5.11999995261431 710
5.13999995216727 650
5.15999995172024 670
5.1799999512732 688
5.19999995082617 673
5.21999995037913 641
5.2399999499321 647
5.25999994948506 617
5.27999994903803 659
5.29999994859099 679
5.31999994814396 635
5.33999994769692 659
5.35999994724989 669
5.37999994680285 654
5.39999994635582 633
5.41999994590878 640
5.43999994546175 643
5.45999994501471 663
5.47999994456768 705
5.49999994412065 668
5.51999994367361 651
5.53999994322658 667
5.55999994277954 710
5.57999994233251 638
5.59999994188547 666
5.61999994143844 650
5.6399999409914 680
5.65999994054437 699
5.67999994009733 684
5.6999999396503 665
5.71999993920326 645
5.73999993875623 670
5.75999993830919 669
5.77999993786216 656
5.79999993741512 660
5.81999993696809 637
5.83999993652105 606
5.85999993607402 648
5.87999993562698 617
5.89999993517995 616
5.91999993473291 647
5.93999993428588 665
5.95999993383884 609
5.97999993339181 582
5.99999993294477 625
6.01999993249774 635
6.0399999320507 637
6.05999993160367 616
6.07999993115663 614
6.0999999307096 637
6.11999993026257 676
6.13999992981553 667
6.1599999293685 593
6.17999992892146 653
6.19999992847443 618
6.21999992802739 608
6.23999992758036 615
6.25999992713332 613
6.27999992668629 638
6.29999992623925 658
6.31999992579222 662
6.33999992534518 591
6.35999992489815 615
6.37999992445111 626
6.39999992400408 626
6.41999992355704 659
6.43999992311001 647
6.45999992266297 605
6.47999992221594 667
6.4999999217689 621
6.51999992132187 657
6.53999992087483 605
6.5599999204278 646
6.57999991998076 653
6.59999991953373 650
6.61999991908669 645
6.63999991863966 651
6.65999991819262 676
6.67999991774559 661
6.69999991729855 641
6.71999991685152 664
6.73999991640449 658
6.75999991595745 645
6.77999991551042 610
6.79999991506338 598
6.81999991461635 641
6.83999991416931 653
6.85999991372228 609
6.87999991327524 612
6.89999991282821 599
6.91999991238117 679
6.93999991193414 623
6.9599999114871 634
6.97999991104007 641
6.99999991059303 650
7.019999910146 647
7.03999990969896 617
7.05999990925193 637
7.07999990880489 662
7.09999990835786 645
7.11999990791082 666
7.13999990746379 653
7.15999990701675 678
7.17999990656972 635
7.19999990612268 674
7.21999990567565 650
7.23999990522861 632
7.25999990478158 656
7.27999990433454 658
7.29999990388751 654
7.31999990344047 654
7.33999990299344 637
7.35999990254641 645
7.37999990209937 660
7.39999990165234 612
7.4199999012053 641
7.43999990075827 658
7.45999990031123 686
7.4799998998642 677
7.49999989941716 646
7.51999989897013 655
7.53999989852309 653
7.55999989807606 663
7.57999989762902 658
7.59999989718199 627
7.61999989673495 590
7.63999989628792 609
7.65999989584088 645
7.67999989539385 705
7.69999989494681 639
7.71999989449978 648
7.73999989405274 656
7.75999989360571 640
7.77999989315867 667
7.79999989271164 642
7.8199998922646 646
7.83999989181757 605
7.85999989137053 666
7.8799998909235 675
7.89999989047646 673
7.91999989002943 631
7.9399998895824 635
7.95999988913536 631
7.97999988868833 640
7.99999988824129 640
8.01999988779426 629
8.03999988734722 622
8.05999988690019 666
8.07999988645315 683
8.09999988600612 667
8.11999988555908 650
8.13999988511205 631
8.15999988466501 656
8.17999988421798 677
8.19999988377094 654
8.21999988332391 682
8.23999988287687 639
8.25999988242984 697
8.2799998819828 671
8.29999988153577 721
8.31999988108873 688
8.3399998806417 713
8.35999988019466 727
8.37999987974763 646
8.39999987930059 691
8.41999987885356 703
8.43999987840652 681
8.45999987795949 722
8.47999987751245 726
8.49999987706542 728
8.51999987661839 753
8.53999987617135 766
8.55999987572432 762
8.57999987527728 738
8.59999987483025 725
8.61999987438321 762
8.63999987393618 765
8.65999987348914 743
8.67999987304211 786
8.69999987259507 809
8.71999987214804 753
8.739999871701 795
8.75999987125397 837
8.77999987080693 822
8.7999998703599 888
8.81999986991286 906
8.83999986946583 911
8.85999986901879 912
8.87999986857176 971
8.89999986812472 1042
8.91999986767769 1115
8.93999986723065 1183
8.95999986678362 1262
8.97999986633658 1251
8.99999986588955 1235
9.01999986544251 1206
9.03999986499548 1213
9.05999986454844 1129
9.07999986410141 1126
9.09999986365438 1124
9.11999986320734 1148
9.13999986276031 1121
9.15999986231327 1131
9.17999986186624 1021
9.1999998614192 1000
9.21999986097217 987
9.23999986052513 978
9.2599998600781 968
9.27999985963106 980
9.29999985918403 993
9.31999985873699 963
9.33999985828996 1004
9.35999985784292 977
9.37999985739589 957
9.39999985694885 887
9.41999985650182 882
9.43999985605478 875
9.45999985560775 756
9.47999985516071 804
9.49999985471368 828
9.51999985426664 777
9.53999985381961 789
9.55999985337257 765
9.57999985292554 769
9.5999998524785 798
9.61999985203147 785
9.63999985158443 825
9.6599998511374 751
9.67999985069037 825
9.69999985024333 799
9.7199998497963 839
9.73999984934926 850
9.75999984890223 831
9.77999984845519 904
9.79999984800816 880
9.81999984756112 902
9.83999984711409 997
9.85999984666705 988
9.87999984622002 1041
9.89999984577298 1033
9.91999984532595 1059
9.93999984487891 1161
9.95999984443188 1142
9.97999984398484 1199
9.99999984353781 1218
10.0199998430908 1237
10.0399998426437 1208
10.0599998421967 1156
10.0799998417497 1070
10.0999998413026 1063
10.1199998408556 973
10.1399998404086 974
10.1599998399615 920
10.1799998395145 820
10.1999998390675 836
10.2199998386204 808
10.2399998381734 820
10.2599998377264 785
10.2799998372793 762
10.2999998368323 780
10.3199998363853 811
10.3399998359382 733
10.3599998354912 795
10.3799998350441 768
10.3999998345971 810
10.4199998341501 782
10.439999833703 766
10.459999833256 706
10.479999832809 733
10.4999998323619 703
10.5199998319149 699
10.5399998314679 745
10.5599998310208 712
10.5799998305738 749
10.5999998301268 711
10.6199998296797 746
10.6399998292327 753
10.6599998287857 705
10.6799998283386 724
10.6999998278916 736
10.7199998274446 689
10.7399998269975 711
10.7599998265505 705
10.7799998261034 629
10.7999998256564 691
10.8199998252094 735
10.8399998247623 689
10.8599998243153 659
10.8799998238683 669
10.8999998234212 661
10.9199998229742 707
10.9399998225272 735
10.9599998220801 725
10.9799998216331 650
10.9999998211861 676
11.019999820739 654
11.039999820292 632
11.059999819845 622
11.0799998193979 596
11.0999998189509 621
11.1199998185039 606
11.1399998180568 595
11.1599998176098 581
11.1799998171628 594
11.1999998167157 605
11.2199998162687 606
11.2399998158216 584
11.2599998153746 563
11.2799998149276 585
11.2999998144805 571
11.3199998140335 587
11.3399998135865 562
11.3599998131394 592
11.3799998126924 593
11.3999998122454 591
11.4199998117983 577
11.4399998113513 511
11.4599998109043 543
11.4799998104572 596
11.4999998100102 564
11.5199998095632 506
11.5399998091161 540
11.5599998086691 543
11.5799998082221 540
11.599999807775 543
11.619999807328 578
11.639999806881 543
11.6599998064339 509
11.6799998059869 563
11.6999998055398 542
11.7199998050928 544
11.7399998046458 524
11.7599998041987 517
11.7799998037517 567
11.7999998033047 542
11.8199998028576 512
11.8399998024106 587
11.8599998019636 514
11.8799998015165 576
11.8999998010695 552
11.9199998006225 579
11.9399998001754 541
11.9599997997284 548
11.9799997992814 615
11.9999997988343 549
12.0199997983873 570
12.0399997979403 542
12.0599997974932 557
12.0799997970462 543
12.0999997965992 526
12.1199997961521 534
12.1399997957051 528
12.159999795258 540
12.179999794811 564
12.199999794364 547
12.2199997939169 558
12.2399997934699 576
12.2599997930229 574
12.2799997925758 585
12.2999997921288 555
12.3199997916818 592
12.3399997912347 596
12.3599997907877 563
12.3799997903407 577
12.3999997898936 599
12.4199997894466 571
12.4399997889996 573
12.4599997885525 663
12.4799997881055 671
12.4999997876585 676
12.5199997872114 702
12.5399997867644 726
12.5599997863173 704
12.5799997858703 745
12.5999997854233 818
12.6199997849762 885
12.6399997845292 880
12.6599997840822 886
12.6799997836351 900
12.6999997831881 866
12.7199997827411 828
12.739999782294 766
12.759999781847 774
12.7799997814 710
12.7999997809529 690
12.8199997805059 641
12.8399997800589 633
12.8599997796118 625
12.8799997791648 576
12.8999997787178 661
12.9199997782707 608
12.9399997778237 606
12.9599997773767 583
12.9799997769296 602
12.9999997764826 600
13.0199997760355 555
13.0399997755885 584
13.0599997751415 560
13.0799997746944 576
13.0999997742474 577
13.1199997738004 612
13.1399997733533 644
13.1599997729063 568
13.1799997724593 568
13.1999997720122 615
13.2199997715652 593
13.2399997711182 596
13.2599997706711 660
13.2799997702241 630
13.2999997697771 578
13.31999976933 627
13.339999768883 579
13.359999768436 569
13.3799997679889 565
13.3999997675419 617
13.4199997670949 598
13.4399997666478 558
13.4599997662008 619
13.4799997657537 569
13.4999997653067 612
13.5199997648597 593
13.5399997644126 613
13.5599997639656 589
13.5799997635186 596
13.5999997630715 615
13.6199997626245 579
13.6399997621775 585
13.6599997617304 583
13.6799997612834 646
13.6999997608364 550
13.7199997603893 631
13.7399997599423 606
13.7599997594953 567
13.7799997590482 580
13.7999997586012 591
13.8199997581542 585
13.8399997577071 633
13.8599997572601 564
13.879999756813 601
13.899999756366 623
13.919999755919 585
13.9399997554719 612
13.9599997550249 606
13.9799997545779 586
13.9999997541308 622
14.0199997536838 604
14.0399997532368 577
14.0599997527897 611
14.0799997523427 558
14.0999997518957 584
14.1199997514486 596
14.1399997510016 550
14.1599997505546 590
14.1799997501075 602
14.1999997496605 614
14.2199997492135 553
14.2399997487664 594
14.2599997483194 619
14.2799997478724 571
14.2999997474253 582
14.3199997469783 602
14.3399997465312 622
14.3599997460842 602
14.3799997456372 596
14.3999997451901 596
14.4199997447431 604
14.4399997442961 618
14.459999743849 654
14.479999743402 619
14.499999742955 635
14.5199997425079 633
14.5399997420609 640
14.5599997416139 633
14.5799997411668 611
14.5999997407198 591
14.6199997402728 645
14.6399997398257 678
14.6599997393787 617
14.6799997389317 603
14.6999997384846 603
14.7199997380376 631
14.7399997375906 599
14.7599997371435 610
14.7799997366965 589
14.7999997362494 603
14.8199997358024 611
14.8399997353554 584
14.8599997349083 589
14.8799997344613 613
14.8999997340143 643
14.9199997335672 609
14.9399997331202 553
14.9599997326732 634
14.9799997322261 586
14.9999997317791 675
15.0199997313321 645
15.039999730885 604
15.059999730438 627
15.079999729991 637
15.0999997295439 603
15.1199997290969 641
15.1399997286499 596
15.1599997282028 634
15.1799997277558 644
15.1999997273088 628
15.2199997268617 624
15.2399997264147 621
15.2599997259676 596
15.2799997255206 605
15.2999997250736 628
15.3199997246265 602
15.3399997241795 652
15.3599997237325 648
15.3799997232854 663
15.3999997228384 592
15.4199997223914 644
15.4399997219443 663
15.4599997214973 634
15.4799997210503 631
15.4999997206032 632
15.5199997201562 661
15.5399997197092 647
15.5599997192621 611
15.5799997188151 621
15.5999997183681 675
15.619999717921 631
15.639999717474 659
15.659999717027 648
15.6799997165799 618
15.6999997161329 660
15.7199997156858 656
15.7399997152388 627
15.7599997147918 656
15.7799997143447 625
15.7999997138977 669
15.8199997134507 649
15.8399997130036 619
15.8599997125566 656
15.8799997121096 662
15.8999997116625 657
15.9199997112155 658
15.9399997107685 673
15.9599997103214 680
15.9799997098744 680
15.9999997094274 677
16.0199997089803 664
16.0399997085333 616
16.0599997080863 678
16.0799997076392 698
16.0999997071922 655
16.1199997067451 694
16.1399997062981 681
16.1599997058511 669
16.179999705404 694
16.199999704957 710
16.21999970451 684
16.2399997040629 666
16.2599997036159 686
16.2799997031689 658
16.2999997027218 735
16.3199997022748 655
16.3399997018278 702
16.3599997013807 675
16.3799997009337 676
16.3999997004867 697
16.4199997000396 659
16.4399996995926 747
16.4599996991456 744
16.4799996986985 660
16.4999996982515 690
16.5199996978045 751
16.5399996973574 712
16.5599996969104 708
16.5799996964633 698
16.5999996960163 725
16.6199996955693 790
16.6399996951222 775
16.6599996946752 743
16.6799996942282 697
16.6999996937811 695
16.7199996933341 788
16.7399996928871 792
16.75999969244 809
16.779999691993 800
16.799999691546 791
16.8199996910989 871
16.8399996906519 849
16.8599996902049 878
16.8799996897578 964
16.8999996893108 999
16.9199996888638 1087
16.9399996884167 1216
16.9599996879697 1388
16.9799996875226 1422
16.9999996870756 1436
17.0199996866286 1411
17.0399996861815 1379
17.0599996857345 1228
17.0799996852875 1089
17.0999996848404 968
17.1199996843934 942
17.1399996839464 870
17.1599996834993 841
17.1799996830523 824
17.1999996826053 783
17.2199996821582 786
17.2399996817112 754
17.2599996812642 768
17.2799996808171 771
17.2999996803701 778
17.3199996799231 786
17.339999679476 817
17.359999679029 777
17.379999678582 802
17.3999996781349 794
17.4199996776879 756
17.4399996772408 796
17.4599996767938 773
17.4799996763468 716
17.4999996758997 803
17.5199996754527 817
17.5399996750057 805
17.5599996745586 766
17.5799996741116 787
17.5999996736646 820
17.6199996732175 828
17.6399996727705 787
17.6599996723235 802
17.6799996718764 845
17.6999996714294 817
17.7199996709824 818
17.7399996705353 837
17.7599996700883 851
17.7799996696413 882
17.7999996691942 791
17.8199996687472 868
17.8399996683002 858
17.8599996678531 890
17.8799996674061 855
17.899999666959 870
17.919999666512 862
17.939999666065 879
17.9599996656179 821
17.9799996651709 844
17.9999996647239 839
18.0199996642768 835
18.0399996638298 826
18.0599996633828 892
18.0799996629357 891
18.0999996624887 833
18.1199996620417 846
18.1399996615946 861
18.1599996611476 914
18.1799996607006 898
18.1999996602535 950
18.2199996598065 930
18.2399996593595 897
18.2599996589124 868
18.2799996584654 876
18.2999996580184 871
18.3199996575713 897
18.3399996571243 947
18.3599996566772 927
18.3799996562302 903
18.3999996557832 914
18.4199996553361 956
18.4399996548891 944
18.4599996544421 934
18.479999653995 933
18.499999653548 919
18.519999653101 909
18.5399996526539 915
18.5599996522069 976
18.5799996517599 944
18.5999996513128 915
18.6199996508658 959
18.6399996504188 945
18.6599996499717 970
18.6799996495247 915
18.6999996490777 989
18.7199996486306 952
18.7399996481836 944
18.7599996477366 932
18.7799996472895 916
18.7999996468425 994
18.8199996463954 960
18.8399996459484 936
18.8599996455014 978
18.8799996450543 976
18.8999996446073 1006
18.9199996441603 937
18.9399996437132 926
18.9599996432662 1008
18.9799996428192 998
18.9999996423721 988
19.0199996419251 989
19.0399996414781 961
19.059999641031 989
19.079999640584 997
19.099999640137 959
19.1199996396899 960
19.1399996392429 1003
19.1599996387959 1028
19.1799996383488 989
19.1999996379018 945
19.2199996374547 1108
19.2399996370077 1024
19.2599996365607 1010
19.2799996361136 986
19.2999996356666 990
19.3199996352196 965
19.3399996347725 1014
19.3599996343255 1014
19.3799996338785 1009
19.3999996334314 1045
19.4199996329844 1010
19.4399996325374 1003
19.4599996320903 1035
19.4799996316433 1051
19.4999996311963 1029
19.5199996307492 1034
19.5399996303022 1025
19.5599996298552 1009
19.5799996294081 984
19.5999996289611 1058
19.6199996285141 1033
19.639999628067 1027
19.65999962762 1072
19.6799996271729 1126
19.6999996267259 1039
19.7199996262789 1069
19.7399996258318 1123
19.7599996253848 1062
19.7799996249378 1105
19.7999996244907 1138
19.8199996240437 1118
19.8399996235967 1099
19.8599996231496 1139
19.8799996227026 1162
19.8999996222556 1196
19.9199996218085 1191
19.9399996213615 1187
19.9599996209145 1252
19.9799996204674 1228
19.9999996200204 1241
