3 2349
3.01999999955297 2126
3.03999999910593 1936
3.0599999986589 1872
3.07999999821186 1729
3.09999999776483 1687
3.11999999731779 1647
3.13999999687076 1591
3.15999999642372 1639
3.17999999597669 1509
3.19999999552965 1482
3.21999999508262 1482
3.23999999463558 1535
3.25999999418855 1415
3.27999999374151 1522
3.29999999329448 1475
3.31999999284744 1379
3.33999999240041 1473
3.35999999195337 1369
3.37999999150634 1362
3.3999999910593 1336
3.41999999061227 1394
3.43999999016523 1348
3.4599999897182 1394
3.47999998927116 1288
3.49999998882413 1270
3.51999998837709 1362
3.53999998793006 1224
3.55999998748302 1252
3.57999998703599 1271
3.59999998658895 1329
3.61999998614192 1214
3.63999998569489 1280
3.65999998524785 1164
3.67999998480082 1280
3.69999998435378 1196
3.71999998390675 1189
3.73999998345971 1244
3.75999998301268 1171
3.77999998256564 1181
3.79999998211861 1184
3.81999998167157 1160
3.83999998122454 1138
3.8599999807775 1132
3.87999998033047 1174
3.89999997988343 1157
3.9199999794364 1154
3.93999997898936 1164
3.95999997854233 1123
3.97999997809529 1090
3.99999997764826 1126
4.01999997720122 1123
4.03999997675419 1131
4.05999997630715 1096
4.07999997586012 1187
4.09999997541308 1068
4.11999997496605 1093
4.13999997451901 1137
4.15999997407198 1104
4.17999997362494 1088
4.19999997317791 1034
4.21999997273087 1060
4.23999997228384 1067
4.25999997183681 1024
4.27999997138977 1054
4.29999997094274 1041
4.3199999704957 956
4.33999997004867 1029
4.35999996960163 1081
4.3799999691546 1002
4.39999996870756 1100
4.41999996826053 1032
4.43999996781349 980
4.45999996736646 1016
4.47999996691942 1079
4.49999996647239 1037
4.51999996602535 1031
4.53999996557832 1082
4.55999996513128 1037
4.57999996468425 997
4.59999996423721 985
4.61999996379018 1023
4.63999996334314 1047
4.65999996289611 986
4.67999996244907 1015
4.69999996200204 995
4.719999961555 1023
4.73999996110797 1047
4.75999996066093 1003
4.7799999602139 1082
4.79999995976686 991
4.81999995931983 1052
4.83999995887279 1014
4.85999995842576 975
4.87999995797873 1098
4.89999995753169 1091
4.91999995708466 980
4.93999995663762 1007
4.95999995619059 1033
4.97999995574355 1064
4.99999995529652 1054
5.01999995484948 1076
5.03999995440245 1018
5.05999995395541 1018
5.07999995350838 1069
5.09999995306134 1042
5.11999995261431 1111
5.13999995216727 1072
5.15999995172024 1105
5.1799999512732 1170
5.19999995082617 1145
5.21999995037913 1162
5.2399999499321 1170
5.25999994948506 1220
5.27999994903803 1299
5.29999994859099 1267
5.31999994814396 1340
5.33999994769692 1387
5.35999994724989 1438
5.37999994680285 1607
5.39999994635582 1749
5.41999994590878 1834
5.43999994546175 1655
5.45999994501471 1524
5.47999994456768 1453
5.49999994412065 1324
5.51999994367361 1185
5.53999994322658 1197
5.55999994277954 1082
5.57999994233251 1082
5.59999994188547 1096
5.61999994143844 1061
5.6399999409914 1108
5.65999994054437 1087
5.67999994009733 1026
5.6999999396503 1040
5.71999993920326 988
5.73999993875623 995
5.75999993830919 1000
5.77999993786216 965
5.79999993741512 937
5.81999993696809 878
5.83999993652105 885
5.85999993607402 883
5.87999993562698 890
5.89999993517995 796
5.91999993473291 865
5.93999993428588 838
5.95999993383884 820
5.97999993339181 798
5.99999993294477 777
6.01999993249774 772
6.0399999320507 759
6.05999993160367 764
6.07999993115663 816
6.0999999307096 753
6.11999993026257 756
6.13999992981553 722
6.1599999293685 738
6.17999992892146 764
6.19999992847443 700
6.21999992802739 715
6.23999992758036 722
6.25999992713332 756
6.27999992668629 723
6.29999992623925 699
6.31999992579222 756
6.33999992534518 734
6.35999992489815 698
6.37999992445111 687
6.39999992400408 681
6.41999992355704 736
6.43999992311001 678
6.45999992266297 691
6.47999992221594 698
6.4999999217689 706
6.51999992132187 681
6.53999992087483 657
6.5599999204278 656
6.57999991998076 682
6.59999991953373 706
6.61999991908669 678
6.63999991863966 704
6.65999991819262 727
6.67999991774559 715
6.69999991729855 676
6.71999991685152 714
6.73999991640449 670
6.75999991595745 694
6.77999991551042 704
6.79999991506338 724
6.81999991461635 741
6.83999991416931 644
6.85999991372228 684
6.87999991327524 651
6.89999991282821 671
6.91999991238117 623
6.93999991193414 638
6.9599999114871 679
6.97999991104007 695
6.99999991059303 651
7.019999910146 672
7.03999990969896 654
7.05999990925193 674
7.07999990880489 654
7.09999990835786 650
7.11999990791082 688
7.13999990746379 637
7.15999990701675 679
7.17999990656972 670
7.19999990612268 623
7.21999990567565 686
7.23999990522861 649
7.25999990478158 670
7.27999990433454 681
7.29999990388751 626
7.31999990344047 695
7.33999990299344 628
7.35999990254641 648
7.37999990209937 622
7.39999990165234 661
7.4199999012053 654
7.43999990075827 685
7.45999990031123 689
7.4799998998642 605
7.49999989941716 667
7.51999989897013 681
7.53999989852309 657
7.55999989807606 673
7.57999989762902 639
7.59999989718199 688
7.61999989673495 688
7.63999989628792 621
7.65999989584088 631
7.67999989539385 659
7.69999989494681 695
7.71999989449978 649
7.73999989405274 689
7.75999989360571 699
7.77999989315867 677
7.79999989271164 683
7.8199998922646 652
7.83999989181757 672
7.85999989137053 689
7.8799998909235 649
7.89999989047646 680
7.91999989002943 688
7.9399998895824 705
7.95999988913536 671
7.97999988868833 677
7.99999988824129 656
8.01999988779426 657
8.03999988734722 690
8.05999988690019 697
8.07999988645315 663
8.09999988600612 662
8.11999988555908 632
8.13999988511205 669
8.15999988466501 617
8.17999988421798 659
8.19999988377094 663
8.21999988332391 621
8.23999988287687 635
8.25999988242984 635
8.2799998819828 631
8.29999988153577 659
8.31999988108873 638
8.3399998806417 649
8.35999988019466 673
8.37999987974763 666
8.39999987930059 665
8.41999987885356 644
8.43999987840652 653
8.45999987795949 632
8.47999987751245 646
8.49999987706542 659
8.51999987661839 693
8.53999987617135 681
8.55999987572432 683
8.57999987527728 657
8.59999987483025 668
8.61999987438321 686
8.63999987393618 657
8.65999987348914 671
8.67999987304211 629
8.69999987259507 621
8.71999987214804 669
8.739999871701 694
8.75999987125397 659
8.77999987080693 642
8.7999998703599 696
8.81999986991286 669
8.83999986946583 649
8.85999986901879 681
8.87999986857176 669
8.89999986812472 669
8.91999986767769 670
8.93999986723065 694
8.95999986678362 701
8.97999986633658 719
8.99999986588955 690
9.01999986544251 692
9.03999986499548 687
9.05999986454844 776
9.07999986410141 676
9.09999986365438 737
9.11999986320734 688
9.13999986276031 715
9.15999986231327 710
9.17999986186624 707
9.1999998614192 724
9.21999986097217 749
9.23999986052513 741
9.2599998600781 859
9.27999985963106 862
9.29999985918403 920
9.31999985873699 918
9.33999985828996 978
9.35999985784292 887
9.37999985739589 805
9.39999985694885 718
9.41999985650182 713
9.43999985605478 724
9.45999985560775 685
9.47999985516071 718
9.49999985471368 673
9.51999985426664 654
9.53999985381961 672
9.55999985337257 639
9.57999985292554 604
9.5999998524785 650
9.61999985203147 635
9.63999985158443 668
9.6599998511374 667
9.67999985069037 694
9.69999985024333 644
9.7199998497963 632
9.73999984934926 627
9.75999984890223 634
9.77999984845519 633
9.79999984800816 677
9.81999984756112 644
9.83999984711409 674
9.85999984666705 631
9.87999984622002 622
9.89999984577298 641
9.91999984532595 667
9.93999984487891 642
9.95999984443188 666
9.97999984398484 651
9.99999984353781 637
10.0199998430908 666
10.0399998426437 673
10.0599998421967 689
10.0799998417497 638
10.0999998413026 661
10.1199998408556 596
10.1399998404086 665
10.1599998399615 672
10.1799998395145 628
10.1999998390675 629
10.2199998386204 644
10.2399998381734 648
10.2599998377264 627
10.2799998372793 613
10.2999998368323 617
10.3199998363853 630
10.3399998359382 643
10.3599998354912 679
10.3799998350441 626
10.3999998345971 661
10.4199998341501 615
10.439999833703 603
10.459999833256 602
10.479999832809 622
10.4999998323619 714
10.5199998319149 586
10.5399998314679 643
10.5599998310208 627
10.5799998305738 642
10.5999998301268 663
10.6199998296797 686
10.6399998292327 699
10.6599998287857 686
10.6799998283386 677
10.6999998278916 690
10.7199998274446 747
10.7399998269975 780
10.7599998265505 788
10.7799998261034 774
10.7999998256564 770
10.8199998252094 761
10.8399998247623 723
10.8599998243153 711
10.8799998238683 701
10.8999998234212 672
10.9199998229742 684
10.9399998225272 663
10.9599998220801 710
10.9799998216331 694
10.9999998211861 651
11.019999820739 637
11.039999820292 667
11.059999819845 644
11.0799998193979 613
11.0999998189509 692
11.1199998185039 676
11.1399998180568 593
11.1599998176098 635
11.1799998171628 659
11.1999998167157 631
11.2199998162687 624
11.2399998158216 600
11.2599998153746 602
11.2799998149276 620
11.2999998144805 634
11.3199998140335 624
11.3399998135865 616
11.3599998131394 624
11.3799998126924 640
11.3999998122454 606
11.4199998117983 625
11.4399998113513 640
11.4599998109043 609
11.4799998104572 608
11.4999998100102 660
11.5199998095632 688
11.5399998091161 662
11.5599998086691 661
11.5799998082221 605
11.599999807775 634
11.619999807328 619
11.639999806881 635
11.6599998064339 628
11.6799998059869 672
11.6999998055398 657
11.7199998050928 613
11.7399998046458 636
11.7599998041987 672
11.7799998037517 595
11.7999998033047 618
11.8199998028576 625
11.8399998024106 612
11.8599998019636 634
11.8799998015165 660
11.8999998010695 638
11.9199998006225 669
11.9399998001754 630
11.9599997997284 618
11.9799997992814 649
11.9999997988343 616
12.0199997983873 666
12.0399997979403 664
12.0599997974932 629
12.0799997970462 670
12.0999997965992 671
12.1199997961521 653
12.1399997957051 688
12.159999795258 603
12.179999794811 665
12.199999794364 643
12.2199997939169 609
12.2399997934699 707
12.2599997930229 692
12.2799997925758 652
12.2999997921288 677
12.3199997916818 676
12.3399997912347 646
12.3599997907877 629
12.3799997903407 644
12.3999997898936 614
12.4199997894466 644
12.4399997889996 643
12.4599997885525 630
12.4799997881055 642
12.4999997876585 679
12.5199997872114 660
12.5399997867644 647
12.5599997863173 665
12.5799997858703 662
12.5999997854233 663
12.6199997849762 654
12.6399997845292 654
12.6599997840822 626
12.6799997836351 651
12.6999997831881 647
12.7199997827411 648
12.739999782294 683
12.759999781847 693
12.7799997814 661
12.7999997809529 655
12.8199997805059 649
12.8399997800589 683
12.8599997796118 656
12.8799997791648 643
12.8999997787178 740
12.9199997782707 643
12.9399997778237 646
12.9599997773767 653
12.9799997769296 670
12.9999997764826 694
13.0199997760355 667
13.0399997755885 682
13.0599997751415 665
13.0799997746944 713
13.0999997742474 648
13.1199997738004 691
13.1399997733533 677
13.1599997729063 717
13.1799997724593 673
13.1999997720122 690
13.2199997715652 682
13.2399997711182 715
13.2599997706711 712
13.2799997702241 701
13.2999997697771 715
13.31999976933 713
13.339999768883 692
13.359999768436 679
13.3799997679889 622
13.3999997675419 710
13.4199997670949 653
13.4399997666478 692
13.4599997662008 730
13.4799997657537 643
13.4999997653067 652
13.5199997648597 698
13.5399997644126 702
13.5599997639656 624
13.5799997635186 718
13.5999997630715 687
13.6199997626245 688
13.6399997621775 695
13.6599997617304 703
13.6799997612834 698
13.6999997608364 749
13.7199997603893 725
13.7399997599423 713
13.7599997594953 687
13.7799997590482 701
13.7999997586012 720
13.8199997581542 719
13.8399997577071 681
13.8599997572601 694
13.879999756813 714
13.899999756366 733
13.919999755919 692
13.9399997554719 715
13.9599997550249 733
13.9799997545779 751
13.9999997541308 758
14.0199997536838 686
14.0399997532368 737
14.0599997527897 677
14.0799997523427 694
14.0999997518957 727
14.1199997514486 714
14.1399997510016 745
14.1599997505546 712
14.1799997501075 704
14.1999997496605 732
14.2199997492135 737
14.2399997487664 746
14.2599997483194 740
14.2799997478724 732
14.2999997474253 768
14.3199997469783 734
14.3399997465312 758
14.3599997460842 766
14.3799997456372 733
14.3999997451901 720
14.4199997447431 776
14.4399997442961 760
14.459999743849 752
14.479999743402 757
14.499999742955 721
14.5199997425079 701
14.5399997420609 716
14.5599997416139 779
14.5799997411668 781
14.5999997407198 784
14.6199997402728 738
14.6399997398257 736
14.6599997393787 751
14.6799997389317 758
14.6999997384846 724
14.7199997380376 729
14.7399997375906 776
14.7599997371435 749
14.7799997366965 779
14.7999997362494 722
14.8199997358024 767
14.8399997353554 794
14.8599997349083 777
14.8799997344613 761
14.8999997340143 793
14.9199997335672 805
14.9399997331202 814
14.9599997326732 771
14.9799997322261 731
14.9999997317791 775
15.0199997313321 785
15.039999730885 790
15.059999730438 809
15.079999729991 792
15.0999997295439 822
15.1199997290969 766
15.1399997286499 767
15.1599997282028 807
15.1799997277558 840
15.1999997273088 767
15.2199997268617 805
15.2399997264147 797
15.2599997259676 795
15.2799997255206 803
15.2999997250736 833
15.3199997246265 771
15.3399997241795 820
15.3599997237325 807
15.3799997232854 851
15.3999997228384 810
15.4199997223914 827
15.4399997219443 799
15.4599997214973 798
15.4799997210503 756
15.4999997206032 829
15.5199997201562 864
15.5399997197092 852
15.5599997192621 778
15.5799997188151 826
15.5999997183681 828
15.619999717921 822
15.639999717474 800
15.659999717027 869
15.6799997165799 838
15.6999997161329 838
15.7199997156858 871
15.7399997152388 837
15.7599997147918 880
15.7799997143447 875
15.7999997138977 884
15.8199997134507 857
15.8399997130036 886
15.8599997125566 789
15.8799997121096 847
15.8999997116625 856
15.9199997112155 884
15.9399997107685 847
15.9599997103214 866
15.9799997098744 860
15.9999997094274 809
16.0199997089803 885
16.0399997085333 911
16.0599997080863 900
16.0799997076392 921
16.0999997071922 897
16.1199997067451 872
16.1399997062981 877
16.1599997058511 895
16.179999705404 914
16.199999704957 932
16.21999970451 877
16.2399997040629 910
16.2599997036159 911
16.2799997031689 847
16.2999997027218 885
16.3199997022748 903
16.3399997018278 884
16.3599997013807 955
16.3799997009337 1017
16.3999997004867 934
16.4199997000396 900
16.4399996995926 938
16.4599996991456 935
16.4799996986985 921
16.4999996982515 925
16.5199996978045 882
16.5399996973574 982
16.5599996969104 944
16.5799996964633 983
16.5999996960163 1057
16.6199996955693 914
16.6399996951222 1019
16.6599996946752 1017
16.6799996942282 987
16.6999996937811 1021
16.7199996933341 1050
16.7399996928871 1030
16.75999969244 1003
16.779999691993 1097
16.799999691546 1065
16.8199996910989 1150
16.8399996906519 1149
16.8599996902049 1158
16.8799996897578 1294
16.8999996893108 1390
16.9199996888638 1486
16.9399996884167 1640
16.9599996879697 1825
16.9799996875226 1983
16.9999996870756 2124
17.0199996866286 1940
17.0399996861815 1683
17.0599996857345 1561
17.0799996852875 1346
17.0999996848404 1182
17.1199996843934 1069
17.1399996839464 1147
17.1599996834993 1040
17.1799996830523 1069
17.1999996826053 1078
17.2199996821582 1103
17.2399996817112 1053
17.2599996812642 1046
17.2799996808171 1082
17.2999996803701 1082
17.3199996799231 1073
17.339999679476 1047
17.359999679029 1023
17.379999678582 1056
17.3999996781349 1055
17.4199996776879 1063
17.4399996772408 1093
17.4599996767938 1067
17.4799996763468 1031
17.4999996758997 1086
17.5199996754527 1116
17.5399996750057 1118
17.5599996745586 1070
17.5799996741116 1091
17.5999996736646 1096
17.6199996732175 1103
17.6399996727705 1115
17.6599996723235 1075
17.6799996718764 1118
17.6999996714294 1149
17.7199996709824 1037
17.7399996705353 1145
17.7599996700883 1174
17.7799996696413 1172
17.7999996691942 1134
17.8199996687472 1148
17.8399996683002 1117
17.8599996678531 1186
17.8799996674061 1167
17.899999666959 1113
17.919999666512 1138
17.939999666065 1146
17.9599996656179 1110
17.9799996651709 1177
17.9999996647239 1110
18.0199996642768 1181
18.0399996638298 1175
18.0599996633828 1165
18.0799996629357 1151
18.0999996624887 1204
18.1199996620417 1158
18.1399996615946 1235
18.1599996611476 1146
18.1799996607006 1147
18.1999996602535 1167
18.2199996598065 1214
18.2399996593595 1200
18.2599996589124 1183
18.2799996584654 1145
18.2999996580184 1208
18.3199996575713 1250
18.3399996571243 1225
18.3599996566772 1248
18.3799996562302 1147
18.3999996557832 1295
18.4199996553361 1204
18.4399996548891 1199
18.4599996544421 1215
18.479999653995 1208
18.499999653548 1265
18.519999653101 1227
18.5399996526539 1273
18.5599996522069 1223
18.5799996517599 1249
18.5999996513128 1273
18.6199996508658 1281
18.6399996504188 1269
18.6599996499717 1353
18.6799996495247 1264
18.6999996490777 1237
18.7199996486306 1338
18.7399996481836 1280
18.7599996477366 1301
18.7799996472895 1300
18.7999996468425 1281
18.8199996463954 1310
18.8399996459484 1314
18.8599996455014 1301
18.8799996450543 1329
18.8999996446073 1300
18.9199996441603 1344
18.9399996437132 1352
18.9599996432662 1383
18.9799996428192 1341
18.9999996423721 1280
19.0199996419251 1321
19.0399996414781 1296
19.059999641031 1402
19.079999640584 1383
19.099999640137 1355
19.1199996396899 1315
19.1399996392429 1322
19.1599996387959 1366
19.1799996383488 1351
19.1999996379018 1336
19.2199996374547 1275
19.2399996370077 1345
19.2599996365607 1425
19.2799996361136 1394
19.2999996356666 1318
19.3199996352196 1398
19.3399996347725 1368
19.3599996343255 1405
19.3799996338785 1394
19.3999996334314 1398
19.4199996329844 1523
19.4399996325374 1489
19.4599996320903 1463
19.4799996316433 1462
19.4999996311963 1517
19.5199996307492 1383
19.5399996303022 1450
19.5599996298552 1413
19.5799996294081 1430
19.5999996289611 1393
19.6199996285141 1369
19.639999628067 1437
19.65999962762 1457
19.6799996271729 1441
19.6999996267259 1472
19.7199996262789 1463
19.7399996258318 1383
19.7599996253848 1457
19.7799996249378 1586
19.7999996244907 1444
19.8199996240437 1472
19.8399996235967 1442
19.8599996231496 1479
19.8799996227026 1458
19.8999996222556 1450
19.9199996218085 1475
19.9399996213615 1491
19.9599996209145 1396
19.9799996204674 1493
19.9999996200204 1456
