3 2265
3.01999999955297 2119
3.03999999910593 1939
3.0599999986589 1741
3.07999999821186 1787
3.09999999776483 1624
3.11999999731779 1543
3.13999999687076 1492
3.15999999642372 1502
3.17999999597669 1501
3.19999999552965 1500
3.21999999508262 1496
3.23999999463558 1394
3.25999999418855 1404
3.27999999374151 1441
3.29999999329448 1430
3.31999999284744 1362
3.33999999240041 1351
3.35999999195337 1369
3.37999999150634 1300
3.3999999910593 1312
3.41999999061227 1331
3.43999999016523 1300
3.4599999897182 1314
3.47999998927116 1233
3.49999998882413 1261
3.51999998837709 1181
3.53999998793006 1223
3.55999998748302 1193
3.57999998703599 1193
3.59999998658895 1127
3.61999998614192 1175
3.63999998569489 1138
3.65999998524785 1132
3.67999998480082 1084
3.69999998435378 1108
3.71999998390675 1138
3.73999998345971 1069
3.75999998301268 1149
3.77999998256564 1093
3.79999998211861 1065
3.81999998167157 1084
3.83999998122454 1077
3.8599999807775 1086
3.87999998033047 1036
3.89999997988343 1054
3.9199999794364 985
3.93999997898936 997
3.95999997854233 967
3.97999997809529 983
3.99999997764826 915
4.01999997720122 1003
4.03999997675419 926
4.05999997630715 963
4.07999997586012 928
4.09999997541308 923
4.11999997496605 935
4.13999997451901 866
4.15999997407198 896
4.17999997362494 872
4.19999997317791 878
4.21999997273087 930
4.23999997228384 897
4.25999997183681 890
4.27999997138977 921
4.29999997094274 880
4.3199999704957 833
4.33999997004867 888
4.35999996960163 927
4.3799999691546 848
4.39999996870756 787
4.41999996826053 803
4.43999996781349 819
4.45999996736646 808
4.47999996691942 814
4.49999996647239 839
4.51999996602535 776
4.53999996557832 794
4.55999996513128 815
4.57999996468425 847
4.59999996423721 790
4.61999996379018 807
4.63999996334314 738
4.65999996289611 768
4.67999996244907 774
4.69999996200204 750
4.719999961555 762
4.73999996110797 755
4.75999996066093 720
4.7799999602139 748
4.79999995976686 723
4.81999995931983 717
4.83999995887279 728
4.85999995842576 761
4.87999995797873 735
4.89999995753169 736
4.91999995708466 707
4.93999995663762 750
4.95999995619059 734
4.97999995574355 729
4.99999995529652 696
5.01999995484948 725
5.03999995440245 730
5.05999995395541 709
5.07999995350838 721
5.09999995306134 691
5.11999995261431 675
5.13999995216727 693
5.15999995172024 635
5.1799999512732 702
5.19999995082617 680
5.21999995037913 709
5.2399999499321 653
5.25999994948506 716
5.27999994903803 684
5.29999994859099 656
5.31999994814396 701
5.33999994769692 777
5.35999994724989 712
5.37999994680285 726
5.39999994635582 712
5.41999994590878 694
5.43999994546175 706
5.45999994501471 692
5.47999994456768 713
5.49999994412065 677
5.51999994367361 691
5.53999994322658 645
5.55999994277954 682
5.57999994233251 669
5.59999994188547 698
5.61999994143844 666
5.6399999409914 689
5.65999994054437 694
5.67999994009733 672
5.6999999396503 625
5.71999993920326 692
5.73999993875623 678
5.75999993830919 670
5.77999993786216 651
5.79999993741512 644
5.81999993696809 658
5.83999993652105 679
5.85999993607402 671
5.87999993562698 707
5.89999993517995 722
5.91999993473291 690
5.93999993428588 668
5.95999993383884 662
5.97999993339181 684
5.99999993294477 737
6.01999993249774 651
6.0399999320507 655
6.05999993160367 675
6.07999993115663 681
6.0999999307096 627
6.11999993026257 658
6.13999992981553 674
6.1599999293685 665
6.17999992892146 640
6.19999992847443 665
6.21999992802739 664
6.23999992758036 675
6.25999992713332 669
6.27999992668629 699
6.29999992623925 682
6.31999992579222 676
6.33999992534518 655
6.35999992489815 699
6.37999992445111 695
6.39999992400408 684
6.41999992355704 693
6.43999992311001 659
6.45999992266297 671
6.47999992221594 686
6.4999999217689 727
6.51999992132187 751
6.53999992087483 702
6.5599999204278 672
6.57999991998076 700
6.59999991953373 723
6.61999991908669 687
6.63999991863966 673
6.65999991819262 708
6.67999991774559 720
6.69999991729855 752
6.71999991685152 695
6.73999991640449 740
6.75999991595745 678
6.77999991551042 680
6.79999991506338 717
6.81999991461635 691
6.83999991416931 750
6.85999991372228 726
6.87999991327524 680
6.89999991282821 711
6.91999991238117 693
6.93999991193414 735
6.9599999114871 718
6.97999991104007 681
6.99999991059303 748
7.019999910146 665
7.03999990969896 735
7.05999990925193 693
7.07999990880489 738
7.09999990835786 724
7.11999990791082 715
7.13999990746379 678
7.15999990701675 706
7.17999990656972 731
7.19999990612268 736
7.21999990567565 709
7.23999990522861 715
7.25999990478158 696
7.27999990433454 761
7.29999990388751 711
7.31999990344047 698
7.33999990299344 722
7.35999990254641 753
7.37999990209937 685
7.39999990165234 710
7.4199999012053 755
7.43999990075827 730
7.45999990031123 762
7.4799998998642 712
7.49999989941716 717
7.51999989897013 687
7.53999989852309 775
7.55999989807606 789
7.57999989762902 749
7.59999989718199 719
7.61999989673495 743
7.63999989628792 732
7.65999989584088 768
7.67999989539385 783
7.69999989494681 813
7.71999989449978 783
7.73999989405274 771
7.75999989360571 823
7.77999989315867 749
7.79999989271164 742
7.8199998922646 778
7.83999989181757 792
7.85999989137053 809
7.8799998909235 816
7.89999989047646 780
7.91999989002943 850
7.9399998895824 819
7.95999988913536 842
7.97999988868833 785
7.99999988824129 774
8.01999988779426 780
8.03999988734722 789
8.05999988690019 783
8.07999988645315 793
8.09999988600612 778
8.11999988555908 766
8.13999988511205 712
8.15999988466501 754
8.17999988421798 771
8.19999988377094 789
8.21999988332391 759
8.23999988287687 813
8.25999988242984 807
8.2799998819828 790
8.29999988153577 802
8.31999988108873 841
8.3399998806417 798
8.35999988019466 803
8.37999987974763 847
8.39999987930059 885
8.41999987885356 903
8.43999987840652 869
8.45999987795949 895
8.47999987751245 889
8.49999987706542 914
8.51999987661839 895
8.53999987617135 905
8.55999987572432 922
8.57999987527728 907
8.59999987483025 960
8.61999987438321 977
8.63999987393618 961
8.65999987348914 1019
8.67999987304211 985
8.69999987259507 1011
8.71999987214804 1047
8.739999871701 1125
8.75999987125397 1121
8.77999987080693 1194
8.7999998703599 1128
8.81999986991286 1244
8.83999986946583 1281
8.85999986901879 1373
8.87999986857176 1469
8.89999986812472 1496
8.91999986767769 1657
8.93999986723065 1707
8.95999986678362 1791
8.97999986633658 1894
8.99999986588955 1855
9.01999986544251 1845
9.03999986499548 1707
9.05999986454844 1692
9.07999986410141 1688
9.09999986365438 1720
9.11999986320734 1575
9.13999986276031 1589
9.15999986231327 1497
9.17999986186624 1448
9.1999998614192 1399
9.21999986097217 1375
9.23999986052513 1296
9.2599998600781 1297
9.27999985963106 1287
9.29999985918403 1340
9.31999985873699 1324
9.33999985828996 1333
9.35999985784292 1367
9.37999985739589 1304
9.39999985694885 1224
9.41999985650182 1143
9.43999985605478 1132
9.45999985560775 1154
9.47999985516071 1072
9.49999985471368 1101
9.51999985426664 1091
9.53999985381961 1025
9.55999985337257 1065
9.57999985292554 1015
9.5999998524785 1030
9.61999985203147 1044
9.63999985158443 1106
9.6599998511374 1153
9.67999985069037 1098
9.69999985024333 1135
9.7199998497963 1206
9.73999984934926 1154
9.75999984890223 1193
9.77999984845519 1226
9.79999984800816 1352
9.81999984756112 1463
9.83999984711409 1395
9.85999984666705 1549
9.87999984622002 1554
9.89999984577298 1699
9.91999984532595 1834
9.93999984487891 1864
9.95999984443188 1933
9.97999984398484 2029
9.99999984353781 2127
10.0199998430908 2057
10.0399998426437 1913
10.0599998421967 1784
10.0799998417497 1610
10.0999998413026 1510
10.1199998408556 1361
10.1399998404086 1319
10.1599998399615 1241
10.1799998395145 1173
10.1999998390675 1137
10.2199998386204 1114
10.2399998381734 1055
10.2599998377264 1047
10.2799998372793 1051
10.2999998368323 1015
10.3199998363853 1017
10.3399998359382 1028
10.3599998354912 996
10.3799998350441 1012
10.3999998345971 924
10.4199998341501 985
10.439999833703 980
10.459999833256 928
10.479999832809 936
10.4999998323619 918
10.5199998319149 911
10.5399998314679 903
10.5599998310208 951
10.5799998305738 930
10.5999998301268 936
10.6199998296797 925
10.6399998292327 943
10.6599998287857 919
10.6799998283386 957
10.6999998278916 878
10.7199998274446 881
10.7399998269975 921
10.7599998265505 871
10.7799998261034 885
10.7999998256564 903
10.8199998252094 934
10.8399998247623 914
10.8599998243153 927
10.8799998238683 904
10.8999998234212 963
10.9199998229742 917
10.9399998225272 904
10.9599998220801 900
10.9799998216331 872
10.9999998211861 835
11.019999820739 771
11.039999820292 819
11.059999819845 830
11.0799998193979 824
11.0999998189509 792
11.1199998185039 706
11.1399998180568 741
11.1599998176098 721
11.1799998171628 706
11.1999998167157 755
11.2199998162687 739
11.2399998158216 707
11.2599998153746 729
11.2799998149276 737
11.2999998144805 717
11.3199998140335 728
11.3399998135865 759
11.3599998131394 705
11.3799998126924 713
11.3999998122454 698
11.4199998117983 685
11.4399998113513 693
11.4599998109043 707
11.4799998104572 726
11.4999998100102 693
11.5199998095632 691
11.5399998091161 700
11.5599998086691 667
11.5799998082221 710
11.599999807775 704
11.619999807328 687
11.639999806881 702
11.6599998064339 660
11.6799998059869 667
11.6999998055398 696
11.7199998050928 665
11.7399998046458 657
11.7599998041987 722
11.7799998037517 727
11.7999998033047 704
11.8199998028576 723
11.8399998024106 687
11.8599998019636 690
11.8799998015165 720
11.8999998010695 711
11.9199998006225 728
11.9399998001754 706
11.9599997997284 715
11.9799997992814 691
11.9999997988343 723
12.0199997983873 709
12.0399997979403 626
12.0599997974932 714
12.0799997970462 708
12.0999997965992 706
12.1199997961521 664
12.1399997957051 703
12.159999795258 715
12.179999794811 701
12.199999794364 743
12.2199997939169 722
12.2399997934699 738
12.2599997930229 765
12.2799997925758 712
12.2999997921288 766
12.3199997916818 774
12.3399997912347 753
12.3599997907877 770
12.3799997903407 802
12.3999997898936 811
12.4199997894466 827
12.4399997889996 792
12.4599997885525 838
12.4799997881055 848
12.4999997876585 931
12.5199997872114 931
12.5399997867644 1062
12.5599997863173 1024
12.5799997858703 1100
12.5999997854233 1154
12.6199997849762 1237
12.6399997845292 1292
12.6599997840822 1250
12.6799997836351 1274
12.6999997831881 1276
12.7199997827411 1202
12.739999782294 1158
12.759999781847 1126
12.7799997814 1022
12.7999997809529 979
12.8199997805059 912
12.8399997800589 861
12.8599997796118 780
12.8799997791648 815
12.8999997787178 807
12.9199997782707 832
12.9399997778237 797
12.9599997773767 792
12.9799997769296 813
12.9999997764826 790
13.0199997760355 786
13.0399997755885 763
13.0599997751415 827
13.0799997746944 800
13.0999997742474 741
13.1199997738004 768
13.1399997733533 818
13.1599997729063 791
13.1799997724593 801
13.1999997720122 826
13.2199997715652 745
13.2399997711182 779
13.2599997706711 804
13.2799997702241 746
13.2999997697771 792
13.31999976933 806
13.339999768883 815
13.359999768436 823
13.3799997679889 821
13.3999997675419 785
13.4199997670949 790
13.4399997666478 815
13.4599997662008 788
13.4799997657537 808
13.4999997653067 757
13.5199997648597 741
13.5399997644126 792
13.5599997639656 771
13.5799997635186 815
13.5999997630715 807
13.6199997626245 781
13.6399997621775 777
13.6599997617304 754
13.6799997612834 788
13.6999997608364 766
13.7199997603893 791
13.7399997599423 772
13.7599997594953 774
13.7799997590482 781
13.7999997586012 755
13.8199997581542 739
13.8399997577071 840
13.8599997572601 766
13.879999756813 791
13.899999756366 759
13.919999755919 740
13.9399997554719 780
13.9599997550249 834
13.9799997545779 746
13.9999997541308 775
14.0199997536838 790
14.0399997532368 825
14.0599997527897 816
14.0799997523427 831
14.0999997518957 781
14.1199997514486 769
14.1399997510016 782
14.1599997505546 784
14.1799997501075 804
14.1999997496605 849
14.2199997492135 788
14.2399997487664 803
14.2599997483194 792
14.2799997478724 767
14.2999997474253 808
14.3199997469783 802
14.3399997465312 838
14.3599997460842 808
14.3799997456372 802
14.3999997451901 781
14.4199997447431 777
14.4399997442961 816
14.459999743849 832
14.479999743402 781
14.499999742955 803
14.5199997425079 854
14.5399997420609 864
14.5599997416139 852
14.5799997411668 895
14.5999997407198 829
14.6199997402728 887
14.6399997398257 829
14.6599997393787 833
14.6799997389317 854
14.6999997384846 826
14.7199997380376 760
14.7399997375906 827
14.7599997371435 838
14.7799997366965 818
14.7999997362494 814
14.8199997358024 868
14.8399997353554 833
14.8599997349083 827
14.8799997344613 841
14.8999997340143 857
14.9199997335672 825
14.9399997331202 803
14.9599997326732 822
14.9799997322261 854
14.9999997317791 830
15.0199997313321 834
15.039999730885 886
15.059999730438 828
15.079999729991 836
15.0999997295439 870
15.1199997290969 859
15.1399997286499 824
15.1599997282028 863
15.1799997277558 846
15.1999997273088 868
15.2199997268617 834
15.2399997264147 891
15.2599997259676 846
15.2799997255206 876
15.2999997250736 836
15.3199997246265 876
15.3399997241795 834
15.3599997237325 865
15.3799997232854 853
15.3999997228384 864
15.4199997223914 831
15.4399997219443 859
15.4599997214973 845
15.4799997210503 907
15.4999997206032 904
15.5199997201562 839
15.5399997197092 875
15.5599997192621 860
15.5799997188151 881
15.5999997183681 823
15.619999717921 910
15.639999717474 896
15.659999717027 873
15.6799997165799 886
15.6999997161329 940
15.7199997156858 870
15.7399997152388 944
15.7599997147918 914
15.7799997143447 871
15.7999997138977 921
15.8199997134507 903
15.8399997130036 889
15.8599997125566 889
15.8799997121096 890
15.8999997116625 895
15.9199997112155 916
15.9399997107685 906
15.9599997103214 909
15.9799997098744 880
15.9999997094274 930
16.0199997089803 941
16.0399997085333 944
16.0599997080863 932
16.0799997076392 914
16.0999997071922 914
16.1199997067451 884
16.1399997062981 921
16.1599997058511 940
16.179999705404 903
16.199999704957 930
16.21999970451 1007
16.2399997040629 928
16.2599997036159 930
16.2799997031689 898
16.2999997027218 951
16.3199997022748 931
16.3399997018278 933
16.3599997013807 997
16.3799997009337 943
16.3999997004867 947
16.4199997000396 989
16.4399996995926 981
16.4599996991456 989
16.4799996986985 978
16.4999996982515 981
16.5199996978045 964
16.5399996973574 996
16.5599996969104 986
16.5799996964633 976
16.5999996960163 1020
16.6199996955693 1002
16.6399996951222 1000
16.6599996946752 1063
16.6799996942282 1043
16.6999996937811 1063
16.7199996933341 1087
16.7399996928871 1095
16.75999969244 1061
16.779999691993 1100
16.799999691546 1120
16.8199996910989 1098
16.8399996906519 1146
16.8599996902049 1245
16.8799996897578 1261
16.8999996893108 1299
16.9199996888638 1492
16.9399996884167 1493
16.9599996879697 1745
16.9799996875226 1920
16.9999996870756 1979
17.0199996866286 1980
17.0399996861815 1871
17.0599996857345 1629
17.0799996852875 1507
17.0999996848404 1268
17.1199996843934 1264
17.1399996839464 1184
17.1599996834993 1132
17.1799996830523 1111
17.1999996826053 1080
17.2199996821582 1107
17.2399996817112 1143
17.2599996812642 1103
17.2799996808171 1142
17.2999996803701 1075
17.3199996799231 1150
17.339999679476 1102
17.359999679029 1077
17.379999678582 1073
17.3999996781349 1108
17.4199996776879 1085
17.4399996772408 1139
17.4599996767938 1120
17.4799996763468 1095
17.4999996758997 1119
17.5199996754527 1082
17.5399996750057 1102
17.5599996745586 1021
17.5799996741116 1125
17.5999996736646 1132
17.6199996732175 1113
17.6399996727705 1146
17.6599996723235 1147
17.6799996718764 1113
17.6999996714294 1103
17.7199996709824 1150
17.7399996705353 1175
17.7599996700883 1180
17.7799996696413 1177
17.7999996691942 1189
17.8199996687472 1181
17.8399996683002 1207
17.8599996678531 1174
17.8799996674061 1189
17.899999666959 1159
17.919999666512 1137
17.939999666065 1206
17.9599996656179 1212
17.9799996651709 1225
17.9999996647239 1197
18.0199996642768 1276
18.0399996638298 1197
18.0599996633828 1262
18.0799996629357 1236
18.0999996624887 1183
18.1199996620417 1240
18.1399996615946 1239
18.1599996611476 1278
18.1799996607006 1242
18.1999996602535 1295
18.2199996598065 1284
18.2399996593595 1335
18.2599996589124 1297
18.2799996584654 1195
18.2999996580184 1255
18.3199996575713 1288
18.3399996571243 1275
18.3599996566772 1257
18.3799996562302 1326
18.3999996557832 1316
18.4199996553361 1300
18.4399996548891 1255
18.4599996544421 1285
18.479999653995 1321
18.499999653548 1338
18.519999653101 1390
18.5399996526539 1306
18.5599996522069 1347
18.5799996517599 1387
18.5999996513128 1369
18.6199996508658 1370
18.6399996504188 1293
18.6599996499717 1391
18.6799996495247 1384
18.6999996490777 1370
18.7199996486306 1381
18.7399996481836 1395
18.7599996477366 1341
18.7799996472895 1352
18.7999996468425 1308
18.8199996463954 1288
18.8399996459484 1348
18.8599996455014 1391
18.8799996450543 1370
18.8999996446073 1344
18.9199996441603 1374
18.9399996437132 1429
18.9599996432662 1301
18.9799996428192 1418
18.9999996423721 1389
19.0199996419251 1382
19.0399996414781 1352
19.059999641031 1431
19.079999640584 1416
19.099999640137 1396
19.1199996396899 1348
19.1399996392429 1383
19.1599996387959 1408
19.1799996383488 1372
19.1999996379018 1377
19.2199996374547 1422
19.2399996370077 1518
19.2599996365607 1440
19.2799996361136 1462
19.2999996356666 1423
19.3199996352196 1457
19.3399996347725 1430
19.3599996343255 1349
19.3799996338785 1475
19.3999996334314 1421
19.4199996329844 1452
19.4399996325374 1460
19.4599996320903 1432
19.4799996316433 1521
19.4999996311963 1509
19.5199996307492 1507
19.5399996303022 1479
19.5599996298552 1461
19.5799996294081 1469
19.5999996289611 1492
19.6199996285141 1563
19.639999628067 1523
19.65999962762 1492
19.6799996271729 1497
19.6999996267259 1526
19.7199996262789 1517
19.7399996258318 1592
19.7599996253848 1512
19.7799996249378 1597
19.7999996244907 1647
19.8199996240437 1547
19.8399996235967 1572
19.8599996231496 1654
19.8799996227026 1718
19.8999996222556 1755
19.9199996218085 1684
19.9399996213615 1798
19.9599996209145 1833
19.9799996204674 1842
19.9999996200204 1844
