3 2208
3.01999999955297 2074
3.03999999910593 1977
3.0599999986589 1772
3.07999999821186 1672
3.09999999776483 1660
3.11999999731779 1646
3.13999999687076 1556
3.15999999642372 1525
3.17999999597669 1497
3.19999999552965 1507
3.21999999508262 1474
3.23999999463558 1487
3.25999999418855 1420
3.27999999374151 1442
3.29999999329448 1402
3.31999999284744 1348
3.33999999240041 1307
3.35999999195337 1357
3.37999999150634 1391
3.3999999910593 1320
3.41999999061227 1320
3.43999999016523 1218
3.4599999897182 1246
3.47999998927116 1234
3.49999998882413 1240
3.51999998837709 1258
3.53999998793006 1214
3.55999998748302 1137
3.57999998703599 1225
3.59999998658895 1183
3.61999998614192 1201
3.63999998569489 1171
3.65999998524785 1167
3.67999998480082 1108
3.69999998435378 1164
3.71999998390675 1154
3.73999998345971 1114
3.75999998301268 1039
3.77999998256564 1082
3.79999998211861 1038
3.81999998167157 1103
3.83999998122454 1054
3.8599999807775 1103
3.87999998033047 1040
3.89999997988343 1025
3.9199999794364 972
3.93999997898936 968
3.95999997854233 1004
3.97999997809529 971
3.99999997764826 970
4.01999997720122 1004
4.03999997675419 994
4.05999997630715 967
4.07999997586012 932
4.09999997541308 971
4.11999997496605 952
4.13999997451901 949
4.15999997407198 949
4.17999997362494 903
4.19999997317791 898
4.21999997273087 903
4.23999997228384 906
4.25999997183681 877
4.27999997138977 892
4.29999997094274 892
4.3199999704957 886
4.33999997004867 884
4.35999996960163 890
4.3799999691546 910
4.39999996870756 912
4.41999996826053 877
4.43999996781349 849
4.45999996736646 834
4.47999996691942 838
4.49999996647239 834
4.51999996602535 851
4.53999996557832 803
4.55999996513128 816
4.57999996468425 839
4.59999996423721 839
4.61999996379018 855
4.63999996334314 775
4.65999996289611 805
4.67999996244907 825
4.69999996200204 809
4.719999961555 818
4.73999996110797 836
4.75999996066093 827
4.7799999602139 818
4.79999995976686 828
4.81999995931983 792
4.83999995887279 768
4.85999995842576 724
4.87999995797873 761
4.89999995753169 806
4.91999995708466 781
4.93999995663762 724
4.95999995619059 751
4.97999995574355 805
4.99999995529652 695
5.01999995484948 802
5.03999995440245 750
5.05999995395541 700
5.07999995350838 722
5.09999995306134 769
5.11999995261431 739
5.13999995216727 735
5.15999995172024 758
5.1799999512732 718
5.19999995082617 738
5.21999995037913 722
5.2399999499321 706
5.25999994948506 693
5.27999994903803 715
5.29999994859099 743
5.31999994814396 709
5.33999994769692 721
5.35999994724989 730
5.37999994680285 735
5.39999994635582 702
5.41999994590878 673
5.43999994546175 698
5.45999994501471 690
5.47999994456768 679
5.49999994412065 687
5.51999994367361 735
5.53999994322658 742
5.55999994277954 738
5.57999994233251 718
5.59999994188547 710
5.61999994143844 684
5.6399999409914 681
5.65999994054437 684
5.67999994009733 679
5.6999999396503 690
5.71999993920326 687
5.73999993875623 684
5.75999993830919 676
5.77999993786216 651
5.79999993741512 697
5.81999993696809 673
5.83999993652105 689
5.85999993607402 687
5.87999993562698 697
5.89999993517995 686
5.91999993473291 679
5.93999993428588 693
5.95999993383884 713
5.97999993339181 670
5.99999993294477 676
6.01999993249774 661
6.0399999320507 648
6.05999993160367 723
6.07999993115663 697
6.0999999307096 675
6.11999993026257 734
6.13999992981553 688
6.1599999293685 647
6.17999992892146 700
6.19999992847443 669
6.21999992802739 670
6.23999992758036 679
6.25999992713332 680
6.27999992668629 650
6.29999992623925 647
6.31999992579222 664
6.33999992534518 670
6.35999992489815 690
6.37999992445111 632
6.39999992400408 669
6.41999992355704 669
6.43999992311001 685
6.45999992266297 674
6.47999992221594 692
6.4999999217689 664
6.51999992132187 720
6.53999992087483 637
6.5599999204278 663
6.57999991998076 652
6.59999991953373 666
6.61999991908669 659
6.63999991863966 681
6.65999991819262 681
6.67999991774559 664
6.69999991729855 671
6.71999991685152 655
6.73999991640449 666
6.75999991595745 671
6.77999991551042 632
6.79999991506338 627
6.81999991461635 671
6.83999991416931 659
6.85999991372228 645
6.87999991327524 638
6.89999991282821 633
6.91999991238117 687
6.93999991193414 663
6.9599999114871 656
6.97999991104007 697
6.99999991059303 681
7.019999910146 658
7.03999990969896 674
7.05999990925193 645
7.07999990880489 649
7.09999990835786 658
7.11999990791082 628
7.13999990746379 600
7.15999990701675 648
7.17999990656972 614
7.19999990612268 650
7.21999990567565 596
7.23999990522861 668
7.25999990478158 627
7.27999990433454 634
7.29999990388751 635
7.31999990344047 644
7.33999990299344 639
7.35999990254641 641
7.37999990209937 650
7.39999990165234 627
7.4199999012053 688
7.43999990075827 677
7.45999990031123 657
7.4799998998642 662
7.49999989941716 652
7.51999989897013 665
7.53999989852309 659
7.55999989807606 644
7.57999989762902 663
7.59999989718199 662
7.61999989673495 671
7.63999989628792 647
7.65999989584088 661
7.67999989539385 696
7.69999989494681 613
7.71999989449978 633
7.73999989405274 640
7.75999989360571 644
7.77999989315867 641
7.79999989271164 629
7.8199998922646 654
7.83999989181757 655
7.85999989137053 636
7.8799998909235 590
7.89999989047646 660
7.91999989002943 638
7.9399998895824 644
7.95999988913536 699
7.97999988868833 694
7.99999988824129 615
8.01999988779426 632
8.03999988734722 634
8.05999988690019 630
8.07999988645315 642
8.09999988600612 654
8.11999988555908 656
8.13999988511205 659
8.15999988466501 637
8.17999988421798 647
8.19999988377094 651
8.21999988332391 599
8.23999988287687 624
8.25999988242984 643
8.2799998819828 658
8.29999988153577 648
8.31999988108873 628
8.3399998806417 611
8.35999988019466 687
8.37999987974763 670
8.39999987930059 659
8.41999987885356 615
8.43999987840652 626
8.45999987795949 599
8.47999987751245 645
8.49999987706542 610
8.51999987661839 627
8.53999987617135 649
8.55999987572432 617
8.57999987527728 621
8.59999987483025 616
8.61999987438321 624
8.63999987393618 662
8.65999987348914 596
8.67999987304211 646
8.69999987259507 658
8.71999987214804 597
8.739999871701 593
8.75999987125397 639
8.77999987080693 649
8.7999998703599 622
8.81999986991286 602
8.83999986946583 622
8.85999986901879 587
8.87999986857176 624
8.89999986812472 647
8.91999986767769 624
8.93999986723065 609
8.95999986678362 657
8.97999986633658 621
8.99999986588955 648
9.01999986544251 634
9.03999986499548 598
9.05999986454844 639
9.07999986410141 572
9.09999986365438 583
9.11999986320734 594
9.13999986276031 637
9.15999986231327 594
9.17999986186624 603
9.1999998614192 640
9.21999986097217 581
9.23999986052513 657
9.2599998600781 614
9.27999985963106 637
9.29999985918403 611
9.31999985873699 588
9.33999985828996 557
9.35999985784292 580
9.37999985739589 604
9.39999985694885 598
9.41999985650182 629
9.43999985605478 641
9.45999985560775 625
9.47999985516071 618
9.49999985471368 610
9.51999985426664 590
9.53999985381961 622
9.55999985337257 633
9.57999985292554 592
9.5999998524785 644
9.61999985203147 573
9.63999985158443 607
9.6599998511374 623
9.67999985069037 616
9.69999985024333 636
9.7199998497963 574
9.73999984934926 602
9.75999984890223 603
9.77999984845519 589
9.79999984800816 635
9.81999984756112 612
9.83999984711409 685
9.85999984666705 619
9.87999984622002 611
9.89999984577298 605
9.91999984532595 645
9.93999984487891 618
9.95999984443188 634
9.97999984398484 638
9.99999984353781 641
10.0199998430908 602
10.0399998426437 566
10.0599998421967 598
10.0799998417497 659
10.0999998413026 626
10.1199998408556 622
10.1399998404086 623
10.1599998399615 594
10.1799998395145 559
10.1999998390675 584
10.2199998386204 609
10.2399998381734 622
10.2599998377264 650
10.2799998372793 621
10.2999998368323 600
10.3199998363853 594
10.3399998359382 609
10.3599998354912 611
10.3799998350441 607
10.3999998345971 608
10.4199998341501 645
10.439999833703 653
10.459999833256 648
10.479999832809 552
10.4999998323619 605
10.5199998319149 618
10.5399998314679 640
10.5599998310208 627
10.5799998305738 610
10.5999998301268 634
10.6199998296797 641
10.6399998292327 615
10.6599998287857 584
10.6799998283386 587
10.6999998278916 559
10.7199998274446 572
10.7399998269975 611
10.7599998265505 559
10.7799998261034 600
10.7999998256564 624
10.8199998252094 628
10.8399998247623 609
10.8599998243153 605
10.8799998238683 588
10.8999998234212 574
10.9199998229742 602
10.9399998225272 605
10.9599998220801 602
10.9799998216331 556
10.9999998211861 650
11.019999820739 602
11.039999820292 629
11.059999819845 590
11.0799998193979 636
11.0999998189509 624
11.1199998185039 593
11.1399998180568 595
11.1599998176098 662
11.1799998171628 573
11.1999998167157 596
11.2199998162687 640
11.2399998158216 565
11.2599998153746 609
11.2799998149276 622
11.2999998144805 617
11.3199998140335 579
11.3399998135865 552
11.3599998131394 608
11.3799998126924 612
11.3999998122454 558
11.4199998117983 589
11.4399998113513 617
11.4599998109043 598
11.4799998104572 601
11.4999998100102 585
11.5199998095632 603
11.5399998091161 609
11.5599998086691 596
11.5799998082221 610
11.599999807775 596
11.619999807328 600
11.639999806881 621
11.6599998064339 596
11.6799998059869 651
11.6999998055398 601
11.7199998050928 659
11.7399998046458 576
11.7599998041987 596
11.7799998037517 652
11.7999998033047 592
11.8199998028576 606
11.8399998024106 619
11.8599998019636 609
11.8799998015165 636
11.8999998010695 601
11.9199998006225 571
11.9399998001754 591
11.9599997997284 611
11.9799997992814 581
11.9999997988343 637
12.0199997983873 635
12.0399997979403 592
12.0599997974932 592
12.0799997970462 619
12.0999997965992 640
12.1199997961521 577
12.1399997957051 598
12.159999795258 616
12.179999794811 603
12.199999794364 653
12.2199997939169 589
12.2399997934699 582
12.2599997930229 607
12.2799997925758 632
12.2999997921288 607
12.3199997916818 598
12.3399997912347 632
12.3599997907877 580
12.3799997903407 604
12.3999997898936 612
12.4199997894466 618
12.4399997889996 590
12.4599997885525 622
12.4799997881055 633
12.4999997876585 611
12.5199997872114 621
12.5399997867644 639
12.5599997863173 617
12.5799997858703 607
12.5999997854233 626
12.6199997849762 600
12.6399997845292 611
12.6599997840822 647
12.6799997836351 648
12.6999997831881 660
12.7199997827411 618
12.739999782294 655
12.759999781847 580
12.7799997814 628
12.7999997809529 611
12.8199997805059 620
12.8399997800589 623
12.8599997796118 648
12.8799997791648 615
12.8999997787178 620
12.9199997782707 653
12.9399997778237 609
12.9599997773767 594
12.9799997769296 667
12.9999997764826 663
13.0199997760355 650
13.0399997755885 649
13.0599997751415 619
13.0799997746944 642
13.0999997742474 649
13.1199997738004 639
13.1399997733533 624
13.1599997729063 686
13.1799997724593 678
13.1999997720122 649
13.2199997715652 642
13.2399997711182 636
13.2599997706711 647
13.2799997702241 654
13.2999997697771 645
13.31999976933 641
13.339999768883 663
13.359999768436 645
13.3799997679889 635
13.3999997675419 671
13.4199997670949 640
13.4399997666478 664
13.4599997662008 616
13.4799997657537 597
13.4999997653067 657
13.5199997648597 640
13.5399997644126 656
13.5599997639656 640
13.5799997635186 640
13.5999997630715 661
13.6199997626245 711
13.6399997621775 731
13.6599997617304 654
13.6799997612834 608
13.6999997608364 633
13.7199997603893 633
13.7399997599423 669
13.7599997594953 607
13.7799997590482 637
13.7999997586012 619
13.8199997581542 667
13.8399997577071 677
13.8599997572601 621
13.879999756813 663
13.899999756366 640
13.919999755919 630
13.9399997554719 670
13.9599997550249 705
13.9799997545779 625
13.9999997541308 655
14.0199997536838 663
14.0399997532368 634
14.0599997527897 689
14.0799997523427 664
14.0999997518957 654
14.1199997514486 646
14.1399997510016 657
14.1599997505546 670
14.1799997501075 695
14.1999997496605 661
14.2199997492135 670
14.2399997487664 679
14.2599997483194 650
14.2799997478724 750
14.2999997474253 661
14.3199997469783 696
14.3399997465312 650
14.3599997460842 647
14.3799997456372 689
14.3999997451901 658
14.4199997447431 713
14.4399997442961 703
14.459999743849 709
14.479999743402 674
14.499999742955 687
14.5199997425079 694
14.5399997420609 698
14.5599997416139 665
14.5799997411668 699
14.5999997407198 688
14.6199997402728 683
14.6399997398257 696
14.6599997393787 711
14.6799997389317 679
14.6999997384846 708
14.7199997380376 712
14.7399997375906 722
14.7599997371435 674
14.7799997366965 666
14.7999997362494 713
14.8199997358024 682
14.8399997353554 688
14.8599997349083 661
14.8799997344613 662
14.8999997340143 693
14.9199997335672 658
14.9399997331202 678
14.9599997326732 686
14.9799997322261 730
14.9999997317791 713
15.0199997313321 667
15.039999730885 738
15.059999730438 734
15.079999729991 680
15.0999997295439 713
15.1199997290969 700
15.1399997286499 696
15.1599997282028 696
15.1799997277558 748
15.1999997273088 727
15.2199997268617 692
15.2399997264147 702
15.2599997259676 719
15.2799997255206 721
15.2999997250736 711
15.3199997246265 767
15.3399997241795 771
15.3599997237325 724
15.3799997232854 692
15.3999997228384 744
15.4199997223914 734
15.4399997219443 714
15.4599997214973 731
15.4799997210503 704
15.4999997206032 747
15.5199997201562 717
15.5399997197092 725
15.5599997192621 733
15.5799997188151 705
15.5999997183681 773
15.619999717921 745
15.639999717474 722
15.659999717027 758
15.6799997165799 783
15.6999997161329 686
15.7199997156858 773
15.7399997152388 757
15.7599997147918 751
15.7799997143447 752
15.7999997138977 755
15.8199997134507 763
15.8399997130036 747
15.8599997125566 748
15.8799997121096 778
15.8999997116625 732
15.9199997112155 778
15.9399997107685 729
15.9599997103214 784
15.9799997098744 752
15.9999997094274 746
16.0199997089803 758
16.0399997085333 773
16.0599997080863 732
16.0799997076392 772
16.0999997071922 768
16.1199997067451 779
16.1399997062981 744
16.1599997058511 785
16.179999705404 809
16.199999704957 809
16.21999970451 822
16.2399997040629 765
16.2599997036159 781
16.2799997031689 837
16.2999997027218 765
16.3199997022748 759
16.3399997018278 802
16.3599997013807 811
16.3799997009337 763
16.3999997004867 848
16.4199997000396 835
16.4399996995926 866
16.4599996991456 869
16.4799996986985 830
16.4999996982515 884
16.5199996978045 847
16.5399996973574 826
16.5599996969104 862
16.5799996964633 895
16.5999996960163 864
16.6199996955693 864
16.6399996951222 861
16.6599996946752 877
16.6799996942282 855
16.6999996937811 917
16.7199996933341 877
16.7399996928871 925
16.75999969244 918
16.779999691993 1006
16.799999691546 975
16.8199996910989 1077
16.8399996906519 1154
16.8599996902049 1253
16.8799996897578 1308
16.8999996893108 1476
16.9199996888638 1618
16.9399996884167 1678
16.9599996879697 1774
16.9799996875226 1732
16.9999996870756 1617
17.0199996866286 1494
17.0399996861815 1288
17.0599996857345 1144
17.0799996852875 1073
17.0999996848404 1006
17.1199996843934 996
17.1399996839464 977
17.1599996834993 896
17.1799996830523 901
17.1999996826053 959
17.2199996821582 927
17.2399996817112 956
17.2599996812642 935
17.2799996808171 838
17.2999996803701 928
17.3199996799231 894
17.339999679476 932
17.359999679029 911
17.379999678582 918
17.3999996781349 934
17.4199996776879 937
17.4399996772408 917
17.4599996767938 906
17.4799996763468 937
17.4999996758997 943
17.5199996754527 891
17.5399996750057 925
17.5599996745586 879
17.5799996741116 959
17.5999996736646 918
17.6199996732175 915
17.6399996727705 949
17.6599996723235 977
17.6799996718764 975
17.6999996714294 932
17.7199996709824 957
17.7399996705353 950
17.7599996700883 989
17.7799996696413 963
17.7999996691942 940
17.8199996687472 918
17.8399996683002 979
17.8599996678531 961
17.8799996674061 954
17.899999666959 1046
17.919999666512 990
17.939999666065 993
17.9599996656179 960
17.9799996651709 1002
17.9999996647239 1010
18.0199996642768 964
18.0399996638298 1030
18.0599996633828 1042
18.0799996629357 1008
18.0999996624887 1030
18.1199996620417 998
18.1399996615946 991
18.1599996611476 1004
18.1799996607006 987
18.1999996602535 972
18.2199996598065 1079
18.2399996593595 1078
18.2599996589124 1050
18.2799996584654 1048
18.2999996580184 1046
18.3199996575713 1042
18.3399996571243 1067
18.3599996566772 1081
18.3799996562302 1056
18.3999996557832 1024
18.4199996553361 1060
18.4399996548891 998
18.4599996544421 1097
18.479999653995 1061
18.499999653548 1053
18.519999653101 1108
18.5399996526539 1037
18.5599996522069 1022
18.5799996517599 1084
18.5999996513128 1070
18.6199996508658 1094
18.6399996504188 1103
18.6599996499717 1056
18.6799996495247 1090
18.6999996490777 1098
18.7199996486306 1153
18.7399996481836 1107
18.7599996477366 1099
18.7799996472895 1136
18.7999996468425 1079
18.8199996463954 1176
18.8399996459484 1103
18.8599996455014 1103
18.8799996450543 1142
18.8999996446073 1223
18.9199996441603 1106
18.9399996437132 1148
18.9599996432662 1165
18.9799996428192 1134
18.9999996423721 1140
19.0199996419251 1173
19.0399996414781 1131
19.059999641031 1178
19.079999640584 1167
19.099999640137 1172
19.1199996396899 1206
19.1399996392429 1201
19.1599996387959 1195
19.1799996383488 1149
19.1999996379018 1108
19.2199996374547 1186
19.2399996370077 1164
19.2599996365607 1222
19.2799996361136 1151
19.2999996356666 1139
19.3199996352196 1207
19.3399996347725 1230
19.3599996343255 1166
19.3799996338785 1152
19.3999996334314 1231
19.4199996329844 1169
19.4399996325374 1184
19.4599996320903 1225
19.4799996316433 1206
19.4999996311963 1240
19.5199996307492 1254
19.5399996303022 1184
19.5599996298552 1204
19.5799996294081 1250
19.5999996289611 1171
19.6199996285141 1314
19.639999628067 1285
19.65999962762 1236
19.6799996271729 1243
19.6999996267259 1233
19.7199996262789 1275
19.7399996258318 1350
19.7599996253848 1338
19.7799996249378 1213
19.7999996244907 1263
19.8199996240437 1257
19.8399996235967 1269
19.8599996231496 1240
19.8799996227026 1280
19.8999996222556 1291
19.9199996218085 1327
19.9399996213615 1272
19.9599996209145 1334
19.9799996204674 1261
19.9999996200204 1281
