3 2335
3.01999999955297 2130
3.03999999910593 2005
3.0599999986589 1931
3.07999999821186 1835
3.09999999776483 1686
3.11999999731779 1609
3.13999999687076 1587
3.15999999642372 1498
3.17999999597669 1550
3.19999999552965 1483
3.21999999508262 1430
3.23999999463558 1472
3.25999999418855 1463
3.27999999374151 1481
3.29999999329448 1398
3.31999999284744 1389
3.33999999240041 1436
3.35999999195337 1351
3.37999999150634 1346
3.3999999910593 1413
3.41999999061227 1275
3.43999999016523 1285
3.4599999897182 1317
3.47999998927116 1277
3.49999998882413 1324
3.51999998837709 1313
3.53999998793006 1221
3.55999998748302 1266
3.57999998703599 1137
3.59999998658895 1238
3.61999998614192 1153
3.63999998569489 1149
3.65999998524785 1151
3.67999998480082 1176
3.69999998435378 1072
3.71999998390675 1097
3.73999998345971 1111
3.75999998301268 1108
3.77999998256564 1097
3.79999998211861 1142
3.81999998167157 1188
3.83999998122454 1076
3.8599999807775 1060
3.87999998033047 1064
3.89999997988343 976
3.9199999794364 1021
3.93999997898936 974
3.95999997854233 1067
3.97999997809529 961
3.99999997764826 979
4.01999997720122 968
4.03999997675419 950
4.05999997630715 936
4.07999997586012 908
4.09999997541308 897
4.11999997496605 892
4.13999997451901 962
4.15999997407198 904
4.17999997362494 905
4.19999997317791 910
4.21999997273087 848
4.23999997228384 866
4.25999997183681 889
4.27999997138977 850
4.29999997094274 901
4.3199999704957 848
4.33999997004867 853
4.35999996960163 826
4.3799999691546 798
4.39999996870756 808
4.41999996826053 833
4.43999996781349 779
4.45999996736646 847
4.47999996691942 872
4.49999996647239 743
4.51999996602535 801
4.53999996557832 784
4.55999996513128 786
4.57999996468425 782
4.59999996423721 773
4.61999996379018 753
4.63999996334314 763
4.65999996289611 714
4.67999996244907 734
4.69999996200204 736
4.719999961555 745
4.73999996110797 739
4.75999996066093 684
4.7799999602139 726
4.79999995976686 707
4.81999995931983 700
4.83999995887279 698
4.85999995842576 710
4.87999995797873 728
4.89999995753169 669
4.91999995708466 661
4.93999995663762 676
4.95999995619059 686
4.97999995574355 726
4.99999995529652 677
5.01999995484948 671
5.03999995440245 681
5.05999995395541 683
5.07999995350838 669
5.09999995306134 704
5.11999995261431 675
5.13999995216727 669
5.15999995172024 605
5.1799999512732 652
5.19999995082617 640
5.21999995037913 651
5.2399999499321 640
5.25999994948506 669
5.27999994903803 653
5.29999994859099 635
5.31999994814396 588
5.33999994769692 611
5.35999994724989 655
5.37999994680285 629
5.39999994635582 652
5.41999994590878 620
5.43999994546175 626
5.45999994501471 610
5.47999994456768 686
5.49999994412065 642
5.51999994367361 637
5.53999994322658 678
5.55999994277954 630
5.57999994233251 629
5.59999994188547 611
5.61999994143844 606
5.6399999409914 613
5.65999994054437 635
5.67999994009733 603
5.6999999396503 617
5.71999993920326 634
5.73999993875623 607
5.75999993830919 677
5.77999993786216 643
5.79999993741512 631
5.81999993696809 637
5.83999993652105 610
5.85999993607402 607
5.87999993562698 617
5.89999993517995 598
5.91999993473291 629
5.93999993428588 610
5.95999993383884 591
5.97999993339181 634
5.99999993294477 649
6.01999993249774 583
6.0399999320507 576
6.05999993160367 605
6.07999993115663 628
6.0999999307096 594
6.11999993026257 587
6.13999992981553 611
6.1599999293685 634
6.17999992892146 584
6.19999992847443 629
6.21999992802739 609
6.23999992758036 605
6.25999992713332 574
6.27999992668629 603
6.29999992623925 623
6.31999992579222 613
6.33999992534518 675
6.35999992489815 626
6.37999992445111 598
6.39999992400408 620
6.41999992355704 604
6.43999992311001 640
6.45999992266297 609
6.47999992221594 594
6.4999999217689 589
6.51999992132187 576
6.53999992087483 584
6.5599999204278 587
6.57999991998076 589
6.59999991953373 613
6.61999991908669 609
6.63999991863966 597
6.65999991819262 606
6.67999991774559 600
6.69999991729855 602
6.71999991685152 614
6.73999991640449 590
6.75999991595745 598
6.77999991551042 598
6.79999991506338 582
6.81999991461635 579
6.83999991416931 579
6.85999991372228 627
6.87999991327524 593
6.89999991282821 620
6.91999991238117 555
6.93999991193414 623
6.9599999114871 597
6.97999991104007 593
6.99999991059303 592
7.019999910146 607
7.03999990969896 589
7.05999990925193 600
7.07999990880489 587
7.09999990835786 621
7.11999990791082 621
7.13999990746379 636
7.15999990701675 615
7.17999990656972 585
7.19999990612268 600
7.21999990567565 575
7.23999990522861 577
7.25999990478158 624
7.27999990433454 608
7.29999990388751 552
7.31999990344047 616
7.33999990299344 636
7.35999990254641 620
7.37999990209937 575
7.39999990165234 616
7.4199999012053 567
7.43999990075827 591
7.45999990031123 597
7.4799998998642 605
7.49999989941716 641
7.51999989897013 596
7.53999989852309 598
7.55999989807606 586
7.57999989762902 611
7.59999989718199 569
7.61999989673495 599
7.63999989628792 625
7.65999989584088 582
7.67999989539385 627
7.69999989494681 598
7.71999989449978 571
7.73999989405274 614
7.75999989360571 605
7.77999989315867 560
7.79999989271164 594
7.8199998922646 590
7.83999989181757 595
7.85999989137053 590
7.8799998909235 584
7.89999989047646 558
7.91999989002943 603
7.9399998895824 600
7.95999988913536 621
7.97999988868833 656
7.99999988824129 622
8.01999988779426 614
8.03999988734722 585
8.05999988690019 606
8.07999988645315 635
8.09999988600612 602
8.11999988555908 600
8.13999988511205 545
8.15999988466501 626
8.17999988421798 570
8.19999988377094 629
8.21999988332391 633
8.23999988287687 632
8.25999988242984 578
8.2799998819828 628
8.29999988153577 611
8.31999988108873 633
8.3399998806417 612
8.35999988019466 585
8.37999987974763 665
8.39999987930059 630
8.41999987885356 634
8.43999987840652 616
8.45999987795949 668
8.47999987751245 713
8.49999987706542 681
8.51999987661839 647
8.53999987617135 660
8.55999987572432 675
8.57999987527728 684
8.59999987483025 742
8.61999987438321 721
8.63999987393618 782
8.65999987348914 795
8.67999987304211 826
8.69999987259507 859
8.71999987214804 897
8.739999871701 850
8.75999987125397 863
8.77999987080693 883
8.7999998703599 934
8.81999986991286 1089
8.83999986946583 1077
8.85999986901879 1101
8.87999986857176 1118
8.89999986812472 1170
8.91999986767769 1162
8.93999986723065 1181
8.95999986678362 1198
8.97999986633658 1206
8.99999986588955 1074
9.01999986544251 1032
9.03999986499548 967
9.05999986454844 876
9.07999986410141 887
9.09999986365438 851
9.11999986320734 842
9.13999986276031 860
9.15999986231327 836
9.17999986186624 803
9.1999998614192 824
9.21999986097217 797
9.23999986052513 805
9.2599998600781 823
9.27999985963106 819
9.29999985918403 777
9.31999985873699 793
9.33999985828996 800
9.35999985784292 731
9.37999985739589 728
9.39999985694885 745
9.41999985650182 679
9.43999985605478 702
9.45999985560775 725
9.47999985516071 715
9.49999985471368 730
9.51999985426664 735
9.53999985381961 725
9.55999985337257 785
9.57999985292554 778
9.5999998524785 777
9.61999985203147 788
9.63999985158443 728
9.6599998511374 759
9.67999985069037 758
9.69999985024333 774
9.7199998497963 808
9.73999984934926 876
9.75999984890223 850
9.77999984845519 926
9.79999984800816 920
9.81999984756112 948
9.83999984711409 1009
9.85999984666705 1057
9.87999984622002 1172
9.89999984577298 1214
9.91999984532595 1172
9.93999984487891 1181
9.95999984443188 1149
9.97999984398484 995
9.99999984353781 959
10.0199998430908 940
10.0399998426437 831
10.0599998421967 827
10.0799998417497 776
10.0999998413026 779
10.1199998408556 686
10.1399998404086 758
10.1599998399615 668
10.1799998395145 672
10.1999998390675 637
10.2199998386204 642
10.2399998381734 664
10.2599998377264 616
10.2799998372793 681
10.2999998368323 622
10.3199998363853 626
10.3399998359382 659
10.3599998354912 655
10.3799998350441 647
10.3999998345971 596
10.4199998341501 625
10.439999833703 625
10.459999833256 606
10.479999832809 573
10.4999998323619 611
10.5199998319149 632
10.5399998314679 570
10.5599998310208 606
10.5799998305738 591
10.5999998301268 585
10.6199998296797 636
10.6399998292327 573
10.6599998287857 620
10.6799998283386 603
10.6999998278916 613
10.7199998274446 583
10.7399998269975 617
10.7599998265505 583
10.7799998261034 575
10.7999998256564 617
10.8199998252094 599
10.8399998247623 631
10.8599998243153 554
10.8799998238683 637
10.8999998234212 597
10.9199998229742 582
10.9399998225272 593
10.9599998220801 610
10.9799998216331 562
10.9999998211861 596
11.019999820739 557
11.039999820292 569
11.059999819845 560
11.0799998193979 605
11.0999998189509 595
11.1199998185039 572
11.1399998180568 524
11.1599998176098 558
11.1799998171628 560
11.1999998167157 523
11.2199998162687 568
11.2399998158216 535
11.2599998153746 542
11.2799998149276 575
11.2999998144805 554
11.3199998140335 568
11.3399998135865 504
11.3599998131394 539
11.3799998126924 571
11.3999998122454 565
11.4199998117983 560
11.4399998113513 533
11.4599998109043 593
11.4799998104572 580
11.4999998100102 543
11.5199998095632 541
11.5399998091161 533
11.5599998086691 522
11.5799998082221 608
11.599999807775 564
11.619999807328 568
11.639999806881 537
11.6599998064339 550
11.6799998059869 567
11.6999998055398 549
11.7199998050928 544
11.7399998046458 548
11.7599998041987 568
11.7799998037517 569
11.7999998033047 543
11.8199998028576 575
11.8399998024106 532
11.8599998019636 537
11.8799998015165 573
11.8999998010695 570
11.9199998006225 562
11.9399998001754 569
11.9599997997284 581
11.9799997992814 571
11.9999997988343 525
12.0199997983873 539
12.0399997979403 566
12.0599997974932 534
12.0799997970462 543
12.0999997965992 540
12.1199997961521 558
12.1399997957051 566
12.159999795258 568
12.179999794811 551
12.199999794364 574
12.2199997939169 560
12.2399997934699 564
12.2599997930229 591
12.2799997925758 553
12.2999997921288 563
12.3199997916818 592
12.3399997912347 583
12.3599997907877 580
12.3799997903407 608
12.3999997898936 598
12.4199997894466 643
12.4399997889996 617
12.4599997885525 626
12.4799997881055 628
12.4999997876585 682
12.5199997872114 689
12.5399997867644 719
12.5599997863173 768
12.5799997858703 798
12.5999997854233 766
12.6199997849762 716
12.6399997845292 748
12.6599997840822 712
12.6799997836351 733
12.6999997831881 681
12.7199997827411 699
12.739999782294 667
12.759999781847 645
12.7799997814 666
12.7999997809529 702
12.8199997805059 576
12.8399997800589 574
12.8599997796118 637
12.8799997791648 540
12.8999997787178 600
12.9199997782707 642
12.9399997778237 590
12.9599997773767 607
12.9799997769296 578
12.9999997764826 583
13.0199997760355 581
13.0399997755885 590
13.0599997751415 632
13.0799997746944 605
13.0999997742474 611
13.1199997738004 567
13.1399997733533 591
13.1599997729063 591
13.1799997724593 639
13.1999997720122 584
13.2199997715652 636
13.2399997711182 621
13.2599997706711 645
13.2799997702241 664
13.2999997697771 666
13.31999976933 633
13.339999768883 691
13.359999768436 707
13.3799997679889 638
13.3999997675419 642
13.4199997670949 632
13.4399997666478 566
13.4599997662008 621
13.4799997657537 610
13.4999997653067 611
13.5199997648597 578
13.5399997644126 614
13.5599997639656 596
13.5799997635186 589
13.5999997630715 600
13.6199997626245 556
13.6399997621775 590
13.6599997617304 596
13.6799997612834 582
13.6999997608364 563
13.7199997603893 548
13.7399997599423 596
13.7599997594953 563
13.7799997590482 605
13.7999997586012 563
13.8199997581542 554
13.8399997577071 591
13.8599997572601 596
13.879999756813 624
13.899999756366 569
13.919999755919 616
13.9399997554719 598
13.9599997550249 625
13.9799997545779 580
13.9999997541308 612
14.0199997536838 586
14.0399997532368 563
14.0599997527897 564
14.0799997523427 631
14.0999997518957 588
14.1199997514486 590
14.1399997510016 590
14.1599997505546 599
14.1799997501075 589
14.1999997496605 575
14.2199997492135 614
14.2399997487664 629
14.2599997483194 559
14.2799997478724 582
14.2999997474253 571
14.3199997469783 565
14.3399997465312 619
14.3599997460842 599
14.3799997456372 591
14.3999997451901 612
14.4199997447431 602
14.4399997442961 580
14.459999743849 637
14.479999743402 598
14.499999742955 642
14.5199997425079 611
14.5399997420609 576
14.5599997416139 619
14.5799997411668 616
14.5999997407198 623
14.6199997402728 594
14.6399997398257 624
14.6599997393787 633
14.6799997389317 603
14.6999997384846 597
14.7199997380376 575
14.7399997375906 623
14.7599997371435 612
14.7799997366965 638
14.7999997362494 611
14.8199997358024 655
14.8399997353554 599
14.8599997349083 616
14.8799997344613 665
14.8999997340143 599
14.9199997335672 642
14.9399997331202 672
14.9599997326732 646
14.9799997322261 631
14.9999997317791 612
15.0199997313321 598
15.039999730885 610
15.059999730438 600
15.079999729991 603
15.0999997295439 625
15.1199997290969 590
15.1399997286499 609
15.1599997282028 630
15.1799997277558 577
15.1999997273088 626
15.2199997268617 630
15.2399997264147 639
15.2599997259676 632
15.2799997255206 625
15.2999997250736 608
15.3199997246265 639
15.3399997241795 644
15.3599997237325 637
15.3799997232854 615
15.3999997228384 615
15.4199997223914 589
15.4399997219443 636
15.4599997214973 644
15.4799997210503 627
15.4999997206032 642
15.5199997201562 631
15.5399997197092 590
15.5599997192621 635
15.5799997188151 583
15.5999997183681 645
15.619999717921 683
15.639999717474 623
15.659999717027 662
15.6799997165799 638
15.6999997161329 669
15.7199997156858 630
15.7399997152388 616
15.7599997147918 622
15.7799997143447 641
15.7999997138977 646
15.8199997134507 673
15.8399997130036 686
15.8599997125566 660
15.8799997121096 688
15.8999997116625 654
15.9199997112155 638
15.9399997107685 665
15.9599997103214 654
15.9799997098744 681
15.9999997094274 708
16.0199997089803 659
16.0399997085333 645
16.0599997080863 668
16.0799997076392 688
16.0999997071922 662
16.1199997067451 709
16.1399997062981 676
16.1599997058511 713
16.179999705404 667
16.199999704957 653
16.21999970451 683
16.2399997040629 629
16.2599997036159 661
16.2799997031689 675
16.2999997027218 666
16.3199997022748 677
16.3399997018278 634
16.3599997013807 679
16.3799997009337 718
16.3999997004867 684
16.4199997000396 660
16.4399996995926 699
16.4599996991456 700
16.4799996986985 648
16.4999996982515 691
16.5199996978045 714
16.5399996973574 674
16.5599996969104 727
16.5799996964633 713
16.5999996960163 753
16.6199996955693 726
16.6399996951222 686
16.6599996946752 755
16.6799996942282 781
16.6999996937811 782
16.7199996933341 778
16.7399996928871 790
16.75999969244 821
16.779999691993 866
16.799999691546 852
16.8199996910989 855
16.8399996906519 948
16.8599996902049 1012
16.8799996897578 1087
16.8999996893108 1194
16.9199996888638 1314
16.9399996884167 1436
16.9599996879697 1382
16.9799996875226 1364
16.9999996870756 1264
17.0199996866286 1080
17.0399996861815 908
17.0599996857345 878
17.0799996852875 833
17.0999996848404 787
17.1199996843934 833
17.1399996839464 800
17.1599996834993 753
17.1799996830523 785
17.1999996826053 764
17.2199996821582 771
17.2399996817112 746
17.2599996812642 750
17.2799996808171 694
17.2999996803701 734
17.3199996799231 776
17.339999679476 750
17.359999679029 757
17.379999678582 749
17.3999996781349 778
17.4199996776879 782
17.4399996772408 783
17.4599996767938 809
17.4799996763468 751
17.4999996758997 764
17.5199996754527 758
17.5399996750057 794
17.5599996745586 737
17.5799996741116 778
17.5999996736646 738
17.6199996732175 803
17.6399996727705 814
17.6599996723235 777
17.6799996718764 779
17.6999996714294 766
17.7199996709824 830
17.7399996705353 811
17.7599996700883 816
17.7799996696413 832
17.7999996691942 833
17.8199996687472 791
17.8399996683002 816
17.8599996678531 767
17.8799996674061 848
17.899999666959 808
17.919999666512 802
17.939999666065 768
17.9599996656179 864
17.9799996651709 862
17.9999996647239 832
18.0199996642768 794
18.0399996638298 829
18.0599996633828 833
18.0799996629357 814
18.0999996624887 869
18.1199996620417 860
18.1399996615946 867
18.1599996611476 834
18.1799996607006 841
18.1999996602535 835
18.2199996598065 826
18.2399996593595 855
18.2599996589124 847
18.2799996584654 881
18.2999996580184 841
18.3199996575713 860
18.3399996571243 836
18.3599996566772 846
18.3799996562302 922
18.3999996557832 818
18.4199996553361 867
18.4399996548891 863
18.4599996544421 889
18.479999653995 910
18.499999653548 863
18.519999653101 904
18.5399996526539 886
18.5599996522069 818
18.5799996517599 846
18.5999996513128 845
18.6199996508658 917
18.6399996504188 846
18.6599996499717 848
18.6799996495247 804
18.6999996490777 826
18.7199996486306 879
18.7399996481836 841
18.7599996477366 904
18.7799996472895 861
18.7999996468425 909
18.8199996463954 852
18.8399996459484 925
18.8599996455014 887
18.8799996450543 894
18.8999996446073 865
18.9199996441603 884
18.9399996437132 894
18.9599996432662 934
18.9799996428192 871
18.9999996423721 918
19.0199996419251 882
19.0399996414781 891
19.059999641031 905
19.079999640584 886
19.099999640137 920
19.1199996396899 951
19.1399996392429 889
19.1599996387959 949
19.1799996383488 928
19.1999996379018 880
19.2199996374547 975
19.2399996370077 864
19.2599996365607 951
19.2799996361136 912
19.2999996356666 946
19.3199996352196 902
19.3399996347725 924
19.3599996343255 943
19.3799996338785 922
19.3999996334314 959
19.4199996329844 931
19.4399996325374 983
19.4599996320903 966
19.4799996316433 934
19.4999996311963 900
19.5199996307492 962
19.5399996303022 958
19.5599996298552 962
19.5799996294081 937
19.5999996289611 950
19.6199996285141 961
19.639999628067 961
19.65999962762 1025
19.6799996271729 961
19.6999996267259 972
19.7199996262789 985
19.7399996258318 913
19.7599996253848 1040
19.7799996249378 1051
19.7999996244907 1072
19.8199996240437 1099
19.8399996235967 1059
19.8599996231496 1119
19.8799996227026 1118
19.8999996222556 1151
19.9199996218085 1134
19.9399996213615 1151
19.9599996209145 1121
19.9799996204674 1028
19.9999996200204 1094
