3 2910
3.01999999955297 2762
3.03999999910593 2516
3.0599999986589 2409
3.07999999821186 2199
3.09999999776483 2219
3.11999999731779 2106
3.13999999687076 2048
3.15999999642372 2071
3.17999999597669 2045
3.19999999552965 2021
3.21999999508262 1996
3.23999999463558 1938
3.25999999418855 1921
3.27999999374151 1868
3.29999999329448 1797
3.31999999284744 1878
3.33999999240041 1859
3.35999999195337 1792
3.37999999150634 1736
3.3999999910593 1841
3.41999999061227 1722
3.43999999016523 1721
3.4599999897182 1669
3.47999998927116 1734
3.49999998882413 1702
3.51999998837709 1543
3.53999998793006 1697
3.55999998748302 1552
3.57999998703599 1546
3.59999998658895 1522
3.61999998614192 1578
3.63999998569489 1511
3.65999998524785 1547
3.67999998480082 1415
3.69999998435378 1486
3.71999998390675 1453
3.73999998345971 1416
3.75999998301268 1448
3.77999998256564 1390
3.79999998211861 1445
3.81999998167157 1470
3.83999998122454 1376
3.8599999807775 1352
3.87999998033047 1402
3.89999997988343 1369
3.9199999794364 1410
3.93999997898936 1336
3.95999997854233 1464
3.97999997809529 1361
3.99999997764826 1383
4.01999997720122 1280
4.03999997675419 1325
4.05999997630715 1352
4.07999997586012 1282
4.09999997541308 1288
4.11999997496605 1273
4.13999997451901 1246
4.15999997407198 1280
4.17999997362494 1269
4.19999997317791 1275
4.21999997273087 1218
4.23999997228384 1273
4.25999997183681 1192
4.27999997138977 1236
4.29999997094274 1222
4.3199999704957 1183
4.33999997004867 1181
4.35999996960163 1234
4.3799999691546 1160
4.39999996870756 1179
4.41999996826053 1155
4.43999996781349 1213
4.45999996736646 1242
4.47999996691942 1129
4.49999996647239 1134
4.51999996602535 1116
4.53999996557832 1138
4.55999996513128 1175
4.57999996468425 1177
4.59999996423721 1173
4.61999996379018 1097
4.63999996334314 1165
4.65999996289611 1239
4.67999996244907 1230
4.69999996200204 1145
4.719999961555 1160
4.73999996110797 1203
4.75999996066093 1242
4.7799999602139 1260
4.79999995976686 1251
4.81999995931983 1221
4.83999995887279 1240
4.85999995842576 1250
4.87999995797873 1245
4.89999995753169 1260
4.91999995708466 1321
4.93999995663762 1342
4.95999995619059 1301
4.97999995574355 1315
4.99999995529652 1442
5.01999995484948 1443
5.03999995440245 1380
5.05999995395541 1400
5.07999995350838 1482
5.09999995306134 1488
5.11999995261431 1547
5.13999995216727 1571
5.15999995172024 1679
5.1799999512732 1760
5.19999995082617 1812
5.21999995037913 1950
5.2399999499321 2030
5.25999994948506 2114
5.27999994903803 2285
5.29999994859099 2405
5.31999994814396 2681
5.33999994769692 2731
5.35999994724989 3030
5.37999994680285 3484
5.39999994635582 3984
5.41999994590878 4665
5.43999994546175 4776
5.45999994501471 4218
5.47999994456768 3210
5.49999994412065 2601
5.51999994367361 2118
5.53999994322658 1934
5.55999994277954 1815
5.57999994233251 1701
5.59999994188547 1551
5.61999994143844 1489
5.6399999409914 1410
5.65999994054437 1446
5.67999994009733 1261
5.6999999396503 1283
5.71999993920326 1214
5.73999993875623 1199
5.75999993830919 1183
5.77999993786216 1177
5.79999993741512 1168
5.81999993696809 1114
5.83999993652105 1100
5.85999993607402 1056
5.87999993562698 1052
5.89999993517995 1030
5.91999993473291 1059
5.93999993428588 988
5.95999993383884 1043
5.97999993339181 1022
5.99999993294477 944
6.01999993249774 933
6.0399999320507 957
6.05999993160367 931
6.07999993115663 910
6.0999999307096 885
6.11999993026257 883
6.13999992981553 901
6.1599999293685 812
6.17999992892146 907
6.19999992847443 916
6.21999992802739 904
6.23999992758036 874
6.25999992713332 933
6.27999992668629 842
6.29999992623925 848
6.31999992579222 810
6.33999992534518 840
6.35999992489815 828
6.37999992445111 846
6.39999992400408 882
6.41999992355704 810
6.43999992311001 818
6.45999992266297 822
6.47999992221594 856
6.4999999217689 839
6.51999992132187 847
6.53999992087483 829
6.5599999204278 798
6.57999991998076 836
6.59999991953373 837
6.61999991908669 831
6.63999991863966 791
6.65999991819262 802
6.67999991774559 828
6.69999991729855 857
6.71999991685152 782
6.73999991640449 795
6.75999991595745 809
6.77999991551042 795
6.79999991506338 818
6.81999991461635 859
6.83999991416931 782
6.85999991372228 840
6.87999991327524 744
6.89999991282821 846
6.91999991238117 769
6.93999991193414 797
6.9599999114871 818
6.97999991104007 848
6.99999991059303 816
7.019999910146 807
7.03999990969896 825
7.05999990925193 817
7.07999990880489 801
7.09999990835786 808
7.11999990791082 776
7.13999990746379 765
7.15999990701675 749
7.17999990656972 791
7.19999990612268 809
7.21999990567565 808
7.23999990522861 798
7.25999990478158 770
7.27999990433454 782
7.29999990388751 849
7.31999990344047 763
7.33999990299344 759
7.35999990254641 792
7.37999990209937 800
7.39999990165234 776
7.4199999012053 764
7.43999990075827 768
7.45999990031123 763
7.4799998998642 787
7.49999989941716 739
7.51999989897013 770
7.53999989852309 822
7.55999989807606 799
7.57999989762902 806
7.59999989718199 801
7.61999989673495 766
7.63999989628792 802
7.65999989584088 750
7.67999989539385 774
7.69999989494681 851
7.71999989449978 803
7.73999989405274 743
7.75999989360571 777
7.77999989315867 777
7.79999989271164 773
7.8199998922646 766
7.83999989181757 813
7.85999989137053 845
7.8799998909235 833
7.89999989047646 777
7.91999989002943 801
7.9399998895824 754
7.95999988913536 781
7.97999988868833 765
7.99999988824129 740
8.01999988779426 806
8.03999988734722 803
8.05999988690019 830
8.07999988645315 782
8.09999988600612 827
8.11999988555908 773
8.13999988511205 774
8.15999988466501 729
8.17999988421798 737
8.19999988377094 797
8.21999988332391 767
8.23999988287687 805
8.25999988242984 761
8.2799998819828 781
8.29999988153577 766
8.31999988108873 771
8.3399998806417 803
8.35999988019466 804
8.37999987974763 777
8.39999987930059 758
8.41999987885356 759
8.43999987840652 748
8.45999987795949 760
8.47999987751245 765
8.49999987706542 768
8.51999987661839 706
8.53999987617135 767
8.55999987572432 761
8.57999987527728 722
8.59999987483025 751
8.61999987438321 785
8.63999987393618 783
8.65999987348914 750
8.67999987304211 811
8.69999987259507 766
8.71999987214804 807
8.739999871701 815
8.75999987125397 810
8.77999987080693 766
8.7999998703599 753
8.81999986991286 774
8.83999986946583 820
8.85999986901879 759
8.87999986857176 791
8.89999986812472 820
8.91999986767769 794
8.93999986723065 846
8.95999986678362 828
8.97999986633658 867
8.99999986588955 848
9.01999986544251 874
9.03999986499548 883
9.05999986454844 891
9.07999986410141 897
9.09999986365438 927
9.11999986320734 952
9.13999986276031 934
9.15999986231327 1003
9.17999986186624 1022
9.1999998614192 1044
9.21999986097217 1026
9.23999986052513 1194
9.2599998600781 1305
9.27999985963106 1296
9.29999985918403 1463
9.31999985873699 1590
9.33999985828996 1734
9.35999985784292 1810
9.37999985739589 1582
9.39999985694885 1342
9.41999985650182 1203
9.43999985605478 1002
9.45999985560775 933
9.47999985516071 894
9.49999985471368 896
9.51999985426664 917
9.53999985381961 851
9.55999985337257 831
9.57999985292554 863
9.5999998524785 839
9.61999985203147 883
9.63999985158443 880
9.6599998511374 822
9.67999985069037 836
9.69999985024333 904
9.7199998497963 827
9.73999984934926 788
9.75999984890223 797
9.77999984845519 839
9.79999984800816 806
9.81999984756112 800
9.83999984711409 819
9.85999984666705 880
9.87999984622002 877
9.89999984577298 810
9.91999984532595 779
9.93999984487891 735
9.95999984443188 783
9.97999984398484 825
9.99999984353781 829
10.0199998430908 796
10.0399998426437 816
10.0599998421967 792
10.0799998417497 789
10.0999998413026 770
10.1199998408556 783
10.1399998404086 798
10.1599998399615 824
10.1799998395145 818
10.1999998390675 843
10.2199998386204 829
10.2399998381734 852
10.2599998377264 800
10.2799998372793 816
10.2999998368323 796
10.3199998363853 783
10.3399998359382 794
10.3599998354912 821
10.3799998350441 811
10.3999998345971 853
10.4199998341501 866
10.439999833703 798
10.459999833256 808
10.479999832809 854
10.4999998323619 860
10.5199998319149 863
10.5399998314679 862
10.5599998310208 914
10.5799998305738 945
10.5999998301268 942
10.6199998296797 967
10.6399998292327 1003
10.6599998287857 1005
10.6799998283386 1027
10.6999998278916 1036
10.7199998274446 1083
10.7399998269975 1138
10.7599998265505 1295
10.7799998261034 1363
10.7999998256564 1345
10.8199998252094 1250
10.8399998247623 1207
10.8599998243153 1068
10.8799998238683 945
10.8999998234212 1081
10.9199998229742 1046
10.9399998225272 962
10.9599998220801 955
10.9799998216331 850
10.9999998211861 908
11.019999820739 883
11.039999820292 880
11.059999819845 878
11.0799998193979 797
11.0999998189509 843
11.1199998185039 860
11.1399998180568 848
11.1599998176098 797
11.1799998171628 837
11.1999998167157 885
11.2199998162687 792
11.2399998158216 835
11.2599998153746 822
11.2799998149276 823
11.2999998144805 886
11.3199998140335 854
11.3399998135865 800
11.3599998131394 833
11.3799998126924 863
11.3999998122454 810
11.4199998117983 822
11.4399998113513 829
11.4599998109043 813
11.4799998104572 823
11.4999998100102 830
11.5199998095632 878
11.5399998091161 795
11.5599998086691 861
11.5799998082221 811
11.599999807775 828
11.619999807328 839
11.639999806881 837
11.6599998064339 843
11.6799998059869 857
11.6999998055398 866
11.7199998050928 805
11.7399998046458 889
11.7599998041987 834
11.7799998037517 801
11.7999998033047 863
11.8199998028576 853
11.8399998024106 841
11.8599998019636 856
11.8799998015165 900
11.8999998010695 888
11.9199998006225 906
11.9399998001754 779
11.9599997997284 825
11.9799997992814 877
11.9999997988343 893
12.0199997983873 882
12.0399997979403 837
12.0599997974932 853
12.0799997970462 864
12.0999997965992 862
12.1199997961521 852
12.1399997957051 907
12.159999795258 841
12.179999794811 855
12.199999794364 822
12.2199997939169 929
12.2399997934699 902
12.2599997930229 908
12.2799997925758 954
12.2999997921288 906
12.3199997916818 929
12.3399997912347 913
12.3599997907877 919
12.3799997903407 930
12.3999997898936 956
12.4199997894466 899
12.4399997889996 890
12.4599997885525 843
12.4799997881055 901
12.4999997876585 890
12.5199997872114 936
12.5399997867644 887
12.5599997863173 928
12.5799997858703 921
12.5999997854233 890
12.6199997849762 855
12.6399997845292 856
12.6599997840822 933
12.6799997836351 905
12.6999997831881 898
12.7199997827411 897
12.739999782294 959
12.759999781847 901
12.7799997814 886
12.7999997809529 889
12.8199997805059 941
12.8399997800589 943
12.8599997796118 957
12.8799997791648 933
12.8999997787178 982
12.9199997782707 942
12.9399997778237 941
12.9599997773767 933
12.9799997769296 941
12.9999997764826 970
13.0199997760355 941
13.0399997755885 903
13.0599997751415 909
13.0799997746944 968
13.0999997742474 947
13.1199997738004 994
13.1399997733533 957
13.1599997729063 946
13.1799997724593 923
13.1999997720122 957
13.2199997715652 971
13.2399997711182 945
13.2599997706711 973
13.2799997702241 962
13.2999997697771 939
13.31999976933 997
13.339999768883 1048
13.359999768436 1005
13.3799997679889 961
13.3999997675419 938
13.4199997670949 986
13.4399997666478 940
13.4599997662008 994
13.4799997657537 1003
13.4999997653067 939
13.5199997648597 977
13.5399997644126 1012
13.5599997639656 963
13.5799997635186 986
13.5999997630715 1013
13.6199997626245 972
13.6399997621775 1009
13.6599997617304 1006
13.6799997612834 991
13.6999997608364 1029
13.7199997603893 1030
13.7399997599423 1007
13.7599997594953 991
13.7799997590482 1027
13.7999997586012 992
13.8199997581542 1038
13.8399997577071 1033
13.8599997572601 997
13.879999756813 969
13.899999756366 1008
13.919999755919 1000
13.9399997554719 1005
13.9599997550249 1040
13.9799997545779 1028
13.9999997541308 1018
14.0199997536838 1061
14.0399997532368 1045
14.0599997527897 1030
14.0799997523427 1094
14.0999997518957 996
14.1199997514486 1013
14.1399997510016 992
14.1599997505546 1035
14.1799997501075 1050
14.1999997496605 1081
14.2199997492135 1118
14.2399997487664 1047
14.2599997483194 1101
14.2799997478724 1070
14.2999997474253 1112
14.3199997469783 1075
14.3399997465312 1056
14.3599997460842 1094
14.3799997456372 1079
14.3999997451901 1024
14.4199997447431 1078
14.4399997442961 1096
14.459999743849 1093
14.479999743402 1114
14.499999742955 1023
14.5199997425079 1052
14.5399997420609 1094
14.5599997416139 1054
14.5799997411668 1047
14.5999997407198 1055
14.6199997402728 1054
14.6399997398257 1048
14.6599997393787 1047
14.6799997389317 1096
14.6999997384846 1095
14.7199997380376 1086
14.7399997375906 1083
14.7599997371435 1101
14.7799997366965 1119
14.7999997362494 1073
14.8199997358024 1057
14.8399997353554 1091
14.8599997349083 1067
14.8799997344613 1083
14.8999997340143 1110
14.9199997335672 1118
14.9399997331202 1133
14.9599997326732 1176
14.9799997322261 1114
14.9999997317791 1070
15.0199997313321 1088
15.039999730885 1123
15.059999730438 1143
15.079999729991 1112
15.0999997295439 1091
15.1199997290969 1141
15.1399997286499 1168
15.1599997282028 1167
15.1799997277558 1170
15.1999997273088 1132
15.2199997268617 1125
15.2399997264147 1127
15.2599997259676 1115
15.2799997255206 1157
15.2999997250736 1173
15.3199997246265 1116
15.3399997241795 1076
15.3599997237325 1104
15.3799997232854 1165
15.3999997228384 1131
15.4199997223914 1134
15.4399997219443 1194
15.4599997214973 1162
15.4799997210503 1159
15.4999997206032 1230
15.5199997201562 1151
15.5399997197092 1158
15.5599997192621 1240
15.5799997188151 1209
15.5999997183681 1212
15.619999717921 1192
15.639999717474 1206
15.659999717027 1194
15.6799997165799 1238
15.6999997161329 1203
15.7199997156858 1177
15.7399997152388 1229
15.7599997147918 1223
15.7799997143447 1244
15.7999997138977 1180
15.8199997134507 1246
15.8399997130036 1217
15.8599997125566 1199
15.8799997121096 1218
15.8999997116625 1221
15.9199997112155 1245
15.9399997107685 1262
15.9599997103214 1165
15.9799997098744 1215
15.9999997094274 1235
16.0199997089803 1218
16.0399997085333 1278
16.0599997080863 1273
16.0799997076392 1232
16.0999997071922 1264
16.1199997067451 1265
16.1399997062981 1270
16.1599997058511 1253
16.179999705404 1304
16.199999704957 1294
16.21999970451 1273
16.2399997040629 1239
16.2599997036159 1277
16.2799997031689 1339
16.2999997027218 1282
16.3199997022748 1362
16.3399997018278 1258
16.3599997013807 1267
16.3799997009337 1324
16.3999997004867 1246
16.4199997000396 1351
16.4399996995926 1340
16.4599996991456 1358
16.4799996986985 1332
16.4999996982515 1389
16.5199996978045 1369
16.5399996973574 1342
16.5599996969104 1369
16.5799996964633 1366
16.5999996960163 1390
16.6199996955693 1376
16.6399996951222 1416
16.6599996946752 1349
16.6799996942282 1330
16.6999996937811 1307
16.7199996933341 1401
16.7399996928871 1425
16.75999969244 1434
16.779999691993 1479
16.799999691546 1534
16.8199996910989 1400
16.8399996906519 1419
16.8599996902049 1505
16.8799996897578 1604
16.8999996893108 1567
16.9199996888638 1704
16.9399996884167 1757
16.9599996879697 1903
16.9799996875226 1928
16.9999996870756 2015
17.0199996866286 1997
17.0399996861815 2027
17.0599996857345 1824
17.0799996852875 1753
17.0999996848404 1666
17.1199996843934 1620
17.1399996839464 1549
17.1599996834993 1478
17.1799996830523 1557
17.1999996826053 1506
17.2199996821582 1496
17.2399996817112 1541
17.2599996812642 1450
17.2799996808171 1544
17.2999996803701 1534
17.3199996799231 1528
17.339999679476 1479
17.359999679029 1529
17.379999678582 1496
17.3999996781349 1502
17.4199996776879 1484
17.4399996772408 1530
17.4599996767938 1490
17.4799996763468 1520
17.4999996758997 1551
17.5199996754527 1524
17.5399996750057 1539
17.5599996745586 1534
17.5799996741116 1556
17.5999996736646 1523
17.6199996732175 1554
17.6399996727705 1623
17.6599996723235 1597
17.6799996718764 1575
17.6999996714294 1567
17.7199996709824 1552
17.7399996705353 1504
17.7599996700883 1623
17.7799996696413 1575
17.7999996691942 1568
17.8199996687472 1625
17.8399996683002 1606
17.8599996678531 1582
17.8799996674061 1651
17.899999666959 1594
17.919999666512 1580
17.939999666065 1557
17.9599996656179 1573
17.9799996651709 1635
17.9999996647239 1699
18.0199996642768 1618
18.0399996638298 1599
18.0599996633828 1653
18.0799996629357 1598
18.0999996624887 1625
18.1199996620417 1576
18.1399996615946 1664
18.1599996611476 1649
18.1799996607006 1673
18.1999996602535 1693
18.2199996598065 1602
18.2399996593595 1647
18.2599996589124 1730
18.2799996584654 1661
18.2999996580184 1641
18.3199996575713 1718
18.3399996571243 1636
18.3599996566772 1622
18.3799996562302 1626
18.3999996557832 1660
18.4199996553361 1640
18.4399996548891 1672
18.4599996544421 1667
18.479999653995 1660
18.499999653548 1681
18.519999653101 1747
18.5399996526539 1778
18.5599996522069 1751
18.5799996517599 1722
18.5999996513128 1710
18.6199996508658 1763
18.6399996504188 1722
18.6599996499717 1800
18.6799996495247 1757
18.6999996490777 1882
18.7199996486306 1815
18.7399996481836 1779
18.7599996477366 1845
18.7799996472895 1802
18.7999996468425 1763
18.8199996463954 1750
18.8399996459484 1797
18.8599996455014 1795
18.8799996450543 1825
18.8999996446073 1817
18.9199996441603 1861
18.9399996437132 1838
18.9599996432662 1761
18.9799996428192 1778
18.9999996423721 1839
19.0199996419251 1826
19.0399996414781 1841
19.059999641031 1843
19.079999640584 1869
19.099999640137 1831
19.1199996396899 1862
19.1399996392429 1882
19.1599996387959 1875
19.1799996383488 1860
19.1999996379018 1815
19.2199996374547 1888
19.2399996370077 1857
19.2599996365607 1876
19.2799996361136 1951
19.2999996356666 1964
19.3199996352196 1930
19.3399996347725 1976
19.3599996343255 1892
19.3799996338785 1876
19.3999996334314 1983
19.4199996329844 2032
19.4399996325374 2071
19.4599996320903 2018
19.4799996316433 2056
19.4999996311963 2076
19.5199996307492 2009
19.5399996303022 2072
19.5599996298552 1989
19.5799996294081 2034
19.5999996289611 2002
19.6199996285141 2035
19.639999628067 1965
19.65999962762 1864
19.6799996271729 1942
19.6999996267259 1959
19.7199996262789 2048
19.7399996258318 2016
19.7599996253848 1995
19.7799996249378 1977
19.7999996244907 1992
19.8199996240437 1992
19.8399996235967 1962
19.8599996231496 2024
19.8799996227026 1983
19.8999996222556 2009
19.9199996218085 1991
19.9399996213615 2027
19.9599996209145 2057
19.9799996204674 2024
19.9999996200204 2033
