3 2221
3.01999999955297 2087
3.03999999910593 1963
3.0599999986589 1810
3.07999999821186 1759
3.09999999776483 1697
3.11999999731779 1564
3.13999999687076 1560
3.15999999642372 1615
3.17999999597669 1500
3.19999999552965 1485
3.21999999508262 1518
3.23999999463558 1448
3.25999999418855 1480
3.27999999374151 1452
3.29999999329448 1466
3.31999999284744 1492
3.33999999240041 1380
3.35999999195337 1372
3.37999999150634 1359
3.3999999910593 1469
3.41999999061227 1384
3.43999999016523 1334
3.4599999897182 1397
3.47999998927116 1360
3.49999998882413 1302
3.51999998837709 1323
3.53999998793006 1292
3.55999998748302 1292
3.57999998703599 1225
3.59999998658895 1284
3.61999998614192 1230
3.63999998569489 1298
3.65999998524785 1232
3.67999998480082 1216
3.69999998435378 1220
3.71999998390675 1171
3.73999998345971 1159
3.75999998301268 1215
3.77999998256564 1197
3.79999998211861 1157
3.81999998167157 1173
3.83999998122454 1207
3.8599999807775 1181
3.87999998033047 1169
3.89999997988343 1156
3.9199999794364 1186
3.93999997898936 1169
3.95999997854233 1186
3.97999997809529 1140
3.99999997764826 1088
4.01999997720122 1100
4.03999997675419 1103
4.05999997630715 1065
4.07999997586012 1084
4.09999997541308 1155
4.11999997496605 1126
4.13999997451901 1091
4.15999997407198 1112
4.17999997362494 1040
4.19999997317791 1060
4.21999997273087 1042
4.23999997228384 1030
4.25999997183681 1067
4.27999997138977 1001
4.29999997094274 1074
4.3199999704957 1033
4.33999997004867 1011
4.35999996960163 999
4.3799999691546 1046
4.39999996870756 1005
4.41999996826053 1016
4.43999996781349 982
4.45999996736646 962
4.47999996691942 989
4.49999996647239 1036
4.51999996602535 965
4.53999996557832 946
4.55999996513128 963
4.57999996468425 990
4.59999996423721 978
4.61999996379018 960
4.63999996334314 972
4.65999996289611 959
4.67999996244907 935
4.69999996200204 907
4.719999961555 984
4.73999996110797 926
4.75999996066093 943
4.7799999602139 996
4.79999995976686 1004
4.81999995931983 956
4.83999995887279 956
4.85999995842576 962
4.87999995797873 936
4.89999995753169 952
4.91999995708466 916
4.93999995663762 979
4.95999995619059 946
4.97999995574355 957
4.99999995529652 970
5.01999995484948 990
5.03999995440245 929
5.05999995395541 973
5.07999995350838 944
5.09999995306134 965
5.11999995261431 976
5.13999995216727 1026
5.15999995172024 1047
5.1799999512732 1000
5.19999995082617 1081
5.21999995037913 1060
5.2399999499321 1042
5.25999994948506 1105
5.27999994903803 1140
5.29999994859099 1126
5.31999994814396 1173
5.33999994769692 1204
5.35999994724989 1264
5.37999994680285 1366
5.39999994635582 1420
5.41999994590878 1497
5.43999994546175 1547
5.45999994501471 1689
5.47999994456768 1797
5.49999994412065 1898
5.51999994367361 1778
5.53999994322658 1605
5.55999994277954 1342
5.57999994233251 1198
5.59999994188547 1217
5.61999994143844 1146
5.6399999409914 1166
5.65999994054437 1158
5.67999994009733 1110
5.6999999396503 1166
5.71999993920326 1124
5.73999993875623 1164
5.75999993830919 1182
5.77999993786216 1233
5.79999993741512 1224
5.81999993696809 1147
5.83999993652105 1177
5.85999993607402 1203
5.87999993562698 1157
5.89999993517995 1079
5.91999993473291 1031
5.93999993428588 860
5.95999993383884 841
5.97999993339181 856
5.99999993294477 802
6.01999993249774 796
6.0399999320507 704
6.05999993160367 791
6.07999993115663 769
6.0999999307096 731
6.11999993026257 699
6.13999992981553 728
6.1599999293685 743
6.17999992892146 667
6.19999992847443 686
6.21999992802739 701
6.23999992758036 681
6.25999992713332 682
6.27999992668629 641
6.29999992623925 697
6.31999992579222 683
6.33999992534518 651
6.35999992489815 660
6.37999992445111 619
6.39999992400408 677
6.41999992355704 641
6.43999992311001 640
6.45999992266297 677
6.47999992221594 652
6.4999999217689 667
6.51999992132187 613
6.53999992087483 621
6.5599999204278 628
6.57999991998076 604
6.59999991953373 627
6.61999991908669 671
6.63999991863966 660
6.65999991819262 602
6.67999991774559 607
6.69999991729855 681
6.71999991685152 601
6.73999991640449 652
6.75999991595745 648
6.77999991551042 648
6.79999991506338 646
6.81999991461635 666
6.83999991416931 641
6.85999991372228 640
6.87999991327524 648
6.89999991282821 644
6.91999991238117 621
6.93999991193414 655
6.9599999114871 615
6.97999991104007 595
6.99999991059303 629
7.019999910146 637
7.03999990969896 578
7.05999990925193 584
7.07999990880489 557
7.09999990835786 572
7.11999990791082 597
7.13999990746379 587
7.15999990701675 591
7.17999990656972 609
7.19999990612268 575
7.21999990567565 588
7.23999990522861 584
7.25999990478158 624
7.27999990433454 585
7.29999990388751 579
7.31999990344047 587
7.33999990299344 562
7.35999990254641 566
7.37999990209937 567
7.39999990165234 569
7.4199999012053 597
7.43999990075827 586
7.45999990031123 573
7.4799998998642 553
7.49999989941716 554
7.51999989897013 572
7.53999989852309 593
7.55999989807606 557
7.57999989762902 579
7.59999989718199 559
7.61999989673495 548
7.63999989628792 585
7.65999989584088 600
7.67999989539385 530
7.69999989494681 561
7.71999989449978 578
7.73999989405274 571
7.75999989360571 566
7.77999989315867 545
7.79999989271164 540
7.8199998922646 567
7.83999989181757 528
7.85999989137053 536
7.8799998909235 535
7.89999989047646 596
7.91999989002943 538
7.9399998895824 526
7.95999988913536 564
7.97999988868833 570
7.99999988824129 579
8.01999988779426 534
8.03999988734722 587
8.05999988690019 572
8.07999988645315 559
8.09999988600612 561
8.11999988555908 575
8.13999988511205 561
8.15999988466501 547
8.17999988421798 533
8.19999988377094 539
8.21999988332391 544
8.23999988287687 538
8.25999988242984 533
8.2799998819828 528
8.29999988153577 533
8.31999988108873 563
8.3399998806417 570
8.35999988019466 578
8.37999987974763 558
8.39999987930059 527
8.41999987885356 540
8.43999987840652 516
8.45999987795949 570
8.47999987751245 575
8.49999987706542 560
8.51999987661839 518
8.53999987617135 574
8.55999987572432 503
8.57999987527728 519
8.59999987483025 569
8.61999987438321 565
8.63999987393618 536
8.65999987348914 534
8.67999987304211 572
8.69999987259507 503
8.71999987214804 534
8.739999871701 548
8.75999987125397 495
8.77999987080693 583
8.7999998703599 530
8.81999986991286 588
8.83999986946583 571
8.85999986901879 527
8.87999986857176 570
8.89999986812472 543
8.91999986767769 565
8.93999986723065 534
8.95999986678362 524
8.97999986633658 533
8.99999986588955 512
9.01999986544251 534
9.03999986499548 570
9.05999986454844 559
9.07999986410141 578
9.09999986365438 586
9.11999986320734 610
9.13999986276031 597
9.15999986231327 590
9.17999986186624 595
9.1999998614192 622
9.21999986097217 617
9.23999986052513 637
9.2599998600781 662
9.27999985963106 662
9.29999985918403 730
9.31999985873699 827
9.33999985828996 767
9.35999985784292 857
9.37999985739589 860
9.39999985694885 903
9.41999985650182 1006
9.43999985605478 938
9.45999985560775 813
9.47999985516071 680
9.49999985471368 602
9.51999985426664 593
9.53999985381961 553
9.55999985337257 598
9.57999985292554 555
9.5999998524785 530
9.61999985203147 537
9.63999985158443 512
9.6599998511374 564
9.67999985069037 531
9.69999985024333 536
9.7199998497963 561
9.73999984934926 528
9.75999984890223 529
9.77999984845519 533
9.79999984800816 523
9.81999984756112 521
9.83999984711409 566
9.85999984666705 559
9.87999984622002 553
9.89999984577298 565
9.91999984532595 553
9.93999984487891 555
9.95999984443188 540
9.97999984398484 567
9.99999984353781 521
10.0199998430908 526
10.0399998426437 527
10.0599998421967 531
10.0799998417497 549
10.0999998413026 574
10.1199998408556 540
10.1399998404086 537
10.1599998399615 588
10.1799998395145 547
10.1999998390675 578
10.2199998386204 564
10.2399998381734 586
10.2599998377264 584
10.2799998372793 562
10.2999998368323 558
10.3199998363853 566
10.3399998359382 494
10.3599998354912 539
10.3799998350441 514
10.3999998345971 524
10.4199998341501 538
10.439999833703 516
10.459999833256 519
10.479999832809 505
10.4999998323619 484
10.5199998319149 501
10.5399998314679 535
10.5599998310208 543
10.5799998305738 516
10.5999998301268 558
10.6199998296797 564
10.6399998292327 510
10.6599998287857 533
10.6799998283386 598
10.6999998278916 595
10.7199998274446 575
10.7399998269975 620
10.7599998265505 594
10.7799998261034 586
10.7999998256564 668
10.8199998252094 640
10.8399998247623 682
10.8599998243153 759
10.8799998238683 751
10.8999998234212 674
10.9199998229742 619
10.9399998225272 613
10.9599998220801 632
10.9799998216331 589
10.9999998211861 648
11.019999820739 568
11.039999820292 609
11.059999819845 628
11.0799998193979 612
11.0999998189509 587
11.1199998185039 554
11.1399998180568 552
11.1599998176098 522
11.1799998171628 516
11.1999998167157 539
11.2199998162687 525
11.2399998158216 511
11.2599998153746 521
11.2799998149276 494
11.2999998144805 526
11.3199998140335 504
11.3399998135865 533
11.3599998131394 555
11.3799998126924 514
11.3999998122454 503
11.4199998117983 539
11.4399998113513 529
11.4599998109043 520
11.4799998104572 516
11.4999998100102 544
11.5199998095632 566
11.5399998091161 544
11.5599998086691 548
11.5799998082221 543
11.599999807775 542
11.619999807328 553
11.639999806881 562
11.6599998064339 537
11.6799998059869 545
11.6999998055398 518
11.7199998050928 525
11.7399998046458 554
11.7599998041987 544
11.7799998037517 508
11.7999998033047 506
11.8199998028576 495
11.8399998024106 511
11.8599998019636 526
11.8799998015165 495
11.8999998010695 521
11.9199998006225 508
11.9399998001754 487
11.9599997997284 533
11.9799997992814 542
11.9999997988343 518
12.0199997983873 529
12.0399997979403 565
12.0599997974932 559
12.0799997970462 539
12.0999997965992 497
12.1199997961521 538
12.1399997957051 543
12.159999795258 562
12.179999794811 538
12.199999794364 529
12.2199997939169 518
12.2399997934699 583
12.2599997930229 542
12.2799997925758 536
12.2999997921288 565
12.3199997916818 548
12.3399997912347 538
12.3599997907877 519
12.3799997903407 536
12.3999997898936 587
12.4199997894466 515
12.4399997889996 540
12.4599997885525 508
12.4799997881055 542
12.4999997876585 518
12.5199997872114 533
12.5399997867644 532
12.5599997863173 499
12.5799997858703 537
12.5999997854233 577
12.6199997849762 555
12.6399997845292 493
12.6599997840822 500
12.6799997836351 497
12.6999997831881 487
12.7199997827411 531
12.739999782294 560
12.759999781847 578
12.7799997814 514
12.7999997809529 516
12.8199997805059 540
12.8399997800589 522
12.8599997796118 531
12.8799997791648 543
12.8999997787178 533
12.9199997782707 535
12.9399997778237 528
12.9599997773767 526
12.9799997769296 536
12.9999997764826 554
13.0199997760355 571
13.0399997755885 586
13.0599997751415 574
13.0799997746944 522
13.0999997742474 540
13.1199997738004 557
13.1399997733533 552
13.1599997729063 543
13.1799997724593 561
13.1999997720122 560
13.2199997715652 509
13.2399997711182 541
13.2599997706711 502
13.2799997702241 534
13.2999997697771 574
13.31999976933 555
13.339999768883 555
13.359999768436 596
13.3799997679889 573
13.3999997675419 562
13.4199997670949 569
13.4399997666478 565
13.4599997662008 585
13.4799997657537 532
13.4999997653067 552
13.5199997648597 544
13.5399997644126 560
13.5599997639656 562
13.5799997635186 582
13.5999997630715 539
13.6199997626245 531
13.6399997621775 567
13.6599997617304 600
13.6799997612834 581
13.6999997608364 538
13.7199997603893 589
13.7399997599423 558
13.7599997594953 524
13.7799997590482 581
13.7999997586012 548
13.8199997581542 568
13.8399997577071 557
13.8599997572601 580
13.879999756813 563
13.899999756366 626
13.919999755919 570
13.9399997554719 560
13.9599997550249 584
13.9799997545779 585
13.9999997541308 551
14.0199997536838 575
14.0399997532368 583
14.0599997527897 567
14.0799997523427 588
14.0999997518957 563
14.1199997514486 573
14.1399997510016 572
14.1599997505546 620
14.1799997501075 568
14.1999997496605 608
14.2199997492135 605
14.2399997487664 615
14.2599997483194 615
14.2799997478724 589
14.2999997474253 605
14.3199997469783 623
14.3399997465312 663
14.3599997460842 637
14.3799997456372 612
14.3999997451901 580
14.4199997447431 589
14.4399997442961 626
14.459999743849 588
14.479999743402 597
14.499999742955 615
14.5199997425079 571
14.5399997420609 547
14.5599997416139 577
14.5799997411668 567
14.5999997407198 610
14.6199997402728 588
14.6399997398257 639
14.6599997393787 639
14.6799997389317 592
14.6999997384846 596
14.7199997380376 595
14.7399997375906 623
14.7599997371435 624
14.7799997366965 619
14.7999997362494 602
14.8199997358024 576
14.8399997353554 611
14.8599997349083 591
14.8799997344613 629
14.8999997340143 598
14.9199997335672 623
14.9399997331202 634
14.9599997326732 603
14.9799997322261 613
14.9999997317791 598
15.0199997313321 570
15.039999730885 615
15.059999730438 640
15.079999729991 629
15.0999997295439 616
15.1199997290969 634
15.1399997286499 678
15.1599997282028 596
15.1799997277558 627
15.1999997273088 609
15.2199997268617 618
15.2399997264147 646
15.2599997259676 678
15.2799997255206 657
15.2999997250736 604
15.3199997246265 644
15.3399997241795 640
15.3599997237325 614
15.3799997232854 681
15.3999997228384 634
15.4199997223914 670
15.4399997219443 631
15.4599997214973 631
15.4799997210503 621
15.4999997206032 660
15.5199997201562 671
15.5399997197092 606
15.5599997192621 678
15.5799997188151 658
15.5999997183681 661
15.619999717921 580
15.639999717474 613
15.659999717027 632
15.6799997165799 640
15.6999997161329 593
15.7199997156858 678
15.7399997152388 702
15.7599997147918 609
15.7799997143447 660
15.7999997138977 647
15.8199997134507 628
15.8399997130036 641
15.8599997125566 672
15.8799997121096 675
15.8999997116625 634
15.9199997112155 689
15.9399997107685 636
15.9599997103214 656
15.9799997098744 666
15.9999997094274 683
16.0199997089803 648
16.0399997085333 697
16.0599997080863 705
16.0799997076392 716
16.0999997071922 646
16.1199997067451 689
16.1399997062981 661
16.1599997058511 695
16.179999705404 701
16.199999704957 665
16.21999970451 677
16.2399997040629 700
16.2599997036159 681
16.2799997031689 647
16.2999997027218 709
16.3199997022748 719
16.3399997018278 683
16.3599997013807 698
16.3799997009337 689
16.3999997004867 700
16.4199997000396 716
16.4399996995926 700
16.4599996991456 686
16.4799996986985 715
16.4999996982515 696
16.5199996978045 721
16.5399996973574 692
16.5599996969104 783
16.5799996964633 731
16.5999996960163 727
16.6199996955693 740
16.6399996951222 703
16.6599996946752 684
16.6799996942282 729
16.6999996937811 764
16.7199996933341 762
16.7399996928871 701
16.75999969244 710
16.779999691993 752
16.799999691546 793
16.8199996910989 703
16.8399996906519 706
16.8599996902049 725
16.8799996897578 731
16.8999996893108 737
16.9199996888638 736
16.9399996884167 821
16.9599996879697 785
16.9799996875226 818
16.9999996870756 857
17.0199996866286 914
17.0399996861815 905
17.0599996857345 932
17.0799996852875 915
17.0999996848404 934
17.1199996843934 864
17.1399996839464 775
17.1599996834993 766
17.1799996830523 763
17.1999996826053 740
17.2199996821582 748
17.2399996817112 787
17.2599996812642 803
17.2799996808171 809
17.2999996803701 786
17.3199996799231 789
17.339999679476 806
17.359999679029 856
17.379999678582 819
17.3999996781349 791
17.4199996776879 797
17.4399996772408 825
17.4599996767938 814
17.4799996763468 788
17.4999996758997 785
17.5199996754527 822
17.5399996750057 808
17.5599996745586 779
17.5799996741116 876
17.5999996736646 817
17.6199996732175 781
17.6399996727705 834
17.6599996723235 822
17.6799996718764 807
17.6999996714294 831
17.7199996709824 892
17.7399996705353 824
17.7599996700883 817
17.7799996696413 805
17.7999996691942 797
17.8199996687472 807
17.8399996683002 839
17.8599996678531 820
17.8799996674061 870
17.899999666959 820
17.919999666512 800
17.939999666065 847
17.9599996656179 869
17.9799996651709 874
17.9999996647239 835
18.0199996642768 847
18.0399996638298 823
18.0599996633828 845
18.0799996629357 847
18.0999996624887 860
18.1199996620417 849
18.1399996615946 871
18.1599996611476 865
18.1799996607006 849
18.1999996602535 889
18.2199996598065 825
18.2399996593595 847
18.2599996589124 881
18.2799996584654 929
18.2999996580184 915
18.3199996575713 891
18.3399996571243 931
18.3599996566772 941
18.3799996562302 923
18.3999996557832 878
18.4199996553361 837
18.4399996548891 884
18.4599996544421 877
18.479999653995 867
18.499999653548 968
18.519999653101 968
18.5399996526539 922
18.5599996522069 851
18.5799996517599 891
18.5999996513128 896
18.6199996508658 931
18.6399996504188 877
18.6599996499717 921
18.6799996495247 905
18.6999996490777 984
18.7199996486306 968
18.7399996481836 990
18.7599996477366 951
18.7799996472895 963
18.7999996468425 958
18.8199996463954 929
18.8399996459484 965
18.8599996455014 935
18.8799996450543 969
18.8999996446073 954
18.9199996441603 962
18.9399996437132 981
18.9599996432662 953
18.9799996428192 971
18.9999996423721 1024
19.0199996419251 1014
19.0399996414781 1026
19.059999641031 996
19.079999640584 989
19.099999640137 971
19.1199996396899 951
19.1399996392429 981
19.1599996387959 989
19.1799996383488 1062
19.1999996379018 1076
19.2199996374547 1072
19.2399996370077 1003
19.2599996365607 1036
19.2799996361136 1021
19.2999996356666 948
19.3199996352196 982
19.3399996347725 1087
19.3599996343255 1059
19.3799996338785 1021
19.3999996334314 1038
19.4199996329844 1017
19.4399996325374 1098
19.4599996320903 1074
19.4799996316433 1027
19.4999996311963 1145
19.5199996307492 1108
19.5399996303022 1088
19.5599996298552 1197
19.5799996294081 1054
19.5999996289611 1075
19.6199996285141 1131
19.639999628067 1098
19.65999962762 1110
19.6799996271729 1145
19.6999996267259 1056
19.7199996262789 1046
19.7399996258318 1083
19.7599996253848 1036
19.7799996249378 1064
19.7999996244907 1082
19.8199996240437 1060
19.8399996235967 1029
19.8599996231496 1039
19.8799996227026 1055
19.8999996222556 1039
19.9199996218085 1110
19.9399996213615 1092
19.9599996209145 1150
19.9799996204674 1083
19.9999996200204 1060
