3 2949
3.01999999955297 2854
3.03999999910593 2674
3.0599999986589 2553
3.07999999821186 2432
3.09999999776483 2309
3.11999999731779 2231
3.13999999687076 2240
3.15999999642372 2127
3.17999999597669 2108
3.19999999552965 2083
3.21999999508262 2032
3.23999999463558 2062
3.25999999418855 1989
3.27999999374151 1946
3.29999999329448 1939
3.31999999284744 1959
3.33999999240041 1955
3.35999999195337 1929
3.37999999150634 1870
3.3999999910593 1901
3.41999999061227 1947
3.43999999016523 1818
3.4599999897182 1742
3.47999998927116 1882
3.49999998882413 1701
3.51999998837709 1756
3.53999998793006 1753
3.55999998748302 1684
3.57999998703599 1677
3.59999998658895 1716
3.61999998614192 1601
3.63999998569489 1533
3.65999998524785 1573
3.67999998480082 1527
3.69999998435378 1478
3.71999998390675 1505
3.73999998345971 1540
3.75999998301268 1479
3.77999998256564 1468
3.79999998211861 1437
3.81999998167157 1446
3.83999998122454 1447
3.8599999807775 1517
3.87999998033047 1343
3.89999997988343 1369
3.9199999794364 1354
3.93999997898936 1298
3.95999997854233 1319
3.97999997809529 1254
3.99999997764826 1349
4.01999997720122 1267
4.03999997675419 1330
4.05999997630715 1261
4.07999997586012 1246
4.09999997541308 1170
4.11999997496605 1229
4.13999997451901 1140
4.15999997407198 1131
4.17999997362494 1226
4.19999997317791 1188
4.21999997273087 1142
4.23999997228384 1210
4.25999997183681 1199
4.27999997138977 1186
4.29999997094274 1173
4.3199999704957 1189
4.33999997004867 1099
4.35999996960163 1040
4.3799999691546 1067
4.39999996870756 1120
4.41999996826053 1105
4.43999996781349 1152
4.45999996736646 1075
4.47999996691942 1101
4.49999996647239 1032
4.51999996602535 998
4.53999996557832 969
4.55999996513128 1028
4.57999996468425 1017
4.59999996423721 1002
4.61999996379018 1028
4.63999996334314 965
4.65999996289611 910
4.67999996244907 994
4.69999996200204 898
4.719999961555 950
4.73999996110797 975
4.75999996066093 989
4.7799999602139 928
4.79999995976686 968
4.81999995931983 952
4.83999995887279 942
4.85999995842576 958
4.87999995797873 905
4.89999995753169 909
4.91999995708466 945
4.93999995663762 887
4.95999995619059 940
4.97999995574355 949
4.99999995529652 949
5.01999995484948 927
5.03999995440245 859
5.05999995395541 946
5.07999995350838 900
5.09999995306134 891
5.11999995261431 917
5.13999995216727 894
5.15999995172024 909
5.1799999512732 918
5.19999995082617 851
5.21999995037913 879
5.2399999499321 922
5.25999994948506 967
5.27999994903803 942
5.29999994859099 891
5.31999994814396 889
5.33999994769692 911
5.35999994724989 933
5.37999994680285 913
5.39999994635582 973
5.41999994590878 999
5.43999994546175 986
5.45999994501471 991
5.47999994456768 1036
5.49999994412065 1040
5.51999994367361 982
5.53999994322658 990
5.55999994277954 890
5.57999994233251 872
5.59999994188547 882
5.61999994143844 916
5.6399999409914 870
5.65999994054437 851
5.67999994009733 849
5.6999999396503 823
5.71999993920326 816
5.73999993875623 827
5.75999993830919 814
5.77999993786216 753
5.79999993741512 866
5.81999993696809 794
5.83999993652105 812
5.85999993607402 771
5.87999993562698 805
5.89999993517995 782
5.91999993473291 717
5.93999993428588 765
5.95999993383884 752
5.97999993339181 741
5.99999993294477 710
6.01999993249774 757
6.0399999320507 783
6.05999993160367 764
6.07999993115663 705
6.0999999307096 762
6.11999993026257 760
6.13999992981553 721
6.1599999293685 696
6.17999992892146 702
6.19999992847443 742
6.21999992802739 726
6.23999992758036 721
6.25999992713332 747
6.27999992668629 730
6.29999992623925 699
6.31999992579222 697
6.33999992534518 722
6.35999992489815 725
6.37999992445111 715
6.39999992400408 747
6.41999992355704 752
6.43999992311001 702
6.45999992266297 682
6.47999992221594 707
6.4999999217689 718
6.51999992132187 665
6.53999992087483 685
6.5599999204278 752
6.57999991998076 700
6.59999991953373 727
6.61999991908669 698
6.63999991863966 710
6.65999991819262 733
6.67999991774559 690
6.69999991729855 650
6.71999991685152 743
6.73999991640449 676
6.75999991595745 742
6.77999991551042 708
6.79999991506338 679
6.81999991461635 712
6.83999991416931 684
6.85999991372228 683
6.87999991327524 705
6.89999991282821 717
6.91999991238117 689
6.93999991193414 666
6.9599999114871 688
6.97999991104007 689
6.99999991059303 656
7.019999910146 731
7.03999990969896 675
7.05999990925193 657
7.07999990880489 680
7.09999990835786 636
7.11999990791082 680
7.13999990746379 677
7.15999990701675 683
7.17999990656972 630
7.19999990612268 700
7.21999990567565 665
7.23999990522861 620
7.25999990478158 696
7.27999990433454 687
7.29999990388751 714
7.31999990344047 655
7.33999990299344 654
7.35999990254641 677
7.37999990209937 667
7.39999990165234 667
7.4199999012053 643
7.43999990075827 664
7.45999990031123 656
7.4799998998642 695
7.49999989941716 692
7.51999989897013 605
7.53999989852309 619
7.55999989807606 692
7.57999989762902 667
7.59999989718199 660
7.61999989673495 639
7.63999989628792 617
7.65999989584088 642
7.67999989539385 590
7.69999989494681 659
7.71999989449978 659
7.73999989405274 647
7.75999989360571 631
7.77999989315867 670
7.79999989271164 650
7.8199998922646 655
7.83999989181757 637
7.85999989137053 588
7.8799998909235 622
7.89999989047646 632
7.91999989002943 650
7.9399998895824 639
7.95999988913536 624
7.97999988868833 672
7.99999988824129 661
8.01999988779426 627
8.03999988734722 608
8.05999988690019 625
8.07999988645315 605
8.09999988600612 611
8.11999988555908 647
8.13999988511205 610
8.15999988466501 639
8.17999988421798 626
8.19999988377094 617
8.21999988332391 608
8.23999988287687 645
8.25999988242984 631
8.2799998819828 645
8.29999988153577 640
8.31999988108873 663
8.3399998806417 668
8.35999988019466 606
8.37999987974763 644
8.39999987930059 564
8.41999987885356 617
8.43999987840652 616
8.45999987795949 664
8.47999987751245 657
8.49999987706542 646
8.51999987661839 649
8.53999987617135 608
8.55999987572432 605
8.57999987527728 576
8.59999987483025 601
8.61999987438321 621
8.63999987393618 606
8.65999987348914 629
8.67999987304211 625
8.69999987259507 612
8.71999987214804 614
8.739999871701 624
8.75999987125397 579
8.77999987080693 637
8.7999998703599 651
8.81999986991286 643
8.83999986946583 649
8.85999986901879 625
8.87999986857176 666
8.89999986812472 575
8.91999986767769 570
8.93999986723065 629
8.95999986678362 621
8.97999986633658 585
8.99999986588955 636
9.01999986544251 596
9.03999986499548 613
9.05999986454844 590
9.07999986410141 626
9.09999986365438 645
9.11999986320734 605
9.13999986276031 676
9.15999986231327 663
9.17999986186624 616
9.1999998614192 596
9.21999986097217 660
9.23999986052513 650
9.2599998600781 646
9.27999985963106 668
9.29999985918403 642
9.31999985873699 632
9.33999985828996 682
9.35999985784292 688
9.37999985739589 667
9.39999985694885 733
9.41999985650182 650
9.43999985605478 749
9.45999985560775 667
9.47999985516071 653
9.49999985471368 674
9.51999985426664 651
9.53999985381961 675
9.55999985337257 605
9.57999985292554 629
9.5999998524785 596
9.61999985203147 601
9.63999985158443 607
9.6599998511374 640
9.67999985069037 649
9.69999985024333 650
9.7199998497963 624
9.73999984934926 607
9.75999984890223 605
9.77999984845519 626
9.79999984800816 588
9.81999984756112 595
9.83999984711409 611
9.85999984666705 587
9.87999984622002 604
9.89999984577298 596
9.91999984532595 593
9.93999984487891 647
9.95999984443188 592
9.97999984398484 585
9.99999984353781 558
10.0199998430908 551
10.0399998426437 607
10.0599998421967 617
10.0799998417497 558
10.0999998413026 642
10.1199998408556 637
10.1399998404086 609
10.1599998399615 580
10.1799998395145 645
10.1999998390675 626
10.2199998386204 598
10.2399998381734 565
10.2599998377264 584
10.2799998372793 579
10.2999998368323 626
10.3199998363853 591
10.3399998359382 587
10.3599998354912 616
10.3799998350441 605
10.3999998345971 619
10.4199998341501 638
10.439999833703 594
10.459999833256 624
10.479999832809 623
10.4999998323619 569
10.5199998319149 593
10.5399998314679 569
10.5599998310208 576
10.5799998305738 580
10.5999998301268 583
10.6199998296797 618
10.6399998292327 610
10.6599998287857 609
10.6799998283386 589
10.6999998278916 628
10.7199998274446 606
10.7399998269975 618
10.7599998265505 586
10.7799998261034 594
10.7999998256564 627
10.8199998252094 608
10.8399998247623 595
10.8599998243153 611
10.8799998238683 591
10.8999998234212 581
10.9199998229742 614
10.9399998225272 610
10.9599998220801 576
10.9799998216331 635
10.9999998211861 620
11.019999820739 635
11.039999820292 637
11.059999819845 608
11.0799998193979 599
11.0999998189509 604
11.1199998185039 573
11.1399998180568 590
11.1599998176098 602
11.1799998171628 569
11.1999998167157 587
11.2199998162687 544
11.2399998158216 592
11.2599998153746 604
11.2799998149276 622
11.2999998144805 600
11.3199998140335 576
11.3399998135865 593
11.3599998131394 575
11.3799998126924 555
11.3999998122454 575
11.4199998117983 603
11.4399998113513 631
11.4599998109043 570
11.4799998104572 568
11.4999998100102 578
11.5199998095632 563
11.5399998091161 564
11.5599998086691 626
11.5799998082221 541
11.599999807775 565
11.619999807328 584
11.639999806881 551
11.6599998064339 578
11.6799998059869 605
11.6999998055398 576
11.7199998050928 639
11.7399998046458 565
11.7599998041987 574
11.7799998037517 655
11.7999998033047 619
11.8199998028576 616
11.8399998024106 628
11.8599998019636 627
11.8799998015165 575
11.8999998010695 609
11.9199998006225 594
11.9399998001754 589
11.9599997997284 638
11.9799997992814 576
11.9999997988343 583
12.0199997983873 635
12.0399997979403 608
12.0599997974932 599
12.0799997970462 620
12.0999997965992 627
12.1199997961521 644
12.1399997957051 591
12.159999795258 625
12.179999794811 600
12.199999794364 660
12.2199997939169 623
12.2399997934699 581
12.2599997930229 596
12.2799997925758 583
12.2999997921288 609
12.3199997916818 567
12.3399997912347 635
12.3599997907877 598
12.3799997903407 599
12.3999997898936 569
12.4199997894466 601
12.4399997889996 625
12.4599997885525 560
12.4799997881055 595
12.4999997876585 593
12.5199997872114 593
12.5399997867644 551
12.5599997863173 585
12.5799997858703 599
12.5999997854233 595
12.6199997849762 596
12.6399997845292 628
12.6599997840822 572
12.6799997836351 583
12.6999997831881 618
12.7199997827411 584
12.739999782294 635
12.759999781847 622
12.7799997814 628
12.7999997809529 610
12.8199997805059 594
12.8399997800589 644
12.8599997796118 637
12.8799997791648 604
12.8999997787178 646
12.9199997782707 642
12.9399997778237 602
12.9599997773767 643
12.9799997769296 627
12.9999997764826 639
13.0199997760355 572
13.0399997755885 601
13.0599997751415 636
13.0799997746944 666
13.0999997742474 656
13.1199997738004 654
13.1399997733533 608
13.1599997729063 670
13.1799997724593 635
13.1999997720122 628
13.2199997715652 627
13.2399997711182 634
13.2599997706711 594
13.2799997702241 634
13.2999997697771 624
13.31999976933 612
13.339999768883 639
13.359999768436 683
13.3799997679889 649
13.3999997675419 665
13.4199997670949 641
13.4399997666478 625
13.4599997662008 617
13.4799997657537 663
13.4999997653067 646
13.5199997648597 654
13.5399997644126 664
13.5599997639656 657
13.5799997635186 641
13.5999997630715 659
13.6199997626245 609
13.6399997621775 667
13.6599997617304 679
13.6799997612834 693
13.6999997608364 662
13.7199997603893 642
13.7399997599423 660
13.7599997594953 666
13.7799997590482 635
13.7999997586012 631
13.8199997581542 650
13.8399997577071 628
13.8599997572601 666
13.879999756813 714
13.899999756366 700
13.919999755919 649
13.9399997554719 675
13.9599997550249 618
13.9799997545779 641
13.9999997541308 668
14.0199997536838 687
14.0399997532368 661
14.0599997527897 722
14.0799997523427 679
14.0999997518957 737
14.1199997514486 708
14.1399997510016 695
14.1599997505546 708
14.1799997501075 701
14.1999997496605 672
14.2199997492135 707
14.2399997487664 727
14.2599997483194 689
14.2799997478724 664
14.2999997474253 654
14.3199997469783 676
14.3399997465312 730
14.3599997460842 704
14.3799997456372 697
14.3999997451901 738
14.4199997447431 732
14.4399997442961 719
14.459999743849 705
14.479999743402 698
14.499999742955 724
14.5199997425079 753
14.5399997420609 703
14.5599997416139 705
14.5799997411668 773
14.5999997407198 716
14.6199997402728 691
14.6399997398257 703
14.6599997393787 680
14.6799997389317 710
14.6999997384846 707
14.7199997380376 758
14.7399997375906 691
14.7599997371435 765
14.7799997366965 713
14.7999997362494 722
14.8199997358024 710
14.8399997353554 705
14.8599997349083 713
14.8799997344613 774
14.8999997340143 733
14.9199997335672 713
14.9399997331202 769
14.9599997326732 782
14.9799997322261 740
14.9999997317791 698
15.0199997313321 723
15.039999730885 788
15.059999730438 731
15.079999729991 728
15.0999997295439 733
15.1199997290969 723
15.1399997286499 763
15.1599997282028 744
15.1799997277558 751
15.1999997273088 725
15.2199997268617 740
15.2399997264147 771
15.2599997259676 770
15.2799997255206 759
15.2999997250736 759
15.3199997246265 761
15.3399997241795 787
15.3599997237325 772
15.3799997232854 781
15.3999997228384 762
15.4199997223914 744
15.4399997219443 762
15.4599997214973 791
15.4799997210503 822
15.4999997206032 826
15.5199997201562 800
15.5399997197092 795
15.5599997192621 789
15.5799997188151 790
15.5999997183681 831
15.619999717921 735
15.639999717474 804
15.659999717027 805
15.6799997165799 766
15.6999997161329 824
15.7199997156858 792
15.7399997152388 773
15.7599997147918 793
15.7799997143447 782
15.7999997138977 847
15.8199997134507 763
15.8399997130036 836
15.8599997125566 817
15.8799997121096 818
15.8999997116625 767
15.9199997112155 784
15.9399997107685 850
15.9599997103214 798
15.9799997098744 784
15.9999997094274 814
16.0199997089803 839
16.0399997085333 855
16.0599997080863 807
16.0799997076392 831
16.0999997071922 820
16.1199997067451 801
16.1399997062981 838
16.1599997058511 838
16.179999705404 819
16.199999704957 830
16.21999970451 836
16.2399997040629 822
16.2599997036159 899
16.2799997031689 884
16.2999997027218 868
16.3199997022748 859
16.3399997018278 839
16.3599997013807 905
16.3799997009337 904
16.3999997004867 892
16.4199997000396 917
16.4399996995926 860
16.4599996991456 896
16.4799996986985 899
16.4999996982515 945
16.5199996978045 937
16.5399996973574 932
16.5599996969104 920
16.5799996964633 865
16.5999996960163 894
16.6199996955693 856
16.6399996951222 882
16.6599996946752 894
16.6799996942282 924
16.6999996937811 935
16.7199996933341 859
16.7399996928871 932
16.75999969244 939
16.779999691993 920
16.799999691546 988
16.8199996910989 984
16.8399996906519 1051
16.8599996902049 1016
16.8799996897578 1028
16.8999996893108 1031
16.9199996888638 1028
16.9399996884167 1140
16.9599996879697 1203
16.9799996875226 1266
16.9999996870756 1294
17.0199996866286 1299
17.0399996861815 1389
17.0599996857345 1382
17.0799996852875 1344
17.0999996848404 1164
17.1199996843934 1139
17.1399996839464 1100
17.1599996834993 1043
17.1799996830523 1060
17.1999996826053 992
17.2199996821582 1013
17.2399996817112 985
17.2599996812642 1008
17.2799996808171 1011
17.2999996803701 996
17.3199996799231 1018
17.339999679476 1033
17.359999679029 984
17.379999678582 975
17.3999996781349 991
17.4199996776879 1033
17.4399996772408 996
17.4599996767938 1004
17.4799996763468 1044
17.4999996758997 965
17.5199996754527 1014
17.5399996750057 1020
17.5599996745586 992
17.5799996741116 1024
17.5999996736646 1016
17.6199996732175 1042
17.6399996727705 1060
17.6599996723235 1041
17.6799996718764 1011
17.6999996714294 1061
17.7199996709824 1049
17.7399996705353 976
17.7599996700883 1070
17.7799996696413 1058
17.7999996691942 1042
17.8199996687472 1083
17.8399996683002 1046
17.8599996678531 1046
17.8799996674061 1057
17.899999666959 1112
17.919999666512 1132
17.939999666065 1066
17.9599996656179 1038
17.9799996651709 1098
17.9999996647239 1091
18.0199996642768 1082
18.0399996638298 1079
18.0599996633828 1099
18.0799996629357 1111
18.0999996624887 1109
18.1199996620417 1148
18.1399996615946 1174
18.1599996611476 1136
18.1799996607006 1209
18.1999996602535 1200
18.2199996598065 1118
18.2399996593595 1090
18.2599996589124 1175
18.2799996584654 1136
18.2999996580184 1144
18.3199996575713 1165
18.3399996571243 1132
18.3599996566772 1156
18.3799996562302 1129
18.3999996557832 1206
18.4199996553361 1176
18.4399996548891 1137
18.4599996544421 1165
18.479999653995 1154
18.499999653548 1179
18.519999653101 1164
18.5399996526539 1208
18.5599996522069 1189
18.5799996517599 1219
18.5999996513128 1188
18.6199996508658 1189
18.6399996504188 1197
18.6599996499717 1219
18.6799996495247 1243
18.6999996490777 1271
18.7199996486306 1201
18.7399996481836 1195
18.7599996477366 1127
18.7799996472895 1156
18.7999996468425 1258
18.8199996463954 1203
18.8399996459484 1255
18.8599996455014 1186
18.8799996450543 1204
18.8999996446073 1227
18.9199996441603 1246
18.9399996437132 1270
18.9599996432662 1274
18.9799996428192 1240
18.9999996423721 1274
19.0199996419251 1237
19.0399996414781 1289
19.059999641031 1292
19.079999640584 1275
19.099999640137 1257
19.1199996396899 1275
19.1399996392429 1263
19.1599996387959 1287
19.1799996383488 1310
19.1999996379018 1312
19.2199996374547 1264
19.2399996370077 1351
19.2599996365607 1360
19.2799996361136 1326
19.2999996356666 1322
19.3199996352196 1289
19.3399996347725 1320
19.3599996343255 1334
19.3799996338785 1361
19.3999996334314 1340
19.4199996329844 1332
19.4399996325374 1369
19.4599996320903 1320
19.4799996316433 1328
19.4999996311963 1314
19.5199996307492 1340
19.5399996303022 1428
19.5599996298552 1319
19.5799996294081 1343
19.5999996289611 1345
19.6199996285141 1375
19.639999628067 1366
19.65999962762 1371
19.6799996271729 1451
19.6999996267259 1368
19.7199996262789 1401
19.7399996258318 1371
19.7599996253848 1412
19.7799996249378 1353
19.7999996244907 1346
19.8199996240437 1421
19.8399996235967 1469
19.8599996231496 1445
19.8799996227026 1415
19.8999996222556 1427
19.9199996218085 1434
19.9399996213615 1417
19.9599996209145 1407
19.9799996204674 1414
19.9999996200204 1425
