3 2174
3.01999999955297 1949
3.03999999910593 1833
3.0599999986589 1733
3.07999999821186 1644
3.09999999776483 1598
3.11999999731779 1517
3.13999999687076 1532
3.15999999642372 1450
3.17999999597669 1447
3.19999999552965 1463
3.21999999508262 1394
3.23999999463558 1378
3.25999999418855 1406
3.27999999374151 1362
3.29999999329448 1373
3.31999999284744 1325
3.33999999240041 1360
3.35999999195337 1334
3.37999999150634 1361
3.3999999910593 1384
3.41999999061227 1320
3.43999999016523 1386
3.4599999897182 1354
3.47999998927116 1313
3.49999998882413 1334
3.51999998837709 1302
3.53999998793006 1258
3.55999998748302 1248
3.57999998703599 1229
3.59999998658895 1287
3.61999998614192 1215
3.63999998569489 1258
3.65999998524785 1239
3.67999998480082 1261
3.69999998435378 1255
3.71999998390675 1186
3.73999998345971 1271
3.75999998301268 1212
3.77999998256564 1221
3.79999998211861 1305
3.81999998167157 1227
3.83999998122454 1259
3.8599999807775 1244
3.87999998033047 1266
3.89999997988343 1243
3.9199999794364 1272
3.93999997898936 1313
3.95999997854233 1296
3.97999997809529 1333
3.99999997764826 1356
4.01999997720122 1407
4.03999997675419 1383
4.05999997630715 1389
4.07999997586012 1404
4.09999997541308 1460
4.11999997496605 1422
4.13999997451901 1419
4.15999997407198 1370
4.17999997362494 1275
4.19999997317791 1219
4.21999997273087 1208
4.23999997228384 1125
4.25999997183681 1129
4.27999997138977 1011
4.29999997094274 1013
4.3199999704957 1003
4.33999997004867 975
4.35999996960163 1042
4.3799999691546 985
4.39999996870756 1039
4.41999996826053 963
4.43999996781349 946
4.45999996736646 993
4.47999996691942 933
4.49999996647239 977
4.51999996602535 924
4.53999996557832 935
4.55999996513128 900
4.57999996468425 956
4.59999996423721 932
4.61999996379018 970
4.63999996334314 940
4.65999996289611 957
4.67999996244907 941
4.69999996200204 878
4.719999961555 1006
4.73999996110797 894
4.75999996066093 1004
4.7799999602139 1049
4.79999995976686 993
4.81999995931983 967
4.83999995887279 1014
4.85999995842576 1016
4.87999995797873 996
4.89999995753169 1070
4.91999995708466 1074
4.93999995663762 1091
4.95999995619059 1151
4.97999995574355 1110
4.99999995529652 1164
5.01999995484948 1208
5.03999995440245 1189
5.05999995395541 1276
5.07999995350838 1308
5.09999995306134 1338
5.11999995261431 1295
5.13999995216727 1403
5.15999995172024 1435
5.1799999512732 1506
5.19999995082617 1622
5.21999995037913 1683
5.2399999499321 1794
5.25999994948506 1811
5.27999994903803 1994
5.29999994859099 2031
5.31999994814396 2210
5.33999994769692 2357
5.35999994724989 2452
5.37999994680285 2852
5.39999994635582 3167
5.41999994590878 3401
5.43999994546175 3501
5.45999994501471 3359
5.47999994456768 3028
5.49999994412065 2910
5.51999994367361 2694
5.53999994322658 2584
5.55999994277954 2640
5.57999994233251 2683
5.59999994188547 2796
5.61999994143844 2855
5.6399999409914 2975
5.65999994054437 3200
5.67999994009733 3331
5.6999999396503 3666
5.71999993920326 4051
5.73999993875623 4567
5.75999993830919 4818
5.77999993786216 5187
5.79999993741512 5006
5.81999993696809 4581
5.83999993652105 3838
5.85999993607402 3114
5.87999993562698 2411
5.89999993517995 1997
5.91999993473291 1667
5.93999993428588 1395
5.95999993383884 1293
5.97999993339181 1111
5.99999993294477 1069
6.01999993249774 957
6.0399999320507 1007
6.05999993160367 941
6.07999993115663 933
6.0999999307096 886
6.11999993026257 880
6.13999992981553 907
6.1599999293685 974
6.17999992892146 941
6.19999992847443 913
6.21999992802739 906
6.23999992758036 929
6.25999992713332 896
6.27999992668629 893
6.29999992623925 857
6.31999992579222 807
6.33999992534518 830
6.35999992489815 810
6.37999992445111 811
6.39999992400408 786
6.41999992355704 801
6.43999992311001 745
6.45999992266297 824
6.47999992221594 782
6.4999999217689 748
6.51999992132187 859
6.53999992087483 811
6.5599999204278 856
6.57999991998076 862
6.59999991953373 907
6.61999991908669 857
6.63999991863966 912
6.65999991819262 903
6.67999991774559 950
6.69999991729855 950
6.71999991685152 1028
6.73999991640449 1064
6.75999991595745 1073
6.77999991551042 1085
6.79999991506338 993
6.81999991461635 1041
6.83999991416931 905
6.85999991372228 841
6.87999991327524 800
6.89999991282821 808
6.91999991238117 817
6.93999991193414 748
6.9599999114871 743
6.97999991104007 725
6.99999991059303 645
7.019999910146 711
7.03999990969896 701
7.05999990925193 704
7.07999990880489 695
7.09999990835786 688
7.11999990791082 643
7.13999990746379 671
7.15999990701675 704
7.17999990656972 614
7.19999990612268 665
7.21999990567565 659
7.23999990522861 664
7.25999990478158 686
7.27999990433454 671
7.29999990388751 697
7.31999990344047 643
7.33999990299344 616
7.35999990254641 648
7.37999990209937 658
7.39999990165234 657
7.4199999012053 653
7.43999990075827 666
7.45999990031123 627
7.4799998998642 650
7.49999989941716 628
7.51999989897013 651
7.53999989852309 616
7.55999989807606 681
7.57999989762902 645
7.59999989718199 637
7.61999989673495 694
7.63999989628792 674
7.65999989584088 635
7.67999989539385 643
7.69999989494681 658
7.71999989449978 664
7.73999989405274 650
7.75999989360571 667
7.77999989315867 651
7.79999989271164 606
7.8199998922646 657
7.83999989181757 678
7.85999989137053 684
7.8799998909235 681
7.89999989047646 702
7.91999989002943 711
7.9399998895824 677
7.95999988913536 680
7.97999988868833 648
7.99999988824129 666
8.01999988779426 701
8.03999988734722 737
8.05999988690019 719
8.07999988645315 718
8.09999988600612 724
8.11999988555908 706
8.13999988511205 728
8.15999988466501 727
8.17999988421798 712
8.19999988377094 688
8.21999988332391 734
8.23999988287687 724
8.25999988242984 664
8.2799998819828 672
8.29999988153577 658
8.31999988108873 693
8.3399998806417 715
8.35999988019466 688
8.37999987974763 649
8.39999987930059 644
8.41999987885356 686
8.43999987840652 674
8.45999987795949 714
8.47999987751245 693
8.49999987706542 685
8.51999987661839 652
8.53999987617135 677
8.55999987572432 678
8.57999987527728 721
8.59999987483025 667
8.61999987438321 650
8.63999987393618 652
8.65999987348914 636
8.67999987304211 645
8.69999987259507 669
8.71999987214804 728
8.739999871701 649
8.75999987125397 732
8.77999987080693 713
8.7999998703599 678
8.81999986991286 731
8.83999986946583 744
8.85999986901879 716
8.87999986857176 724
8.89999986812472 734
8.91999986767769 740
8.93999986723065 753
8.95999986678362 724
8.97999986633658 772
8.99999986588955 783
9.01999986544251 769
9.03999986499548 809
9.05999986454844 822
9.07999986410141 788
9.09999986365438 897
9.11999986320734 974
9.13999986276031 997
9.15999986231327 957
9.17999986186624 1026
9.1999998614192 1121
9.21999986097217 1157
9.23999986052513 1294
9.2599998600781 1387
9.27999985963106 1545
9.29999985918403 1736
9.31999985873699 1917
9.33999985828996 2109
9.35999985784292 2230
9.37999985739589 1916
9.39999985694885 1598
9.41999985650182 1324
9.43999985605478 1021
9.45999985560775 925
9.47999985516071 860
9.49999985471368 819
9.51999985426664 795
9.53999985381961 819
9.55999985337257 736
9.57999985292554 751
9.5999998524785 709
9.61999985203147 749
9.63999985158443 716
9.6599998511374 765
9.67999985069037 781
9.69999985024333 755
9.7199998497963 705
9.73999984934926 729
9.75999984890223 728
9.77999984845519 772
9.79999984800816 746
9.81999984756112 783
9.83999984711409 749
9.85999984666705 758
9.87999984622002 795
9.89999984577298 788
9.91999984532595 705
9.93999984487891 745
9.95999984443188 766
9.97999984398484 784
9.99999984353781 817
10.0199998430908 829
10.0399998426437 807
10.0599998421967 845
10.0799998417497 893
10.0999998413026 932
10.1199998408556 930
10.1399998404086 994
10.1599998399615 1060
10.1799998395145 1097
10.1999998390675 1123
10.2199998386204 1116
10.2399998381734 1001
10.2599998377264 951
10.2799998372793 857
10.2999998368323 820
10.3199998363853 761
10.3399998359382 735
10.3599998354912 732
10.3799998350441 798
10.3999998345971 755
10.4199998341501 689
10.439999833703 746
10.459999833256 756
10.479999832809 733
10.4999998323619 718
10.5199998319149 719
10.5399998314679 780
10.5599998310208 752
10.5799998305738 791
10.5999998301268 803
10.6199998296797 865
10.6399998292327 916
10.6599998287857 860
10.6799998283386 904
10.6999998278916 989
10.7199998274446 1040
10.7399998269975 1021
10.7599998265505 1156
10.7799998261034 1211
10.7999998256564 1291
10.8199998252094 1308
10.8399998247623 1185
10.8599998243153 1237
10.8799998238683 1246
10.8999998234212 1295
10.9199998229742 1360
10.9399998225272 1399
10.9599998220801 1529
10.9799998216331 1681
10.9999998211861 1544
11.019999820739 1327
11.039999820292 1126
11.059999819845 933
11.0799998193979 923
11.0999998189509 825
11.1199998185039 791
11.1399998180568 807
11.1599998176098 780
11.1799998171628 826
11.1999998167157 756
11.2199998162687 728
11.2399998158216 735
11.2599998153746 745
11.2799998149276 763
11.2999998144805 776
11.3199998140335 814
11.3399998135865 813
11.3599998131394 858
11.3799998126924 857
11.3999998122454 859
11.4199998117983 866
11.4399998113513 930
11.4599998109043 983
11.4799998104572 1032
11.4999998100102 1075
11.5199998095632 1106
11.5399998091161 993
11.5599998086691 1044
11.5799998082221 935
11.599999807775 900
11.619999807328 858
11.639999806881 838
11.6599998064339 782
11.6799998059869 812
11.6999998055398 811
11.7199998050928 756
11.7399998046458 812
11.7599998041987 722
11.7799998037517 736
11.7999998033047 761
11.8199998028576 777
11.8399998024106 773
11.8599998019636 726
11.8799998015165 763
11.8999998010695 749
11.9199998006225 721
11.9399998001754 710
11.9599997997284 805
11.9799997992814 781
11.9999997988343 769
12.0199997983873 746
12.0399997979403 820
12.0599997974932 790
12.0799997970462 786
12.0999997965992 821
12.1199997961521 810
12.1399997957051 846
12.159999795258 829
12.179999794811 882
12.199999794364 852
12.2199997939169 932
12.2399997934699 926
12.2599997930229 861
12.2799997925758 898
12.2999997921288 878
12.3199997916818 882
12.3399997912347 782
12.3599997907877 816
12.3799997903407 818
12.3999997898936 837
12.4199997894466 796
12.4399997889996 853
12.4599997885525 777
12.4799997881055 710
12.4999997876585 738
12.5199997872114 757
12.5399997867644 734
12.5599997863173 772
12.5799997858703 779
12.5999997854233 802
12.6199997849762 769
12.6399997845292 736
12.6599997840822 711
12.6799997836351 756
12.6999997831881 803
12.7199997827411 792
12.739999782294 777
12.759999781847 754
12.7799997814 737
12.7999997809529 764
12.8199997805059 766
12.8399997800589 758
12.8599997796118 770
12.8799997791648 735
12.8999997787178 717
12.9199997782707 844
12.9399997778237 794
12.9599997773767 797
12.9799997769296 777
12.9999997764826 807
13.0199997760355 781
13.0399997755885 801
13.0599997751415 790
13.0799997746944 786
13.0999997742474 759
13.1199997738004 763
13.1399997733533 837
13.1599997729063 825
13.1799997724593 786
13.1999997720122 783
13.2199997715652 789
13.2399997711182 858
13.2599997706711 815
13.2799997702241 844
13.2999997697771 867
13.31999976933 860
13.339999768883 883
13.359999768436 886
13.3799997679889 896
13.3999997675419 836
13.4199997670949 828
13.4399997666478 857
13.4599997662008 867
13.4799997657537 862
13.4999997653067 827
13.5199997648597 817
13.5399997644126 831
13.5599997639656 876
13.5799997635186 834
13.5999997630715 840
13.6199997626245 848
13.6399997621775 796
13.6599997617304 795
13.6799997612834 837
13.6999997608364 761
13.7199997603893 784
13.7399997599423 805
13.7599997594953 793
13.7799997590482 834
13.7999997586012 817
13.8199997581542 829
13.8399997577071 827
13.8599997572601 833
13.879999756813 796
13.899999756366 886
13.919999755919 825
13.9399997554719 847
13.9599997550249 830
13.9799997545779 834
13.9999997541308 868
14.0199997536838 773
14.0399997532368 842
14.0599997527897 838
14.0799997523427 860
14.0999997518957 821
14.1199997514486 836
14.1399997510016 860
14.1599997505546 878
14.1799997501075 891
14.1999997496605 884
14.2199997492135 897
14.2399997487664 891
14.2599997483194 909
14.2799997478724 927
14.2999997474253 952
14.3199997469783 926
14.3399997465312 869
14.3599997460842 942
14.3799997456372 951
14.3999997451901 971
14.4199997447431 1005
14.4399997442961 897
14.459999743849 891
14.479999743402 936
14.499999742955 916
14.5199997425079 884
14.5399997420609 917
14.5599997416139 877
14.5799997411668 884
14.5999997407198 903
14.6199997402728 952
14.6399997398257 889
14.6599997393787 913
14.6799997389317 922
14.6999997384846 939
14.7199997380376 945
14.7399997375906 1003
14.7599997371435 968
14.7799997366965 939
14.7999997362494 1001
14.8199997358024 1025
14.8399997353554 1013
14.8599997349083 1003
14.8799997344613 999
14.8999997340143 997
14.9199997335672 969
14.9399997331202 957
14.9599997326732 948
14.9799997322261 925
14.9999997317791 960
15.0199997313321 972
15.039999730885 941
15.059999730438 936
15.079999729991 930
15.0999997295439 954
15.1199997290969 1000
15.1399997286499 962
15.1599997282028 978
15.1799997277558 1006
15.1999997273088 1000
15.2199997268617 965
15.2399997264147 1003
15.2599997259676 958
15.2799997255206 975
15.2999997250736 976
15.3199997246265 966
15.3399997241795 926
15.3599997237325 994
15.3799997232854 975
15.3999997228384 994
15.4199997223914 975
15.4399997219443 937
15.4599997214973 902
15.4799997210503 1018
15.4999997206032 984
15.5199997201562 947
15.5399997197092 934
15.5599997192621 920
15.5799997188151 941
15.5999997183681 996
15.619999717921 944
15.639999717474 965
15.659999717027 944
15.6799997165799 1013
15.6999997161329 980
15.7199997156858 1050
15.7399997152388 998
15.7599997147918 989
15.7799997143447 919
15.7999997138977 937
15.8199997134507 1022
15.8399997130036 1010
15.8599997125566 1015
15.8799997121096 969
15.8999997116625 1011
15.9199997112155 1061
15.9399997107685 1016
15.9599997103214 984
15.9799997098744 1019
15.9999997094274 1004
16.0199997089803 1088
16.0399997085333 1061
16.0599997080863 1067
16.0799997076392 1000
16.0999997071922 1067
16.1199997067451 1060
16.1399997062981 1056
16.1599997058511 1077
16.179999705404 1105
16.199999704957 1103
16.21999970451 1137
16.2399997040629 1160
16.2599997036159 1100
16.2799997031689 1129
16.2999997027218 1148
16.3199997022748 1184
16.3399997018278 1150
16.3599997013807 1129
16.3799997009337 1170
16.3999997004867 1110
16.4199997000396 1123
16.4399996995926 1134
16.4599996991456 1181
16.4799996986985 1112
16.4999996982515 1068
16.5199996978045 1109
16.5399996973574 1151
16.5599996969104 1119
16.5799996964633 1160
16.5999996960163 1175
16.6199996955693 1136
16.6399996951222 1124
16.6599996946752 1208
16.6799996942282 1129
16.6999996937811 1166
16.7199996933341 1177
16.7399996928871 1115
16.75999969244 1147
16.779999691993 1156
16.799999691546 1142
16.8199996910989 1177
16.8399996906519 1301
16.8599996902049 1249
16.8799996897578 1430
16.8999996893108 1375
16.9199996888638 1463
16.9399996884167 1600
16.9599996879697 1738
16.9799996875226 1978
16.9999996870756 2278
17.0199996866286 2340
17.0399996861815 2252
17.0599996857345 1910
17.0799996852875 1714
17.0999996848404 1414
17.1199996843934 1298
17.1399996839464 1204
17.1599996834993 1192
17.1799996830523 1243
17.1999996826053 1264
17.2199996821582 1226
17.2399996817112 1265
17.2599996812642 1263
17.2799996808171 1253
17.2999996803701 1268
17.3199996799231 1268
17.339999679476 1252
17.359999679029 1301
17.379999678582 1297
17.3999996781349 1234
17.4199996776879 1267
17.4399996772408 1272
17.4599996767938 1255
17.4799996763468 1199
17.4999996758997 1270
17.5199996754527 1252
17.5399996750057 1340
17.5599996745586 1293
17.5799996741116 1267
17.5999996736646 1286
17.6199996732175 1252
17.6399996727705 1279
17.6599996723235 1336
17.6799996718764 1294
17.6999996714294 1293
17.7199996709824 1324
17.7399996705353 1333
17.7599996700883 1311
17.7799996696413 1323
17.7999996691942 1377
17.8199996687472 1301
17.8399996683002 1313
17.8599996678531 1282
17.8799996674061 1390
17.899999666959 1428
17.919999666512 1341
17.939999666065 1400
17.9599996656179 1315
17.9799996651709 1355
17.9999996647239 1376
18.0199996642768 1296
18.0399996638298 1336
18.0599996633828 1364
18.0799996629357 1340
18.0999996624887 1354
18.1199996620417 1331
18.1399996615946 1397
18.1599996611476 1315
18.1799996607006 1327
18.1999996602535 1357
18.2199996598065 1374
18.2399996593595 1338
18.2599996589124 1338
18.2799996584654 1364
18.2999996580184 1359
18.3199996575713 1383
18.3399996571243 1346
18.3599996566772 1371
18.3799996562302 1366
18.3999996557832 1370
18.4199996553361 1376
18.4399996548891 1375
18.4599996544421 1426
18.479999653995 1447
18.499999653548 1363
18.519999653101 1418
18.5399996526539 1363
18.5599996522069 1374
18.5799996517599 1424
18.5999996513128 1438
18.6199996508658 1577
18.6399996504188 1478
18.6599996499717 1502
18.6799996495247 1544
18.6999996490777 1577
18.7199996486306 1547
18.7399996481836 1545
18.7599996477366 1533
18.7799996472895 1561
18.7999996468425 1557
18.8199996463954 1588
18.8399996459484 1556
18.8599996455014 1566
18.8799996450543 1520
18.8999996446073 1545
18.9199996441603 1571
18.9399996437132 1542
18.9599996432662 1470
18.9799996428192 1619
18.9999996423721 1543
19.0199996419251 1589
19.0399996414781 1565
19.059999641031 1645
19.079999640584 1663
19.099999640137 1762
19.1199996396899 1797
19.1399996392429 1754
19.1599996387959 1765
19.1799996383488 1695
19.1999996379018 1738
19.2199996374547 1691
19.2399996370077 1720
19.2599996365607 1689
19.2799996361136 1578
19.2999996356666 1609
19.3199996352196 1555
19.3399996347725 1615
19.3599996343255 1607
19.3799996338785 1676
19.3999996334314 1679
19.4199996329844 1735
19.4399996325374 1798
19.4599996320903 1808
19.4799996316433 1933
19.4999996311963 1854
19.5199996307492 1935
19.5399996303022 1903
19.5599996298552 1944
19.5799996294081 1899
19.5999996289611 1932
19.6199996285141 1837
19.639999628067 1697
19.65999962762 1711
19.6799996271729 1693
19.6999996267259 1589
19.7199996262789 1592
19.7399996258318 1568
19.7599996253848 1610
19.7799996249378 1663
19.7999996244907 1603
19.8199996240437 1652
19.8399996235967 1673
19.8599996231496 1706
19.8799996227026 1737
19.8999996222556 1733
19.9199996218085 1644
19.9399996213615 1729
19.9599996209145 1691
19.9799996204674 1663
19.9999996200204 1649
