3 2237
3.01999999955297 2063
3.03999999910593 1878
3.0599999986589 1852
3.07999999821186 1631
3.09999999776483 1643
3.11999999731779 1562
3.13999999687076 1567
3.15999999642372 1488
3.17999999597669 1481
3.19999999552965 1527
3.21999999508262 1474
3.23999999463558 1529
3.25999999418855 1461
3.27999999374151 1419
3.29999999329448 1448
3.31999999284744 1346
3.33999999240041 1335
3.35999999195337 1361
3.37999999150634 1327
3.3999999910593 1388
3.41999999061227 1324
3.43999999016523 1352
3.4599999897182 1348
3.47999998927116 1335
3.49999998882413 1308
3.51999998837709 1260
3.53999998793006 1263
3.55999998748302 1205
3.57999998703599 1209
3.59999998658895 1249
3.61999998614192 1235
3.63999998569489 1221
3.65999998524785 1198
3.67999998480082 1184
3.69999998435378 1190
3.71999998390675 1208
3.73999998345971 1246
3.75999998301268 1174
3.77999998256564 1126
3.79999998211861 1144
3.81999998167157 1211
3.83999998122454 1174
3.8599999807775 1149
3.87999998033047 1093
3.89999997988343 1060
3.9199999794364 1096
3.93999997898936 1077
3.95999997854233 1060
3.97999997809529 1134
3.99999997764826 1115
4.01999997720122 1105
4.03999997675419 1065
4.05999997630715 1141
4.07999997586012 1133
4.09999997541308 1100
4.11999997496605 1096
4.13999997451901 1120
4.15999997407198 1081
4.17999997362494 1054
4.19999997317791 1018
4.21999997273087 1050
4.23999997228384 1127
4.25999997183681 1070
4.27999997138977 1060
4.29999997094274 1020
4.3199999704957 1078
4.33999997004867 1032
4.35999996960163 1023
4.3799999691546 1075
4.39999996870756 1012
4.41999996826053 1077
4.43999996781349 1026
4.45999996736646 1111
4.47999996691942 1051
4.49999996647239 1044
4.51999996602535 1070
4.53999996557832 1064
4.55999996513128 1057
4.57999996468425 1051
4.59999996423721 1114
4.61999996379018 1023
4.63999996334314 1050
4.65999996289611 1088
4.67999996244907 1055
4.69999996200204 1109
4.719999961555 1063
4.73999996110797 1122
4.75999996066093 1116
4.7799999602139 1075
4.79999995976686 1126
4.81999995931983 1152
4.83999995887279 1167
4.85999995842576 1144
4.87999995797873 1197
4.89999995753169 1226
4.91999995708466 1226
4.93999995663762 1211
4.95999995619059 1253
4.97999995574355 1326
4.99999995529652 1336
5.01999995484948 1339
5.03999995440245 1393
5.05999995395541 1329
5.07999995350838 1481
5.09999995306134 1443
5.11999995261431 1535
5.13999995216727 1544
5.15999995172024 1684
5.1799999512732 1747
5.19999995082617 1880
5.21999995037913 1872
5.2399999499321 1956
5.25999994948506 2135
5.27999994903803 2204
5.29999994859099 2283
5.31999994814396 2589
5.33999994769692 2846
5.35999994724989 3217
5.37999994680285 3641
5.39999994635582 4073
5.41999994590878 3946
5.43999994546175 3334
5.45999994501471 2675
5.47999994456768 2395
5.49999994412065 2217
5.51999994367361 2141
5.53999994322658 2050
5.55999994277954 1978
5.57999994233251 1948
5.59999994188547 1947
5.61999994143844 1956
5.6399999409914 1837
5.65999994054437 1884
5.67999994009733 1888
5.6999999396503 1837
5.71999993920326 1825
5.73999993875623 1643
5.75999993830919 1564
5.77999993786216 1461
5.79999993741512 1406
5.81999993696809 1307
5.83999993652105 1194
5.85999993607402 1151
5.87999993562698 1060
5.89999993517995 1056
5.91999993473291 1012
5.93999993428588 940
5.95999993383884 920
5.97999993339181 912
5.99999993294477 918
6.01999993249774 887
6.0399999320507 828
6.05999993160367 903
6.07999993115663 841
6.0999999307096 860
6.11999993026257 836
6.13999992981553 789
6.1599999293685 781
6.17999992892146 771
6.19999992847443 772
6.21999992802739 806
6.23999992758036 715
6.25999992713332 760
6.27999992668629 754
6.29999992623925 770
6.31999992579222 778
6.33999992534518 785
6.35999992489815 799
6.37999992445111 746
6.39999992400408 780
6.41999992355704 793
6.43999992311001 788
6.45999992266297 827
6.47999992221594 721
6.4999999217689 747
6.51999992132187 752
6.53999992087483 814
6.5599999204278 779
6.57999991998076 797
6.59999991953373 818
6.61999991908669 787
6.63999991863966 773
6.65999991819262 793
6.67999991774559 823
6.69999991729855 825
6.71999991685152 784
6.73999991640449 751
6.75999991595745 753
6.77999991551042 744
6.79999991506338 749
6.81999991461635 744
6.83999991416931 760
6.85999991372228 722
6.87999991327524 734
6.89999991282821 743
6.91999991238117 732
6.93999991193414 673
6.9599999114871 633
6.97999991104007 731
6.99999991059303 721
7.019999910146 675
7.03999990969896 656
7.05999990925193 658
7.07999990880489 666
7.09999990835786 668
7.11999990791082 659
7.13999990746379 651
7.15999990701675 672
7.17999990656972 675
7.19999990612268 714
7.21999990567565 663
7.23999990522861 662
7.25999990478158 637
7.27999990433454 647
7.29999990388751 701
7.31999990344047 613
7.33999990299344 664
7.35999990254641 687
7.37999990209937 665
7.39999990165234 631
7.4199999012053 655
7.43999990075827 654
7.45999990031123 634
7.4799998998642 663
7.49999989941716 605
7.51999989897013 676
7.53999989852309 641
7.55999989807606 657
7.57999989762902 669
7.59999989718199 692
7.61999989673495 664
7.63999989628792 631
7.65999989584088 671
7.67999989539385 700
7.69999989494681 645
7.71999989449978 634
7.73999989405274 686
7.75999989360571 664
7.77999989315867 680
7.79999989271164 712
7.8199998922646 659
7.83999989181757 649
7.85999989137053 689
7.8799998909235 701
7.89999989047646 674
7.91999989002943 646
7.9399998895824 661
7.95999988913536 688
7.97999988868833 698
7.99999988824129 694
8.01999988779426 609
8.03999988734722 687
8.05999988690019 645
8.07999988645315 670
8.09999988600612 700
8.11999988555908 698
8.13999988511205 678
8.15999988466501 631
8.17999988421798 636
8.19999988377094 633
8.21999988332391 641
8.23999988287687 638
8.25999988242984 638
8.2799998819828 651
8.29999988153577 635
8.31999988108873 650
8.3399998806417 662
8.35999988019466 661
8.37999987974763 646
8.39999987930059 628
8.41999987885356 646
8.43999987840652 706
8.45999987795949 680
8.47999987751245 644
8.49999987706542 629
8.51999987661839 682
8.53999987617135 673
8.55999987572432 630
8.57999987527728 658
8.59999987483025 634
8.61999987438321 659
8.63999987393618 649
8.65999987348914 655
8.67999987304211 672
8.69999987259507 681
8.71999987214804 661
8.739999871701 644
8.75999987125397 639
8.77999987080693 732
8.7999998703599 668
8.81999986991286 661
8.83999986946583 669
8.85999986901879 690
8.87999986857176 687
8.89999986812472 677
8.91999986767769 713
8.93999986723065 708
8.95999986678362 737
8.97999986633658 701
8.99999986588955 762
9.01999986544251 744
9.03999986499548 794
9.05999986454844 786
9.07999986410141 791
9.09999986365438 874
9.11999986320734 919
9.13999986276031 897
9.15999986231327 983
9.17999986186624 894
9.1999998614192 1000
9.21999986097217 1090
9.23999986052513 1203
9.2599998600781 1345
9.27999985963106 1515
9.29999985918403 1602
9.31999985873699 1715
9.33999985828996 1553
9.35999985784292 1276
9.37999985739589 973
9.39999985694885 851
9.41999985650182 755
9.43999985605478 747
9.45999985560775 705
9.47999985516071 734
9.49999985471368 736
9.51999985426664 717
9.53999985381961 711
9.55999985337257 700
9.57999985292554 684
9.5999998524785 707
9.61999985203147 692
9.63999985158443 683
9.6599998511374 697
9.67999985069037 666
9.69999985024333 653
9.7199998497963 724
9.73999984934926 691
9.75999984890223 668
9.77999984845519 705
9.79999984800816 670
9.81999984756112 703
9.83999984711409 675
9.85999984666705 666
9.87999984622002 650
9.89999984577298 746
9.91999984532595 675
9.93999984487891 691
9.95999984443188 689
9.97999984398484 666
9.99999984353781 714
10.0199998430908 616
10.0399998426437 663
10.0599998421967 698
10.0799998417497 700
10.0999998413026 714
10.1199998408556 719
10.1399998404086 711
10.1599998399615 714
10.1799998395145 743
10.1999998390675 737
10.2199998386204 669
10.2399998381734 656
10.2599998377264 679
10.2799998372793 677
10.2999998368323 728
10.3199998363853 635
10.3399998359382 735
10.3599998354912 682
10.3799998350441 683
10.3999998345971 687
10.4199998341501 680
10.439999833703 704
10.459999833256 713
10.479999832809 690
10.4999998323619 709
10.5199998319149 739
10.5399998314679 677
10.5599998310208 754
10.5799998305738 776
10.5999998301268 787
10.6199998296797 787
10.6399998292327 831
10.6599998287857 877
10.6799998283386 896
10.6999998278916 1028
10.7199998274446 1099
10.7399998269975 1116
10.7599998265505 1173
10.7799998261034 1098
10.7999998256564 1064
10.8199998252094 985
10.8399998247623 967
10.8599998243153 902
10.8799998238683 893
10.8999998234212 878
10.9199998229742 916
10.9399998225272 909
10.9599998220801 863
10.9799998216331 834
10.9999998211861 769
11.019999820739 769
11.039999820292 705
11.059999819845 670
11.0799998193979 666
11.0999998189509 681
11.1199998185039 638
11.1399998180568 706
11.1599998176098 675
11.1799998171628 656
11.1999998167157 670
11.2199998162687 692
11.2399998158216 670
11.2599998153746 697
11.2799998149276 648
11.2999998144805 682
11.3199998140335 661
11.3399998135865 674
11.3599998131394 674
11.3799998126924 655
11.3999998122454 678
11.4199998117983 667
11.4399998113513 716
11.4599998109043 687
11.4799998104572 698
11.4999998100102 737
11.5199998095632 682
11.5399998091161 679
11.5599998086691 691
11.5799998082221 689
11.599999807775 658
11.619999807328 725
11.639999806881 651
11.6599998064339 676
11.6799998059869 661
11.6999998055398 612
11.7199998050928 683
11.7399998046458 639
11.7599998041987 650
11.7799998037517 670
11.7999998033047 661
11.8199998028576 675
11.8399998024106 682
11.8599998019636 677
11.8799998015165 655
11.8999998010695 654
11.9199998006225 693
11.9399998001754 681
11.9599997997284 660
11.9799997992814 653
11.9999997988343 681
12.0199997983873 625
12.0399997979403 620
12.0599997974932 731
12.0799997970462 672
12.0999997965992 691
12.1199997961521 665
12.1399997957051 718
12.159999795258 721
12.179999794811 754
12.199999794364 680
12.2199997939169 705
12.2399997934699 750
12.2599997930229 729
12.2799997925758 724
12.2999997921288 679
12.3199997916818 699
12.3399997912347 709
12.3599997907877 655
12.3799997903407 671
12.3999997898936 694
12.4199997894466 692
12.4399997889996 677
12.4599997885525 643
12.4799997881055 660
12.4999997876585 684
12.5199997872114 673
12.5399997867644 666
12.5599997863173 681
12.5799997858703 687
12.5999997854233 631
12.6199997849762 698
12.6399997845292 638
12.6599997840822 640
12.6799997836351 624
12.6999997831881 655
12.7199997827411 673
12.739999782294 649
12.759999781847 647
12.7799997814 686
12.7999997809529 667
12.8199997805059 687
12.8399997800589 642
12.8599997796118 688
12.8799997791648 689
12.8999997787178 644
12.9199997782707 666
12.9399997778237 669
12.9599997773767 677
12.9799997769296 671
12.9999997764826 684
13.0199997760355 639
13.0399997755885 695
13.0599997751415 669
13.0799997746944 659
13.0999997742474 669
13.1199997738004 654
13.1399997733533 658
13.1599997729063 699
13.1799997724593 666
13.1999997720122 692
13.2199997715652 621
13.2399997711182 692
13.2599997706711 681
13.2799997702241 744
13.2999997697771 685
13.31999976933 666
13.339999768883 657
13.359999768436 623
13.3799997679889 693
13.3999997675419 709
13.4199997670949 676
13.4399997666478 690
13.4599997662008 669
13.4799997657537 679
13.4999997653067 637
13.5199997648597 688
13.5399997644126 744
13.5599997639656 675
13.5799997635186 715
13.5999997630715 629
13.6199997626245 697
13.6399997621775 715
13.6599997617304 675
13.6799997612834 766
13.6999997608364 725
13.7199997603893 674
13.7399997599423 718
13.7599997594953 665
13.7799997590482 702
13.7999997586012 685
13.8199997581542 703
13.8399997577071 734
13.8599997572601 678
13.879999756813 699
13.899999756366 692
13.919999755919 666
13.9399997554719 637
13.9599997550249 654
13.9799997545779 708
13.9999997541308 681
14.0199997536838 755
14.0399997532368 717
14.0599997527897 687
14.0799997523427 726
14.0999997518957 679
14.1199997514486 661
14.1399997510016 727
14.1599997505546 710
14.1799997501075 735
14.1999997496605 746
14.2199997492135 754
14.2399997487664 770
14.2599997483194 719
14.2799997478724 774
14.2999997474253 751
14.3199997469783 761
14.3399997465312 756
14.3599997460842 726
14.3799997456372 717
14.3999997451901 745
14.4199997447431 753
14.4399997442961 727
14.459999743849 697
14.479999743402 736
14.499999742955 702
14.5199997425079 690
14.5399997420609 671
14.5599997416139 692
14.5799997411668 781
14.5999997407198 692
14.6199997402728 701
14.6399997398257 694
14.6599997393787 689
14.6799997389317 749
14.6999997384846 765
14.7199997380376 712
14.7399997375906 704
14.7599997371435 680
14.7799997366965 743
14.7999997362494 809
14.8199997358024 782
14.8399997353554 725
14.8599997349083 764
14.8799997344613 736
14.8999997340143 737
14.9199997335672 726
14.9399997331202 764
14.9599997326732 743
14.9799997322261 716
14.9999997317791 718
15.0199997313321 667
15.039999730885 747
15.059999730438 798
15.079999729991 760
15.0999997295439 755
15.1199997290969 759
15.1399997286499 773
15.1599997282028 719
15.1799997277558 700
15.1999997273088 774
15.2199997268617 771
15.2399997264147 773
15.2599997259676 749
15.2799997255206 757
15.2999997250736 749
15.3199997246265 742
15.3399997241795 764
15.3599997237325 755
15.3799997232854 750
15.3999997228384 741
15.4199997223914 744
15.4399997219443 751
15.4599997214973 785
15.4799997210503 755
15.4999997206032 792
15.5199997201562 773
15.5399997197092 778
15.5599997192621 781
15.5799997188151 777
15.5999997183681 815
15.619999717921 760
15.639999717474 798
15.659999717027 733
15.6799997165799 775
15.6999997161329 791
15.7199997156858 758
15.7399997152388 774
15.7599997147918 798
15.7799997143447 798
15.7999997138977 826
15.8199997134507 745
15.8399997130036 826
15.8599997125566 739
15.8799997121096 785
15.8999997116625 812
15.9199997112155 756
15.9399997107685 793
15.9599997103214 785
15.9799997098744 825
15.9999997094274 790
16.0199997089803 785
16.0399997085333 805
16.0599997080863 785
16.0799997076392 837
16.0999997071922 813
16.1199997067451 812
16.1399997062981 826
16.1599997058511 870
16.179999705404 808
16.199999704957 843
16.21999970451 848
16.2399997040629 853
16.2599997036159 877
16.2799997031689 858
16.2999997027218 856
16.3199997022748 833
16.3399997018278 869
16.3599997013807 844
16.3799997009337 893
16.3999997004867 825
16.4199997000396 836
16.4399996995926 881
16.4599996991456 858
16.4799996986985 831
16.4999996982515 847
16.5199996978045 799
16.5399996973574 885
16.5599996969104 850
16.5799996964633 864
16.5999996960163 859
16.6199996955693 861
16.6399996951222 816
16.6599996946752 911
16.6799996942282 910
16.6999996937811 892
16.7199996933341 878
16.7399996928871 870
16.75999969244 851
16.779999691993 900
16.799999691546 845
16.8199996910989 875
16.8399996906519 863
16.8599996902049 899
16.8799996897578 892
16.8999996893108 893
16.9199996888638 911
16.9399996884167 996
16.9599996879697 912
16.9799996875226 921
16.9999996870756 885
17.0199996866286 840
17.0399996861815 907
17.0599996857345 918
17.0799996852875 882
17.0999996848404 891
17.1199996843934 924
17.1399996839464 870
17.1599996834993 917
17.1799996830523 918
17.1999996826053 918
17.2199996821582 988
17.2399996817112 916
17.2599996812642 913
17.2799996808171 931
17.2999996803701 914
17.3199996799231 985
17.339999679476 941
17.359999679029 989
17.379999678582 942
17.3999996781349 947
17.4199996776879 984
17.4399996772408 1005
17.4599996767938 1002
17.4799996763468 1014
17.4999996758997 1038
17.5199996754527 971
17.5399996750057 995
17.5599996745586 981
17.5799996741116 963
17.5999996736646 1024
17.6199996732175 983
17.6399996727705 992
17.6599996723235 948
17.6799996718764 953
17.6999996714294 963
17.7199996709824 988
17.7399996705353 971
17.7599996700883 998
17.7799996696413 1029
17.7999996691942 1000
17.8199996687472 969
17.8399996683002 1004
17.8599996678531 1023
17.8799996674061 993
17.899999666959 1006
17.919999666512 1013
17.939999666065 1012
17.9599996656179 1065
17.9799996651709 1000
17.9999996647239 1038
18.0199996642768 991
18.0399996638298 1034
18.0599996633828 1036
18.0799996629357 984
18.0999996624887 991
18.1199996620417 1099
18.1399996615946 1052
18.1599996611476 1060
18.1799996607006 1035
18.1999996602535 1085
18.2199996598065 1038
18.2399996593595 1046
18.2599996589124 1040
18.2799996584654 1077
18.2999996580184 1097
18.3199996575713 1041
18.3399996571243 1090
18.3599996566772 1049
18.3799996562302 1071
18.3999996557832 1071
18.4199996553361 1031
18.4399996548891 1075
18.4599996544421 1106
18.479999653995 1087
18.499999653548 1107
18.519999653101 991
18.5399996526539 1103
18.5599996522069 1142
18.5799996517599 1055
18.5999996513128 1117
18.6199996508658 1159
18.6399996504188 1149
18.6599996499717 1076
18.6799996495247 1155
18.6999996490777 1131
18.7199996486306 1111
18.7399996481836 1111
18.7599996477366 1166
18.7799996472895 1155
18.7999996468425 1094
18.8199996463954 1181
18.8399996459484 1163
18.8599996455014 1130
18.8799996450543 1172
18.8999996446073 1173
18.9199996441603 1143
18.9399996437132 1145
18.9599996432662 1179
18.9799996428192 1091
18.9999996423721 1163
19.0199996419251 1163
19.0399996414781 1307
19.059999641031 1227
19.079999640584 1260
19.099999640137 1208
19.1199996396899 1210
19.1399996392429 1162
19.1599996387959 1168
19.1799996383488 1189
19.1999996379018 1157
19.2199996374547 1187
19.2399996370077 1210
19.2599996365607 1148
19.2799996361136 1178
19.2999996356666 1192
19.3199996352196 1254
19.3399996347725 1287
19.3599996343255 1364
19.3799996338785 1347
19.3999996334314 1404
19.4199996329844 1367
19.4399996325374 1363
19.4599996320903 1340
19.4799996316433 1333
19.4999996311963 1395
19.5199996307492 1304
19.5399996303022 1290
19.5599996298552 1310
19.5799996294081 1298
19.5999996289611 1279
19.6199996285141 1267
19.639999628067 1257
19.65999962762 1277
19.6799996271729 1240
19.6999996267259 1304
19.7199996262789 1272
19.7399996258318 1209
19.7599996253848 1258
19.7799996249378 1278
19.7999996244907 1201
19.8199996240437 1223
19.8399996235967 1221
19.8599996231496 1248
19.8799996227026 1216
19.8999996222556 1270
19.9199996218085 1233
19.9399996213615 1253
19.9599996209145 1277
19.9799996204674 1243
19.9999996200204 1224
