3 2213
3.01999999955297 2102
3.03999999910593 1936
3.0599999986589 1819
3.07999999821186 1734
3.09999999776483 1641
3.11999999731779 1553
3.13999999687076 1620
3.15999999642372 1568
3.17999999597669 1556
3.19999999552965 1479
3.21999999508262 1531
3.23999999463558 1449
3.25999999418855 1488
3.27999999374151 1415
3.29999999329448 1395
3.31999999284744 1417
3.33999999240041 1346
3.35999999195337 1360
3.37999999150634 1396
3.3999999910593 1390
3.41999999061227 1342
3.43999999016523 1385
3.4599999897182 1319
3.47999998927116 1345
3.49999998882413 1284
3.51999998837709 1291
3.53999998793006 1296
3.55999998748302 1278
3.57999998703599 1288
3.59999998658895 1257
3.61999998614192 1329
3.63999998569489 1221
3.65999998524785 1237
3.67999998480082 1234
3.69999998435378 1192
3.71999998390675 1269
3.73999998345971 1206
3.75999998301268 1200
3.77999998256564 1201
3.79999998211861 1193
3.81999998167157 1205
3.83999998122454 1147
3.8599999807775 1217
3.87999998033047 1214
3.89999997988343 1171
3.9199999794364 1226
3.93999997898936 1204
3.95999997854233 1166
3.97999997809529 1182
3.99999997764826 1160
4.01999997720122 1169
4.03999997675419 1168
4.05999997630715 1252
4.07999997586012 1222
4.09999997541308 1184
4.11999997496605 1237
4.13999997451901 1210
4.15999997407198 1149
4.17999997362494 1204
4.19999997317791 1166
4.21999997273087 1140
4.23999997228384 1145
4.25999997183681 1082
4.27999997138977 1071
4.29999997094274 1076
4.3199999704957 1054
4.33999997004867 1071
4.35999996960163 1050
4.3799999691546 1008
4.39999996870756 1032
4.41999996826053 1002
4.43999996781349 1016
4.45999996736646 978
4.47999996691942 972
4.49999996647239 982
4.51999996602535 1000
4.53999996557832 1037
4.55999996513128 989
4.57999996468425 1025
4.59999996423721 1034
4.61999996379018 941
4.63999996334314 1023
4.65999996289611 979
4.67999996244907 991
4.69999996200204 974
4.719999961555 973
4.73999996110797 964
4.75999996066093 965
4.7799999602139 1013
4.79999995976686 995
4.81999995931983 1017
4.83999995887279 1061
4.85999995842576 1033
4.87999995797873 1062
4.89999995753169 1115
4.91999995708466 1108
4.93999995663762 1066
4.95999995619059 1055
4.97999995574355 1124
4.99999995529652 1188
5.01999995484948 1103
5.03999995440245 1164
5.05999995395541 1141
5.07999995350838 1204
5.09999995306134 1314
5.11999995261431 1325
5.13999995216727 1308
5.15999995172024 1382
5.1799999512732 1505
5.19999995082617 1552
5.21999995037913 1625
5.2399999499321 1716
5.25999994948506 1795
5.27999994903803 1817
5.29999994859099 1938
5.31999994814396 2000
5.33999994769692 2302
5.35999994724989 2502
5.37999994680285 2771
5.39999994635582 3167
5.41999994590878 3362
5.43999994546175 3293
5.45999994501471 2810
5.47999994456768 2509
5.49999994412065 2432
5.51999994367361 2234
5.53999994322658 2158
5.55999994277954 2155
5.57999994233251 2041
5.59999994188547 2022
5.61999994143844 2126
5.6399999409914 2223
5.65999994054437 2215
5.67999994009733 2352
5.6999999396503 2395
5.71999993920326 2367
5.73999993875623 2506
5.75999993830919 2557
5.77999993786216 2353
5.79999993741512 2158
5.81999993696809 1875
5.83999993652105 1686
5.85999993607402 1491
5.87999993562698 1319
5.89999993517995 1145
5.91999993473291 1066
5.93999993428588 1042
5.95999993383884 956
5.97999993339181 990
5.99999993294477 990
6.01999993249774 937
6.0399999320507 929
6.05999993160367 865
6.07999993115663 816
6.0999999307096 847
6.11999993026257 823
6.13999992981553 834
6.1599999293685 851
6.17999992892146 854
6.19999992847443 851
6.21999992802739 835
6.23999992758036 778
6.25999992713332 812
6.27999992668629 816
6.29999992623925 785
6.31999992579222 772
6.33999992534518 788
6.35999992489815 768
6.37999992445111 765
6.39999992400408 793
6.41999992355704 792
6.43999992311001 763
6.45999992266297 762
6.47999992221594 811
6.4999999217689 773
6.51999992132187 797
6.53999992087483 789
6.5599999204278 794
6.57999991998076 829
6.59999991953373 784
6.61999991908669 773
6.63999991863966 836
6.65999991819262 833
6.67999991774559 786
6.69999991729855 812
6.71999991685152 825
6.73999991640449 864
6.75999991595745 849
6.77999991551042 868
6.79999991506338 823
6.81999991461635 805
6.83999991416931 824
6.85999991372228 779
6.87999991327524 746
6.89999991282821 751
6.91999991238117 699
6.93999991193414 753
6.9599999114871 768
6.97999991104007 687
6.99999991059303 703
7.019999910146 697
7.03999990969896 681
7.05999990925193 700
7.07999990880489 722
7.09999990835786 751
7.11999990791082 697
7.13999990746379 688
7.15999990701675 673
7.17999990656972 693
7.19999990612268 703
7.21999990567565 686
7.23999990522861 756
7.25999990478158 707
7.27999990433454 686
7.29999990388751 645
7.31999990344047 665
7.33999990299344 662
7.35999990254641 697
7.37999990209937 699
7.39999990165234 699
7.4199999012053 671
7.43999990075827 682
7.45999990031123 663
7.4799998998642 691
7.49999989941716 692
7.51999989897013 686
7.53999989852309 679
7.55999989807606 704
7.57999989762902 707
7.59999989718199 733
7.61999989673495 695
7.63999989628792 678
7.65999989584088 677
7.67999989539385 668
7.69999989494681 688
7.71999989449978 685
7.73999989405274 704
7.75999989360571 663
7.77999989315867 758
7.79999989271164 654
7.8199998922646 729
7.83999989181757 704
7.85999989137053 719
7.8799998909235 712
7.89999989047646 691
7.91999989002943 762
7.9399998895824 710
7.95999988913536 681
7.97999988868833 733
7.99999988824129 683
8.01999988779426 711
8.03999988734722 703
8.05999988690019 720
8.07999988645315 691
8.09999988600612 740
8.11999988555908 735
8.13999988511205 739
8.15999988466501 695
8.17999988421798 707
8.19999988377094 665
8.21999988332391 656
8.23999988287687 708
8.25999988242984 694
8.2799998819828 671
8.29999988153577 706
8.31999988108873 693
8.3399998806417 709
8.35999988019466 670
8.37999987974763 668
8.39999987930059 686
8.41999987885356 653
8.43999987840652 679
8.45999987795949 709
8.47999987751245 694
8.49999987706542 681
8.51999987661839 680
8.53999987617135 712
8.55999987572432 630
8.57999987527728 705
8.59999987483025 678
8.61999987438321 675
8.63999987393618 665
8.65999987348914 659
8.67999987304211 676
8.69999987259507 666
8.71999987214804 697
8.739999871701 677
8.75999987125397 674
8.77999987080693 700
8.7999998703599 685
8.81999986991286 731
8.83999986946583 713
8.85999986901879 698
8.87999986857176 688
8.89999986812472 674
8.91999986767769 754
8.93999986723065 734
8.95999986678362 698
8.97999986633658 725
8.99999986588955 758
9.01999986544251 771
9.03999986499548 763
9.05999986454844 813
9.07999986410141 790
9.09999986365438 845
9.11999986320734 830
9.13999986276031 862
9.15999986231327 894
9.17999986186624 883
9.1999998614192 975
9.21999986097217 989
9.23999986052513 1030
9.2599998600781 1148
9.27999985963106 1288
9.29999985918403 1410
9.31999985873699 1698
9.33999985828996 1741
9.35999985784292 1534
9.37999985739589 1269
9.39999985694885 1071
9.41999985650182 905
9.43999985605478 849
9.45999985560775 801
9.47999985516071 794
9.49999985471368 737
9.51999985426664 772
9.53999985381961 762
9.55999985337257 734
9.57999985292554 746
9.5999998524785 705
9.61999985203147 666
9.63999985158443 706
9.6599998511374 765
9.67999985069037 703
9.69999985024333 745
9.7199998497963 706
9.73999984934926 717
9.75999984890223 762
9.77999984845519 681
9.79999984800816 749
9.81999984756112 800
9.83999984711409 714
9.85999984666705 773
9.87999984622002 744
9.89999984577298 707
9.91999984532595 692
9.93999984487891 742
9.95999984443188 757
9.97999984398484 744
9.99999984353781 717
10.0199998430908 725
10.0399998426437 764
10.0599998421967 762
10.0799998417497 811
10.0999998413026 785
10.1199998408556 830
10.1399998404086 807
10.1599998399615 824
10.1799998395145 860
10.1999998390675 828
10.2199998386204 825
10.2399998381734 811
10.2599998377264 789
10.2799998372793 739
10.2999998368323 787
10.3199998363853 735
10.3399998359382 760
10.3599998354912 763
10.3799998350441 700
10.3999998345971 753
10.4199998341501 741
10.439999833703 771
10.459999833256 719
10.479999832809 731
10.4999998323619 737
10.5199998319149 732
10.5399998314679 731
10.5599998310208 784
10.5799998305738 779
10.5999998301268 772
10.6199998296797 824
10.6399998292327 791
10.6599998287857 815
10.6799998283386 863
10.6999998278916 882
10.7199998274446 941
10.7399998269975 979
10.7599998265505 1043
10.7799998261034 1125
10.7999998256564 1030
10.8199998252094 1090
10.8399998247623 1052
10.8599998243153 964
10.8799998238683 970
10.8999998234212 1021
10.9199998229742 1068
10.9399998225272 1101
10.9599998220801 1048
10.9799998216331 961
10.9999998211861 956
11.019999820739 946
11.039999820292 876
11.059999819845 802
11.0799998193979 764
11.0999998189509 809
11.1199998185039 779
11.1399998180568 716
11.1599998176098 751
11.1799998171628 767
11.1999998167157 744
11.2199998162687 691
11.2399998158216 731
11.2599998153746 748
11.2799998149276 716
11.2999998144805 749
11.3199998140335 760
11.3399998135865 777
11.3599998131394 828
11.3799998126924 794
11.3999998122454 751
11.4199998117983 785
11.4399998113513 802
11.4599998109043 741
11.4799998104572 761
11.4999998100102 797
11.5199998095632 772
11.5399998091161 767
11.5599998086691 856
11.5799998082221 736
11.599999807775 797
11.619999807328 822
11.639999806881 803
11.6599998064339 791
11.6799998059869 785
11.6999998055398 795
11.7199998050928 755
11.7399998046458 737
11.7599998041987 703
11.7799998037517 773
11.7999998033047 797
11.8199998028576 760
11.8399998024106 723
11.8599998019636 746
11.8799998015165 771
11.8999998010695 776
11.9199998006225 768
11.9399998001754 763
11.9599997997284 740
11.9799997992814 796
11.9999997988343 780
12.0199997983873 773
12.0399997979403 788
12.0599997974932 800
12.0799997970462 775
12.0999997965992 787
12.1199997961521 788
12.1399997957051 790
12.159999795258 761
12.179999794811 800
12.199999794364 757
12.2199997939169 812
12.2399997934699 811
12.2599997930229 893
12.2799997925758 872
12.2999997921288 809
12.3199997916818 804
12.3399997912347 818
12.3599997907877 784
12.3799997903407 815
12.3999997898936 778
12.4199997894466 820
12.4399997889996 821
12.4599997885525 743
12.4799997881055 757
12.4999997876585 822
12.5199997872114 768
12.5399997867644 710
12.5599997863173 778
12.5799997858703 763
12.5999997854233 789
12.6199997849762 743
12.6399997845292 786
12.6599997840822 814
12.6799997836351 755
12.6999997831881 709
12.7199997827411 770
12.739999782294 810
12.759999781847 784
12.7799997814 820
12.7999997809529 745
12.8199997805059 808
12.8399997800589 801
12.8599997796118 737
12.8799997791648 820
12.8999997787178 806
12.9199997782707 775
12.9399997778237 786
12.9599997773767 780
12.9799997769296 750
12.9999997764826 764
13.0199997760355 792
13.0399997755885 806
13.0599997751415 788
13.0799997746944 866
13.0999997742474 808
13.1199997738004 791
13.1399997733533 786
13.1599997729063 826
13.1799997724593 812
13.1999997720122 796
13.2199997715652 840
13.2399997711182 850
13.2599997706711 909
13.2799997702241 823
13.2999997697771 811
13.31999976933 784
13.339999768883 816
13.359999768436 815
13.3799997679889 775
13.3999997675419 811
13.4199997670949 833
13.4399997666478 880
13.4599997662008 837
13.4799997657537 855
13.4999997653067 858
13.5199997648597 890
13.5399997644126 843
13.5599997639656 809
13.5799997635186 887
13.5999997630715 893
13.6199997626245 805
13.6399997621775 823
13.6599997617304 794
13.6799997612834 803
13.6999997608364 846
13.7199997603893 859
13.7399997599423 845
13.7599997594953 856
13.7799997590482 827
13.7999997586012 839
13.8199997581542 844
13.8399997577071 840
13.8599997572601 869
13.879999756813 834
13.899999756366 838
13.919999755919 804
13.9399997554719 821
13.9599997550249 846
13.9799997545779 904
13.9999997541308 886
14.0199997536838 878
14.0399997532368 831
14.0599997527897 874
14.0799997523427 879
14.0999997518957 883
14.1199997514486 898
14.1399997510016 868
14.1599997505546 897
14.1799997501075 890
14.1999997496605 909
14.2199997492135 900
14.2399997487664 927
14.2599997483194 919
14.2799997478724 913
14.2999997474253 909
14.3199997469783 941
14.3399997465312 973
14.3599997460842 952
14.3799997456372 978
14.3999997451901 867
14.4199997447431 917
14.4399997442961 939
14.459999743849 915
14.479999743402 891
14.499999742955 837
14.5199997425079 946
14.5399997420609 922
14.5599997416139 1004
14.5799997411668 963
14.5999997407198 999
14.6199997402728 942
14.6399997398257 930
14.6599997393787 950
14.6799997389317 882
14.6999997384846 945
14.7199997380376 971
14.7399997375906 979
14.7599997371435 998
14.7799997366965 999
14.7999997362494 1017
14.8199997358024 944
14.8399997353554 1001
14.8599997349083 951
14.8799997344613 952
14.8999997340143 946
14.9199997335672 953
14.9399997331202 978
14.9599997326732 995
14.9799997322261 950
14.9999997317791 942
15.0199997313321 920
15.039999730885 922
15.059999730438 977
15.079999729991 1033
15.0999997295439 987
15.1199997290969 971
15.1399997286499 978
15.1599997282028 975
15.1799997277558 969
15.1999997273088 1001
15.2199997268617 1030
15.2399997264147 1025
15.2599997259676 1045
15.2799997255206 982
15.2999997250736 987
15.3199997246265 978
15.3399997241795 1048
15.3599997237325 978
15.3799997232854 1030
15.3999997228384 1048
15.4199997223914 986
15.4399997219443 1021
15.4599997214973 1003
15.4799997210503 1002
15.4999997206032 1041
15.5199997201562 976
15.5399997197092 1015
15.5599997192621 1007
15.5799997188151 1041
15.5999997183681 1019
15.619999717921 1016
15.639999717474 977
15.659999717027 1020
15.6799997165799 972
15.6999997161329 1041
15.7199997156858 1085
15.7399997152388 1024
15.7599997147918 1053
15.7799997143447 1045
15.7999997138977 1042
15.8199997134507 1114
15.8399997130036 1019
15.8599997125566 1071
15.8799997121096 1130
15.8999997116625 1053
15.9199997112155 1137
15.9399997107685 1094
15.9599997103214 1065
15.9799997098744 1097
15.9999997094274 1064
16.0199997089803 1138
16.0399997085333 1100
16.0599997080863 1127
16.0799997076392 1072
16.0999997071922 1107
16.1199997067451 1103
16.1399997062981 1102
16.1599997058511 1127
16.179999705404 1095
16.199999704957 1156
16.21999970451 1091
16.2399997040629 1134
16.2599997036159 1117
16.2799997031689 1188
16.2999997027218 1164
16.3199997022748 1168
16.3399997018278 1147
16.3599997013807 1191
16.3799997009337 1186
16.3999997004867 1117
16.4199997000396 1185
16.4399996995926 1170
16.4599996991456 1141
16.4799996986985 1192
16.4999996982515 1198
16.5199996978045 1180
16.5399996973574 1218
16.5599996969104 1208
16.5799996964633 1153
16.5999996960163 1156
16.6199996955693 1192
16.6399996951222 1176
16.6599996946752 1243
16.6799996942282 1201
16.6999996937811 1188
16.7199996933341 1209
16.7399996928871 1229
16.75999969244 1301
16.779999691993 1297
16.799999691546 1291
16.8199996910989 1218
16.8399996906519 1347
16.8599996902049 1348
16.8799996897578 1374
16.8999996893108 1443
16.9199996888638 1588
16.9399996884167 1635
16.9599996879697 1784
16.9799996875226 1761
16.9999996870756 1873
17.0199996866286 1829
17.0399996861815 1783
17.0599996857345 1669
17.0799996852875 1531
17.0999996848404 1446
17.1199996843934 1489
17.1399996839464 1414
17.1599996834993 1390
17.1799996830523 1352
17.1999996826053 1311
17.2199996821582 1268
17.2399996817112 1278
17.2599996812642 1334
17.2799996808171 1380
17.2999996803701 1303
17.3199996799231 1339
17.339999679476 1348
17.359999679029 1370
17.379999678582 1322
17.3999996781349 1283
17.4199996776879 1321
17.4399996772408 1274
17.4599996767938 1327
17.4799996763468 1334
17.4999996758997 1392
17.5199996754527 1322
17.5399996750057 1408
17.5599996745586 1342
17.5799996741116 1266
17.5999996736646 1333
17.6199996732175 1375
17.6399996727705 1321
17.6599996723235 1394
17.6799996718764 1367
17.6999996714294 1347
17.7199996709824 1357
17.7399996705353 1334
17.7599996700883 1363
17.7799996696413 1380
17.7999996691942 1411
17.8199996687472 1339
17.8399996683002 1412
17.8599996678531 1396
17.8799996674061 1420
17.899999666959 1391
17.919999666512 1337
17.939999666065 1408
17.9599996656179 1440
17.9799996651709 1459
17.9999996647239 1444
18.0199996642768 1414
18.0399996638298 1395
18.0599996633828 1380
18.0799996629357 1464
18.0999996624887 1476
18.1199996620417 1439
18.1399996615946 1392
18.1599996611476 1365
18.1799996607006 1418
18.1999996602535 1382
18.2199996598065 1435
18.2399996593595 1390
18.2599996589124 1442
18.2799996584654 1470
18.2999996580184 1468
18.3199996575713 1436
18.3399996571243 1465
18.3599996566772 1435
18.3799996562302 1477
18.3999996557832 1496
18.4199996553361 1463
18.4399996548891 1438
18.4599996544421 1505
18.479999653995 1465
18.499999653548 1467
18.519999653101 1354
18.5399996526539 1523
18.5599996522069 1458
18.5799996517599 1491
18.5999996513128 1578
18.6199996508658 1501
18.6399996504188 1602
18.6599996499717 1531
18.6799996495247 1527
18.6999996490777 1524
18.7199996486306 1505
18.7399996481836 1561
18.7599996477366 1547
18.7799996472895 1555
18.7999996468425 1579
18.8199996463954 1548
18.8399996459484 1530
18.8599996455014 1592
18.8799996450543 1559
18.8999996446073 1585
18.9199996441603 1576
18.9399996437132 1533
18.9599996432662 1554
18.9799996428192 1523
18.9999996423721 1564
19.0199996419251 1602
19.0399996414781 1635
19.059999641031 1649
19.079999640584 1724
19.099999640137 1686
19.1199996396899 1608
19.1399996392429 1588
19.1599996387959 1666
19.1799996383488 1659
19.1999996379018 1618
19.2199996374547 1617
19.2399996370077 1608
19.2599996365607 1583
19.2799996361136 1627
19.2999996356666 1610
19.3199996352196 1649
19.3399996347725 1709
19.3599996343255 1715
19.3799996338785 1707
19.3999996334314 1675
19.4199996329844 1768
19.4399996325374 1707
19.4599996320903 1776
19.4799996316433 1771
19.4999996311963 1800
19.5199996307492 1815
19.5399996303022 1784
19.5599996298552 1822
19.5799996294081 1738
19.5999996289611 1797
19.6199996285141 1711
19.639999628067 1693
19.65999962762 1609
19.6799996271729 1677
19.6999996267259 1662
19.7199996262789 1684
19.7399996258318 1759
19.7599996253848 1653
19.7799996249378 1599
19.7999996244907 1655
19.8199996240437 1732
19.8399996235967 1745
19.8599996231496 1747
19.8799996227026 1704
19.8999996222556 1711
19.9199996218085 1735
19.9399996213615 1622
19.9599996209145 1675
19.9799996204674 1737
19.9999996200204 1701
