3 2085
3.01999999955297 1950
3.03999999910593 1874
3.0599999986589 1747
3.07999999821186 1695
3.09999999776483 1601
3.11999999731779 1629
3.13999999687076 1628
3.15999999642372 1579
3.17999999597669 1491
3.19999999552965 1470
3.21999999508262 1475
3.23999999463558 1470
3.25999999418855 1485
3.27999999374151 1443
3.29999999329448 1404
3.31999999284744 1400
3.33999999240041 1391
3.35999999195337 1470
3.37999999150634 1365
3.3999999910593 1343
3.41999999061227 1310
3.43999999016523 1360
3.4599999897182 1353
3.47999998927116 1287
3.49999998882413 1254
3.51999998837709 1271
3.53999998793006 1294
3.55999998748302 1311
3.57999998703599 1274
3.59999998658895 1251
3.61999998614192 1177
3.63999998569489 1206
3.65999998524785 1147
3.67999998480082 1169
3.69999998435378 1196
3.71999998390675 1094
3.73999998345971 1155
3.75999998301268 1140
3.77999998256564 1156
3.79999998211861 1136
3.81999998167157 1111
3.83999998122454 1133
3.8599999807775 1096
3.87999998033047 1072
3.89999997988343 1090
3.9199999794364 1074
3.93999997898936 1077
3.95999997854233 1099
3.97999997809529 1101
3.99999997764826 1027
4.01999997720122 1019
4.03999997675419 1064
4.05999997630715 975
4.07999997586012 1054
4.09999997541308 1112
4.11999997496605 1069
4.13999997451901 1013
4.15999997407198 956
4.17999997362494 975
4.19999997317791 963
4.21999997273087 980
4.23999997228384 982
4.25999997183681 982
4.27999997138977 890
4.29999997094274 914
4.3199999704957 887
4.33999997004867 919
4.35999996960163 922
4.3799999691546 926
4.39999996870756 912
4.41999996826053 836
4.43999996781349 891
4.45999996736646 929
4.47999996691942 909
4.49999996647239 910
4.51999996602535 843
4.53999996557832 963
4.55999996513128 903
4.57999996468425 917
4.59999996423721 901
4.61999996379018 933
4.63999996334314 916
4.65999996289611 869
4.67999996244907 882
4.69999996200204 883
4.719999961555 868
4.73999996110797 851
4.75999996066093 895
4.7799999602139 879
4.79999995976686 884
4.81999995931983 928
4.83999995887279 876
4.85999995842576 846
4.87999995797873 914
4.89999995753169 912
4.91999995708466 883
4.93999995663762 868
4.95999995619059 880
4.97999995574355 919
4.99999995529652 934
5.01999995484948 926
5.03999995440245 1005
5.05999995395541 937
5.07999995350838 943
5.09999995306134 971
5.11999995261431 968
5.13999995216727 1009
5.15999995172024 989
5.1799999512732 1054
5.19999995082617 1065
5.21999995037913 1104
5.2399999499321 1069
5.25999994948506 1122
5.27999994903803 1124
5.29999994859099 1114
5.31999994814396 1148
5.33999994769692 1139
5.35999994724989 1178
5.37999994680285 1259
5.39999994635582 1260
5.41999994590878 1296
5.43999994546175 1342
5.45999994501471 1395
5.47999994456768 1523
5.49999994412065 1582
5.51999994367361 1603
5.53999994322658 1738
5.55999994277954 1764
5.57999994233251 1950
5.59999994188547 2082
5.61999994143844 2201
5.6399999409914 2333
5.65999994054437 2493
5.67999994009733 2749
5.6999999396503 2963
5.71999993920326 3528
5.73999993875623 4092
5.75999993830919 4846
5.77999993786216 5766
5.79999993741512 5907
5.81999993696809 4764
5.83999993652105 3242
5.85999993607402 1915
5.87999993562698 1260
5.89999993517995 1100
5.91999993473291 1094
5.93999993428588 983
5.95999993383884 1031
5.97999993339181 944
5.99999993294477 930
6.01999993249774 1000
6.0399999320507 1028
6.05999993160367 983
6.07999993115663 992
6.0999999307096 994
6.11999993026257 952
6.13999992981553 1059
6.1599999293685 1042
6.17999992892146 1025
6.19999992847443 1049
6.21999992802739 1014
6.23999992758036 1023
6.25999992713332 1052
6.27999992668629 1115
6.29999992623925 1137
6.31999992579222 1168
6.33999992534518 1189
6.35999992489815 1197
6.37999992445111 1205
6.39999992400408 1201
6.41999992355704 1330
6.43999992311001 1381
6.45999992266297 1417
6.47999992221594 1516
6.4999999217689 1605
6.51999992132187 1729
6.53999992087483 1763
6.5599999204278 1952
6.57999991998076 2193
6.59999991953373 2415
6.61999991908669 2729
6.63999991863966 3171
6.65999991819262 3647
6.67999991774559 3768
6.69999991729855 3239
6.71999991685152 2257
6.73999991640449 1484
6.75999991595745 1120
6.77999991551042 1021
6.79999991506338 921
6.81999991461635 995
6.83999991416931 982
6.85999991372228 890
6.87999991327524 871
6.89999991282821 919
6.91999991238117 907
6.93999991193414 949
6.9599999114871 900
6.97999991104007 869
6.99999991059303 885
7.019999910146 965
7.03999990969896 936
7.05999990925193 953
7.07999990880489 989
7.09999990835786 933
7.11999990791082 937
7.13999990746379 951
7.15999990701675 969
7.17999990656972 972
7.19999990612268 974
7.21999990567565 990
7.23999990522861 1042
7.25999990478158 1039
7.27999990433454 999
7.29999990388751 1040
7.31999990344047 1049
7.33999990299344 1033
7.35999990254641 1035
7.37999990209937 1114
7.39999990165234 1098
7.4199999012053 1168
7.43999990075827 1207
7.45999990031123 1258
7.4799998998642 1128
7.49999989941716 1125
7.51999989897013 1012
7.53999989852309 989
7.55999989807606 919
7.57999989762902 889
7.59999989718199 884
7.61999989673495 898
7.63999989628792 904
7.65999989584088 868
7.67999989539385 857
7.69999989494681 839
7.71999989449978 857
7.73999989405274 897
7.75999989360571 862
7.77999989315867 922
7.79999989271164 865
7.8199998922646 844
7.83999989181757 841
7.85999989137053 895
7.8799998909235 884
7.89999989047646 858
7.91999989002943 867
7.9399998895824 832
7.95999988913536 816
7.97999988868833 932
7.99999988824129 817
8.01999988779426 833
8.03999988734722 826
8.05999988690019 835
8.07999988645315 837
8.09999988600612 814
8.11999988555908 794
8.13999988511205 851
8.15999988466501 850
8.17999988421798 847
8.19999988377094 829
8.21999988332391 826
8.23999988287687 870
8.25999988242984 790
8.2799998819828 791
8.29999988153577 833
8.31999988108873 836
8.3399998806417 871
8.35999988019466 855
8.37999987974763 871
8.39999987930059 891
8.41999987885356 849
8.43999987840652 863
8.45999987795949 886
8.47999987751245 852
8.49999987706542 911
8.51999987661839 921
8.53999987617135 935
8.55999987572432 968
8.57999987527728 974
8.59999987483025 974
8.61999987438321 956
8.63999987393618 978
8.65999987348914 887
8.67999987304211 880
8.69999987259507 914
8.71999987214804 858
8.739999871701 828
8.75999987125397 854
8.77999987080693 809
8.7999998703599 833
8.81999986991286 832
8.83999986946583 832
8.85999986901879 880
8.87999986857176 928
8.89999986812472 871
8.91999986767769 965
8.93999986723065 901
8.95999986678362 898
8.97999986633658 900
8.99999986588955 1005
9.01999986544251 927
9.03999986499548 897
9.05999986454844 974
9.07999986410141 978
9.09999986365438 992
9.11999986320734 1033
9.13999986276031 1045
9.15999986231327 1113
9.17999986186624 1192
9.1999998614192 1243
9.21999986097217 1240
9.23999986052513 1291
9.2599998600781 1369
9.27999985963106 1541
9.29999985918403 1642
9.31999985873699 1780
9.33999985828996 2052
9.35999985784292 2520
9.37999985739589 2893
9.39999985694885 3117
9.41999985650182 2774
9.43999985605478 2114
9.45999985560775 1555
9.47999985516071 1161
9.49999985471368 949
9.51999985426664 956
9.53999985381961 972
9.55999985337257 866
9.57999985292554 889
9.5999998524785 844
9.61999985203147 895
9.63999985158443 879
9.6599998511374 840
9.67999985069037 907
9.69999985024333 844
9.7199998497963 841
9.73999984934926 873
9.75999984890223 904
9.77999984845519 880
9.79999984800816 847
9.81999984756112 882
9.83999984711409 825
9.85999984666705 828
9.87999984622002 867
9.89999984577298 829
9.91999984532595 842
9.93999984487891 849
9.95999984443188 886
9.97999984398484 865
9.99999984353781 882
10.0199998430908 900
10.0399998426437 842
10.0599998421967 822
10.0799998417497 867
10.0999998413026 841
10.1199998408556 834
10.1399998404086 882
10.1599998399615 854
10.1799998395145 793
10.1999998390675 833
10.2199998386204 827
10.2399998381734 834
10.2599998377264 873
10.2799998372793 920
10.2999998368323 874
10.3199998363853 846
10.3399998359382 841
10.3599998354912 871
10.3799998350441 888
10.3999998345971 905
10.4199998341501 830
10.439999833703 857
10.459999833256 889
10.479999832809 876
10.4999998323619 905
10.5199998319149 871
10.5399998314679 934
10.5599998310208 874
10.5799998305738 886
10.5999998301268 892
10.6199998296797 946
10.6399998292327 950
10.6599998287857 963
10.6799998283386 986
10.6999998278916 991
10.7199998274446 1051
10.7399998269975 1036
10.7599998265505 1063
10.7799998261034 1195
10.7999998256564 1190
10.8199998252094 1262
10.8399998247623 1295
10.8599998243153 1364
10.8799998238683 1458
10.8999998234212 1550
10.9199998229742 1688
10.9399998225272 1902
10.9599998220801 2332
10.9799998216331 2661
10.9999998211861 3037
11.019999820739 2887
11.039999820292 2529
11.059999819845 1909
11.0799998193979 1377
11.0999998189509 1145
11.1199998185039 1036
11.1399998180568 954
11.1599998176098 997
11.1799998171628 983
11.1999998167157 1030
11.2199998162687 1018
11.2399998158216 1031
11.2599998153746 1022
11.2799998149276 1074
11.2999998144805 1077
11.3199998140335 1064
11.3399998135865 1110
11.3599998131394 1163
11.3799998126924 1211
11.3999998122454 1254
11.4199998117983 1390
11.4399998113513 1468
11.4599998109043 1808
11.4799998104572 1921
11.4999998100102 2048
11.5199998095632 1753
11.5399998091161 1510
11.5599998086691 1213
11.5799998082221 1062
11.599999807775 1024
11.619999807328 952
11.639999806881 922
11.6599998064339 958
11.6799998059869 946
11.6999998055398 930
11.7199998050928 987
11.7399998046458 886
11.7599998041987 885
11.7799998037517 893
11.7999998033047 919
11.8199998028576 938
11.8399998024106 972
11.8599998019636 886
11.8799998015165 903
11.8999998010695 930
11.9199998006225 956
11.9399998001754 971
11.9599997997284 934
11.9799997992814 949
11.9999997988343 966
12.0199997983873 954
12.0399997979403 988
12.0599997974932 1009
12.0799997970462 976
12.0999997965992 967
12.1199997961521 975
12.1399997957051 986
12.159999795258 1003
12.179999794811 989
12.199999794364 1049
12.2199997939169 994
12.2399997934699 968
12.2599997930229 968
12.2799997925758 948
12.2999997921288 912
12.3199997916818 898
12.3399997912347 941
12.3599997907877 968
12.3799997903407 901
12.3999997898936 961
12.4199997894466 945
12.4399997889996 986
12.4599997885525 943
12.4799997881055 958
12.4999997876585 977
12.5199997872114 934
12.5399997867644 982
12.5599997863173 977
12.5799997858703 967
12.5999997854233 955
12.6199997849762 961
12.6399997845292 955
12.6599997840822 932
12.6799997836351 933
12.6999997831881 959
12.7199997827411 925
12.739999782294 948
12.759999781847 1002
12.7799997814 979
12.7999997809529 978
12.8199997805059 944
12.8399997800589 972
12.8599997796118 978
12.8799997791648 969
12.8999997787178 966
12.9199997782707 981
12.9399997778237 1058
12.9599997773767 947
12.9799997769296 1017
12.9999997764826 1034
13.0199997760355 1023
13.0399997755885 1014
13.0599997751415 1006
13.0799997746944 1012
13.0999997742474 1005
13.1199997738004 1095
13.1399997733533 1131
13.1599997729063 1094
13.1799997724593 1130
13.1999997720122 1174
13.2199997715652 1225
13.2399997711182 1341
13.2599997706711 1382
13.2799997702241 1426
13.2999997697771 1234
13.31999976933 1208
13.339999768883 1066
13.359999768436 1071
13.3799997679889 1024
13.3999997675419 1029
13.4199997670949 1002
13.4399997666478 1066
13.4599997662008 1070
13.4799997657537 1010
13.4999997653067 1028
13.5199997648597 1044
13.5399997644126 1097
13.5599997639656 1063
13.5799997635186 1040
13.5999997630715 998
13.6199997626245 1073
13.6399997621775 1009
13.6599997617304 1047
13.6799997612834 1068
13.6999997608364 1118
13.7199997603893 1105
13.7399997599423 1090
13.7599997594953 1035
13.7799997590482 1064
13.7999997586012 973
13.8199997581542 1042
13.8399997577071 1067
13.8599997572601 1179
13.879999756813 1182
13.899999756366 1102
13.919999755919 1104
13.9399997554719 1100
13.9599997550249 1088
13.9799997545779 1098
13.9999997541308 1065
14.0199997536838 1084
14.0399997532368 1080
14.0599997527897 1139
14.0799997523427 1063
14.0999997518957 1147
14.1199997514486 1120
14.1399997510016 1123
14.1599997505546 1099
14.1799997501075 1070
14.1999997496605 1133
14.2199997492135 1113
14.2399997487664 1150
14.2599997483194 1200
14.2799997478724 1203
14.2999997474253 1152
14.3199997469783 1167
14.3399997465312 1196
14.3599997460842 1244
14.3799997456372 1284
14.3999997451901 1330
14.4199997447431 1435
14.4399997442961 1453
14.459999743849 1383
14.479999743402 1367
14.499999742955 1331
14.5199997425079 1262
14.5399997420609 1186
14.5599997416139 1128
14.5799997411668 1145
14.5999997407198 1148
14.6199997402728 1130
14.6399997398257 1131
14.6599997393787 1247
14.6799997389317 1209
14.6999997384846 1178
14.7199997380376 1187
14.7399997375906 1177
14.7599997371435 1172
14.7799997366965 1203
14.7999997362494 1207
14.8199997358024 1237
14.8399997353554 1193
14.8599997349083 1214
14.8799997344613 1268
14.8999997340143 1194
14.9199997335672 1176
14.9399997331202 1211
14.9599997326732 1196
14.9799997322261 1166
14.9999997317791 1126
15.0199997313321 1202
15.039999730885 1168
15.059999730438 1230
15.079999729991 1170
15.0999997295439 1203
15.1199997290969 1258
15.1399997286499 1204
15.1599997282028 1265
15.1799997277558 1236
15.1999997273088 1173
15.2199997268617 1219
15.2399997264147 1164
15.2599997259676 1223
15.2799997255206 1229
15.2999997250736 1199
15.3199997246265 1209
15.3399997241795 1229
15.3599997237325 1271
15.3799997232854 1285
15.3999997228384 1257
15.4199997223914 1291
15.4399997219443 1356
15.4599997214973 1226
15.4799997210503 1232
15.4999997206032 1231
15.5199997201562 1340
15.5399997197092 1280
15.5599997192621 1194
15.5799997188151 1296
15.5999997183681 1281
15.619999717921 1253
15.639999717474 1287
15.659999717027 1262
15.6799997165799 1307
15.6999997161329 1297
15.7199997156858 1316
15.7399997152388 1314
15.7599997147918 1301
15.7799997143447 1293
15.7999997138977 1346
15.8199997134507 1335
15.8399997130036 1323
15.8599997125566 1356
15.8799997121096 1368
15.8999997116625 1272
15.9199997112155 1343
15.9399997107685 1313
15.9599997103214 1296
15.9799997098744 1312
15.9999997094274 1313
16.0199997089803 1320
16.0399997085333 1417
16.0599997080863 1412
16.0799997076392 1341
16.0999997071922 1398
16.1199997067451 1373
16.1399997062981 1430
16.1599997058511 1367
16.179999705404 1371
16.199999704957 1338
16.21999970451 1398
16.2399997040629 1400
16.2599997036159 1353
16.2799997031689 1366
16.2999997027218 1361
16.3199997022748 1436
16.3399997018278 1428
16.3599997013807 1367
16.3799997009337 1458
16.3999997004867 1329
16.4199997000396 1395
16.4399996995926 1428
16.4599996991456 1399
16.4799996986985 1424
16.4999996982515 1408
16.5199996978045 1463
16.5399996973574 1432
16.5599996969104 1462
16.5799996964633 1503
16.5999996960163 1507
16.6199996955693 1415
16.6399996951222 1370
16.6599996946752 1505
16.6799996942282 1484
16.6999996937811 1490
16.7199996933341 1511
16.7399996928871 1471
16.75999969244 1488
16.779999691993 1558
16.799999691546 1499
16.8199996910989 1466
16.8399996906519 1460
16.8599996902049 1470
16.8799996897578 1475
16.8999996893108 1487
16.9199996888638 1536
16.9399996884167 1580
16.9599996879697 1492
16.9799996875226 1478
16.9999996870756 1626
17.0199996866286 1519
17.0399996861815 1536
17.0599996857345 1617
17.0799996852875 1648
17.0999996848404 1648
17.1199996843934 1685
17.1399996839464 1715
17.1599996834993 1675
17.1799996830523 1798
17.1999996826053 1784
17.2199996821582 1892
17.2399996817112 1863
17.2599996812642 1950
17.2799996808171 1786
17.2999996803701 1697
17.3199996799231 1585
17.339999679476 1654
17.359999679029 1567
17.379999678582 1596
17.3999996781349 1607
17.4199996776879 1646
17.4399996772408 1696
17.4599996767938 1667
17.4799996763468 1702
17.4999996758997 1696
17.5199996754527 1633
17.5399996750057 1695
17.5599996745586 1615
17.5799996741116 1620
17.5999996736646 1657
17.6199996732175 1650
17.6399996727705 1724
17.6599996723235 1688
17.6799996718764 1674
17.6999996714294 1668
17.7199996709824 1661
17.7399996705353 1662
17.7599996700883 1639
17.7799996696413 1730
17.7999996691942 1790
17.8199996687472 1728
17.8399996683002 1697
17.8599996678531 1736
17.8799996674061 1782
17.899999666959 1653
17.919999666512 1763
17.939999666065 1833
17.9599996656179 1797
17.9799996651709 1748
17.9999996647239 1765
18.0199996642768 1863
18.0399996638298 1810
18.0599996633828 1758
18.0799996629357 1779
18.0999996624887 1769
18.1199996620417 1752
18.1399996615946 1810
18.1599996611476 1775
18.1799996607006 1814
18.1999996602535 1779
18.2199996598065 1796
18.2399996593595 1860
18.2599996589124 1781
18.2799996584654 1869
18.2999996580184 1884
18.3199996575713 1804
18.3399996571243 1876
18.3599996566772 1822
18.3799996562302 1840
18.3999996557832 1880
18.4199996553361 1845
18.4399996548891 1762
18.4599996544421 1921
18.479999653995 1835
18.499999653548 1911
18.519999653101 1984
18.5399996526539 1856
18.5599996522069 1925
18.5799996517599 1936
18.5999996513128 1828
18.6199996508658 1943
18.6399996504188 1889
18.6599996499717 1925
18.6799996495247 1932
18.6999996490777 1823
18.7199996486306 1937
18.7399996481836 1902
18.7599996477366 1986
18.7799996472895 1875
18.7999996468425 1890
18.8199996463954 1942
18.8399996459484 1847
18.8599996455014 1948
18.8799996450543 2005
18.8999996446073 2047
18.9199996441603 1932
18.9399996437132 1930
18.9599996432662 1897
18.9799996428192 1999
18.9999996423721 1956
19.0199996419251 1952
19.0399996414781 1992
19.059999641031 1950
19.079999640584 2025
19.099999640137 2003
19.1199996396899 2044
19.1399996392429 2126
19.1599996387959 1893
19.1799996383488 1996
19.1999996379018 2103
19.2199996374547 2007
19.2399996370077 2041
19.2599996365607 2102
19.2799996361136 1940
19.2999996356666 2038
19.3199996352196 2043
19.3399996347725 2084
19.3599996343255 2082
19.3799996338785 2044
19.3999996334314 2179
19.4199996329844 2122
19.4399996325374 2075
19.4599996320903 2088
19.4799996316433 2177
19.4999996311963 2237
19.5199996307492 2270
19.5399996303022 2365
19.5599996298552 2533
19.5799996294081 2644
19.5999996289611 2779
19.6199996285141 2905
19.639999628067 2954
19.65999962762 2835
19.6799996271729 2649
19.6999996267259 2437
19.7199996262789 2364
19.7399996258318 2356
19.7599996253848 2342
19.7799996249378 2334
19.7999996244907 2504
19.8199996240437 2561
19.8399996235967 2786
19.8599996231496 2938
19.8799996227026 3295
19.8999996222556 3419
19.9199996218085 3279
19.9399996213615 3108
19.9599996209145 2828
19.9799996204674 2556
19.9999996200204 2288
20.0199996195734 2230
20.0399996191263 2105
20.0599996186793 2132
20.0799996182322 2233
20.0999996177852 2210
20.1199996173382 2251
20.1399996168911 2216
20.1599996164441 2184
20.1799996159971 2202
20.19999961555 2181
20.219999615103 2140
20.239999614656 2196
20.2599996142089 2242
20.2799996137619 2221
20.2999996133149 2133
20.3199996128678 2119
20.3399996124208 2184
20.3599996119738 2172
20.3799996115267 2098
20.3999996110797 2219
20.4199996106327 2179
20.4399996101856 2264
20.4599996097386 2260
20.4799996092916 2231
20.4999996088445 2201
20.5199996083975 2155
20.5399996079504 2202
20.5599996075034 2218
20.5799996070564 2145
20.5999996066093 2120
20.6199996061623 2153
20.6399996057153 2227
20.6599996052682 2145
20.6799996048212 2152
20.6999996043742 2182
20.7199996039271 2096
20.7399996034801 2149
20.7599996030331 2183
20.779999602586 2114
20.799999602139 2179
20.819999601692 2124
20.8399996012449 2189
20.8599996007979 2211
20.8799996003509 2128
20.8999995999038 2191
20.9199995994568 2183
20.9399995990098 2129
20.9599995985627 2212
20.9799995981157 2253
20.9999995976686 2142
21.0199995972216 2224
21.0399995967746 2220
21.0599995963275 2186
21.0799995958805 2197
21.0999995954335 2207
21.1199995949864 2167
21.1399995945394 2135
21.1599995940924 2108
21.1799995936453 2249
21.1999995931983 2226
21.2199995927513 2182
21.2399995923042 2109
21.2599995918572 2091
21.2799995914102 2166
21.2999995909631 2185
21.3199995905161 2171
21.3399995900691 2203
21.359999589622 2163
21.379999589175 2110
21.399999588728 2213
21.4199995882809 2146
21.4399995878339 2135
21.4599995873868 2334
21.4799995869398 2126
21.4999995864928 2184
21.5199995860457 2117
21.5399995855987 2119
21.5599995851517 2180
21.5799995847046 2195
21.5999995842576 2138
21.6199995838106 2221
21.6399995833635 2129
21.6599995829165 2184
21.6799995824695 2220
21.6999995820224 2268
21.7199995815754 2392
21.7399995811284 2399
21.7599995806813 2539
21.7799995802343 2491
21.7999995797873 2461
21.8199995793402 2326
21.8399995788932 2261
21.8599995784462 2261
21.8799995779991 2168
21.8999995775521 2118
21.919999577105 2184
21.939999576658 2121
21.959999576211 2134
21.9799995757639 2112
21.9999995753169 2166
22.0199995748699 2072
22.0399995744228 2145
22.0599995739758 2124
22.0799995735288 2131
22.0999995730817 2157
22.1199995726347 2148
22.1399995721877 2077
22.1599995717406 2135
22.1799995712936 2084
22.1999995708466 2116
22.2199995703995 2093
22.2399995699525 2167
22.2599995695055 2101
22.2799995690584 2046
22.2999995686114 2096
22.3199995681643 2047
22.3399995677173 2034
22.3599995672703 2103
22.3799995668232 2156
22.3999995663762 2083
22.4199995659292 1980
22.4399995654821 2035
22.4599995650351 2103
22.4799995645881 2066
22.499999564141 2062
22.519999563694 1962
22.539999563247 2035
22.5599995627999 2053
22.5799995623529 2046
22.5999995619059 1986
22.6199995614588 1986
22.6399995610118 1974
22.6599995605648 2028
22.6799995601177 2017
22.6999995596707 1943
22.7199995592237 2068
22.7399995587766 2017
22.7599995583296 2013
22.7799995578825 2002
22.7999995574355 1987
22.8199995569885 1942
22.8399995565414 1946
22.8599995560944 1983
22.8799995556474 1998
22.8999995552003 1987
22.9199995547533 1944
22.9399995543063 2011
22.9599995538592 2142
22.9799995534122 2092
22.9999995529652 2057
23.0199995525181 2086
23.0399995520711 2067
23.0599995516241 2050
23.079999551177 2048
23.09999955073 1983
23.119999550283 2014
23.1399995498359 1913
23.1599995493889 1829
23.1799995489418 1913
23.1999995484948 1848
23.2199995480478 1931
23.2399995476007 1848
23.2599995471537 1874
23.2799995467067 1961
23.2999995462596 1893
23.3199995458126 1865
23.3399995453656 1883
23.3599995449185 1877
23.3799995444715 1797
23.3999995440245 1928
23.4199995435774 1840
23.4399995431304 1903
23.4599995426834 1929
23.4799995422363 1844
23.4999995417893 1963
23.5199995413423 1842
23.5399995408952 1955
23.5599995404482 1914
23.5799995400012 1891
23.5999995395541 2027
23.6199995391071 2041
23.63999953866 2133
23.659999538213 2288
23.679999537766 2527
23.6999995373189 2758
23.7199995368719 2734
23.7399995364249 2716
23.7599995359778 2593
23.7799995355308 2316
23.7999995350838 2207
23.8199995346367 1987
23.8399995341897 1883
23.8599995337427 1879
23.8799995332956 1885
23.8999995328486 1856
23.9199995324016 1938
23.9399995319545 1993
23.9599995315075 2001
23.9799995310605 1905
23.9999995306134 1931
24.0199995301664 1886
24.0399995297194 1866
24.0599995292723 1850
24.0799995288253 1813
24.0999995283782 1757
24.1199995279312 1727
24.1399995274842 1750
24.1599995270371 1771
24.1799995265901 1764
24.1999995261431 1709
24.219999525696 1651
24.239999525249 1760
24.259999524802 1735
24.2799995243549 1720
24.2999995239079 1607
24.3199995234609 1650
24.3399995230138 1725
24.3599995225668 1706
24.3799995221198 1751
24.3999995216727 1712
24.4199995212257 1689
24.4399995207787 1732
24.4599995203316 1721
24.4799995198846 1616
24.4999995194376 1694
24.5199995189905 1698
24.5399995185435 1657
24.5599995180964 1720
24.5799995176494 1646
24.5999995172024 1674
24.6199995167553 1704
24.6399995163083 1679
24.6599995158613 1660
24.6799995154142 1712
24.6999995149672 1674
24.7199995145202 1715
24.7399995140731 1727
24.7599995136261 1794
24.7799995131791 1842
24.799999512732 1847
24.819999512285 2086
24.839999511838 2081
24.8599995113909 2302
24.8799995109439 2264
24.8999995104969 2132
24.9199995100498 2010
24.9399995096028 1886
24.9599995091558 1864
24.9799995087087 1677
24.9999995082617 1668
25.0199995078146 1606
25.0399995073676 1652
25.0599995069206 1566
25.0799995064735 1618
25.0999995060265 1553
25.1199995055795 1642
25.1399995051324 1621
25.1599995046854 1631
25.1799995042384 1575
25.1999995037913 1561
25.2199995033443 1563
25.2399995028973 1578
25.2599995024502 1614
25.2799995020032 1582
25.2999995015562 1628
25.3199995011091 1604
25.3399995006621 1620
25.3599995002151 1707
25.379999499768 1724
25.399999499321 1681
25.4199994988739 1771
25.4399994984269 1786
25.4599994979799 1910
25.4799994975328 2078
25.4999994970858 2333
25.5199994966388 2527
25.5399994961917 2633
25.5599994957447 2435
25.5799994952977 2255
25.5999994948506 2113
25.6199994944036 1894
25.6399994939566 1860
25.6599994935095 1638
25.6799994930625 1548
25.6999994926155 1499
25.7199994921684 1584
25.7399994917214 1646
25.7599994912744 1633
25.7799994908273 1618
25.7999994903803 1656
25.8199994899333 1604
25.8399994894862 1546
25.8599994890392 1548
25.8799994885921 1553
25.8999994881451 1521
25.9199994876981 1496
25.939999487251 1489
25.959999486804 1561
25.979999486357 1520
25.9999994859099 1516
26.0199994854629 1490
26.0399994850159 1449
26.0599994845688 1412
26.0799994841218 1422
26.0999994836748 1452
26.1199994832277 1435
26.1399994827807 1464
26.1599994823337 1507
26.1799994818866 1487
26.1999994814396 1393
26.2199994809926 1467
26.2399994805455 1420
26.2599994800985 1399
26.2799994796514 1481
26.2999994792044 1418
26.3199994787574 1427
26.3399994783103 1406
26.3599994778633 1455
26.3799994774163 1394
26.3999994769692 1403
26.4199994765222 1398
26.4399994760752 1494
26.4599994756281 1476
26.4799994751811 1441
26.4999994747341 1497
26.519999474287 1623
26.53999947384 1583
26.559999473393 1681
26.5799994729459 1853
26.5999994724989 2036
26.6199994720519 2054
26.6399994716048 1847
26.6599994711578 1820
26.6799994707108 1665
26.6999994702637 1545
26.7199994698167 1549
26.7399994693697 1427
26.7599994689226 1381
26.7799994684756 1381
26.7999994680285 1367
26.8199994675815 1366
26.8399994671345 1395
26.8599994666874 1395
26.8799994662404 1378
26.8999994657934 1307
26.9199994653463 1398
26.9399994648993 1277
26.9599994644523 1381
26.9799994640052 1382
26.9999994635582 1367
27.0199994631112 1354
27.0399994626641 1309
27.0599994622171 1306
27.0799994617701 1360
27.099999461323 1275
27.119999460876 1413
27.139999460429 1343
27.1599994599819 1384
27.1799994595349 1345
27.1999994590878 1377
27.2199994586408 1276
27.2399994581938 1394
27.2599994577467 1338
27.2799994572997 1439
27.2999994568527 1394
27.3199994564056 1485
27.3399994559586 1455
27.3599994555116 1567
27.3799994550645 1718
27.3999994546175 1807
27.4199994541705 1937
27.4399994537234 2105
27.4599994532764 2016
27.4799994528294 1870
27.4999994523823 1741
27.5199994519353 1653
27.5399994514883 1491
27.5599994510412 1413
27.5799994505942 1378
27.5999994501472 1374
27.6199994497001 1299
27.6399994492531 1372
27.659999448806 1339
27.679999448359 1275
27.699999447912 1271
27.7199994474649 1296
27.7399994470179 1343
27.7599994465709 1232
27.7799994461238 1226
27.7999994456768 1249
27.8199994452298 1289
27.8399994447827 1307
27.8599994443357 1253
27.8799994438887 1253
27.8999994434416 1223
27.9199994429946 1259
27.9399994425476 1268
27.9599994421005 1276
27.9799994416535 1270
27.9999994412065 1205
28.0199994407594 1234
28.0399994403124 1265
28.0599994398654 1307
28.0799994394183 1261
28.0999994389713 1267
28.1199994385242 1340
28.1399994380772 1362
28.1599994376302 1345
28.1799994371831 1448
28.1999994367361 1342
28.2199994362891 1513
28.239999435842 1508
28.259999435395 1502
28.279999434948 1498
28.2999994345009 1366
28.3199994340539 1424
28.3399994336069 1361
28.3599994331598 1283
28.3799994327128 1238
28.3999994322658 1264
28.4199994318187 1312
28.4399994313717 1260
28.4599994309247 1236
28.4799994304776 1287
28.4999994300306 1245
28.5199994295835 1267
28.5399994291365 1231
28.5599994286895 1217
28.5799994282424 1225
28.5999994277954 1230
28.6199994273484 1215
28.6399994269013 1240
28.6599994264543 1277
28.6799994260073 1265
28.6999994255602 1239
28.7199994251132 1333
28.7399994246662 1358
28.7599994242191 1368
28.7799994237721 1483
28.7999994233251 1598
28.819999422878 1731
28.839999422431 1792
28.859999421984 1734
28.8799994215369 1662
28.8999994210899 1571
28.9199994206429 1598
28.9399994201958 1471
28.9599994197488 1470
28.9799994193017 1447
28.9999994188547 1576
29.0199994184077 1635
29.0399994179606 1823
29.0599994175136 1684
29.0799994170666 1645
29.0999994166195 1489
29.1199994161725 1365
29.1399994157255 1347
29.1599994152784 1262
29.1799994148314 1210
29.1999994143844 1197
29.2199994139373 1190
29.2399994134903 1161
29.2599994130433 1128
29.2799994125962 1088
29.2999994121492 1177
29.3199994117022 1150
29.3399994112551 1210
29.3599994108081 1151
29.379999410361 1161
29.399999409914 1159
29.419999409467 1213
29.4399994090199 1154
29.4599994085729 1164
29.4799994081259 1138
29.4999994076788 1131
29.5199994072318 1179
29.5399994067848 1137
29.5599994063377 1076
29.5799994058907 1140
29.5999994054437 1162
29.6199994049966 1117
29.6399994045496 1113
29.6599994041026 1152
29.6799994036555 1145
29.6999994032085 1112
29.7199994027615 1145
29.7399994023144 1137
29.7599994018674 1122
29.7799994014204 1181
29.7999994009733 1112
29.8199994005263 1193
29.8399994000793 1131
29.8599993996322 1171
29.8799993991852 1118
29.8999993987381 1148
29.9199993982911 1168
29.9399993978441 1131
29.959999397397 1092
29.97999939695 1111
29.999999396503 1140
