3 1849
3.01999999955297 1786
3.03999999910593 1641
3.0599999986589 1467
3.07999999821186 1544
3.09999999776483 1454
3.11999999731779 1416
3.13999999687076 1337
3.15999999642372 1372
3.17999999597669 1379
3.19999999552965 1309
3.21999999508262 1330
3.23999999463558 1256
3.25999999418855 1338
3.27999999374151 1263
3.29999999329448 1243
3.31999999284744 1250
3.33999999240041 1236
3.35999999195337 1246
3.37999999150634 1178
3.3999999910593 1208
3.41999999061227 1179
3.43999999016523 1205
3.4599999897182 1200
3.47999998927116 1116
3.49999998882413 1154
3.51999998837709 1150
3.53999998793006 1150
3.55999998748302 1065
3.57999998703599 1084
3.59999998658895 1093
3.61999998614192 1030
3.63999998569489 1075
3.65999998524785 1040
3.67999998480082 1068
3.69999998435378 1103
3.71999998390675 1091
3.73999998345971 1066
3.75999998301268 1025
3.77999998256564 1006
3.79999998211861 997
3.81999998167157 981
3.83999998122454 965
3.8599999807775 979
3.87999998033047 1051
3.89999997988343 925
3.9199999794364 967
3.93999997898936 954
3.95999997854233 924
3.97999997809529 960
3.99999997764826 961
4.01999997720122 983
4.03999997675419 908
4.05999997630715 885
4.07999997586012 844
4.09999997541308 867
4.11999997496605 899
4.13999997451901 868
4.15999997407198 892
4.17999997362494 921
4.19999997317791 837
4.21999997273087 883
4.23999997228384 824
4.25999997183681 828
4.27999997138977 819
4.29999997094274 822
4.3199999704957 816
4.33999997004867 802
4.35999996960163 850
4.3799999691546 809
4.39999996870756 812
4.41999996826053 828
4.43999996781349 807
4.45999996736646 820
4.47999996691942 771
4.49999996647239 749
4.51999996602535 812
4.53999996557832 792
4.55999996513128 751
4.57999996468425 771
4.59999996423721 731
4.61999996379018 766
4.63999996334314 723
4.65999996289611 724
4.67999996244907 719
4.69999996200204 765
4.719999961555 717
4.73999996110797 697
4.75999996066093 742
4.7799999602139 709
4.79999995976686 665
4.81999995931983 744
4.83999995887279 722
4.85999995842576 735
4.87999995797873 748
4.89999995753169 744
4.91999995708466 728
4.93999995663762 693
4.95999995619059 705
4.97999995574355 718
4.99999995529652 722
5.01999995484948 745
5.03999995440245 755
5.05999995395541 716
5.07999995350838 739
5.09999995306134 748
5.11999995261431 738
5.13999995216727 736
5.15999995172024 734
5.1799999512732 722
5.19999995082617 760
5.21999995037913 728
5.2399999499321 752
5.25999994948506 782
5.27999994903803 786
5.29999994859099 722
5.31999994814396 728
5.33999994769692 785
5.35999994724989 816
5.37999994680285 766
5.39999994635582 816
5.41999994590878 818
5.43999994546175 797
5.45999994501471 865
5.47999994456768 834
5.49999994412065 855
5.51999994367361 850
5.53999994322658 877
5.55999994277954 852
5.57999994233251 922
5.59999994188547 908
5.61999994143844 981
5.6399999409914 1044
5.65999994054437 1047
5.67999994009733 1058
5.6999999396503 1147
5.71999993920326 1153
5.73999993875623 1275
5.75999993830919 1355
5.77999993786216 1503
5.79999993741512 1617
5.81999993696809 1690
5.83999993652105 1565
5.85999993607402 1395
5.87999993562698 1056
5.89999993517995 800
5.91999993473291 736
5.93999993428588 741
5.95999993383884 734
5.97999993339181 775
5.99999993294477 774
6.01999993249774 746
6.0399999320507 756
6.05999993160367 753
6.07999993115663 723
6.0999999307096 772
6.11999993026257 754
6.13999992981553 737
6.1599999293685 763
6.17999992892146 716
6.19999992847443 683
6.21999992802739 772
6.23999992758036 764
6.25999992713332 750
6.27999992668629 787
6.29999992623925 772
6.31999992579222 779
6.33999992534518 819
6.35999992489815 741
6.37999992445111 815
6.39999992400408 748
6.41999992355704 803
6.43999992311001 837
6.45999992266297 807
6.47999992221594 839
6.4999999217689 847
6.51999992132187 856
6.53999992087483 913
6.5599999204278 916
6.57999991998076 965
6.59999991953373 980
6.61999991908669 1065
6.63999991863966 1145
6.65999991819262 1240
6.67999991774559 1345
6.69999991729855 1355
6.71999991685152 1220
6.73999991640449 1080
6.75999991595745 984
6.77999991551042 809
6.79999991506338 742
6.81999991461635 744
6.83999991416931 751
6.85999991372228 746
6.87999991327524 810
6.89999991282821 767
6.91999991238117 734
6.93999991193414 748
6.9599999114871 775
6.97999991104007 792
6.99999991059303 746
7.019999910146 760
7.03999990969896 777
7.05999990925193 784
7.07999990880489 780
7.09999990835786 788
7.11999990791082 815
7.13999990746379 773
7.15999990701675 805
7.17999990656972 823
7.19999990612268 818
7.21999990567565 830
7.23999990522861 820
7.25999990478158 892
7.27999990433454 943
7.29999990388751 944
7.31999990344047 924
7.33999990299344 995
7.35999990254641 994
7.37999990209937 1079
7.39999990165234 1098
7.4199999012053 1240
7.43999990075827 1366
7.45999990031123 1481
7.4799998998642 1488
7.49999989941716 1441
7.51999989897013 1294
7.53999989852309 1103
7.55999989807606 887
7.57999989762902 748
7.59999989718199 770
7.61999989673495 722
7.63999989628792 723
7.65999989584088 767
7.67999989539385 746
7.69999989494681 714
7.71999989449978 757
7.73999989405274 718
7.75999989360571 695
7.77999989315867 768
7.79999989271164 693
7.8199998922646 750
7.83999989181757 724
7.85999989137053 698
7.8799998909235 748
7.89999989047646 685
7.91999989002943 703
7.9399998895824 685
7.95999988913536 701
7.97999988868833 672
7.99999988824129 736
8.01999988779426 720
8.03999988734722 784
8.05999988690019 765
8.07999988645315 732
8.09999988600612 710
8.11999988555908 716
8.13999988511205 729
8.15999988466501 761
8.17999988421798 695
8.19999988377094 759
8.21999988332391 740
8.23999988287687 733
8.25999988242984 748
8.2799998819828 748
8.29999988153577 785
8.31999988108873 757
8.3399998806417 759
8.35999988019466 810
8.37999987974763 813
8.39999987930059 809
8.41999987885356 849
8.43999987840652 830
8.45999987795949 797
8.47999987751245 830
8.49999987706542 891
8.51999987661839 873
8.53999987617135 944
8.55999987572432 1013
8.57999987527728 1079
8.59999987483025 1090
8.61999987438321 1107
8.63999987393618 1116
8.65999987348914 1000
8.67999987304211 858
8.69999987259507 829
8.71999987214804 759
8.739999871701 722
8.75999987125397 753
8.77999987080693 727
8.7999998703599 735
8.81999986991286 740
8.83999986946583 731
8.85999986901879 721
8.87999986857176 696
8.89999986812472 709
8.91999986767769 732
8.93999986723065 695
8.95999986678362 735
8.97999986633658 786
8.99999986588955 713
9.01999986544251 733
9.03999986499548 707
9.05999986454844 767
9.07999986410141 811
9.09999986365438 774
9.11999986320734 801
9.13999986276031 760
9.15999986231327 805
9.17999986186624 847
9.1999998614192 776
9.21999986097217 874
9.23999986052513 899
9.2599998600781 872
9.27999985963106 920
9.29999985918403 1021
9.31999985873699 1016
9.33999985828996 1066
9.35999985784292 1134
9.37999985739589 1332
9.39999985694885 1377
9.41999985650182 1422
9.43999985605478 1279
9.45999985560775 1180
9.47999985516071 936
9.49999985471368 848
9.51999985426664 797
9.53999985381961 725
9.55999985337257 767
9.57999985292554 731
9.5999998524785 702
9.61999985203147 747
9.63999985158443 702
9.6599998511374 746
9.67999985069037 713
9.69999985024333 732
9.7199998497963 762
9.73999984934926 688
9.75999984890223 779
9.77999984845519 676
9.79999984800816 725
9.81999984756112 746
9.83999984711409 686
9.85999984666705 691
9.87999984622002 711
9.89999984577298 718
9.91999984532595 740
9.93999984487891 715
9.95999984443188 750
9.97999984398484 745
9.99999984353781 747
10.0199998430908 711
10.0399998426437 761
10.0599998421967 715
10.0799998417497 710
10.0999998413026 761
10.1199998408556 792
10.1399998404086 691
10.1599998399615 741
10.1799998395145 715
10.1999998390675 746
10.2199998386204 762
10.2399998381734 710
10.2599998377264 725
10.2799998372793 724
10.2999998368323 754
10.3199998363853 746
10.3399998359382 789
10.3599998354912 772
10.3799998350441 724
10.3999998345971 738
10.4199998341501 729
10.439999833703 791
10.459999833256 765
10.479999832809 789
10.4999998323619 777
10.5199998319149 780
10.5399998314679 747
10.5599998310208 769
10.5799998305738 752
10.5999998301268 754
10.6199998296797 784
10.6399998292327 739
10.6599998287857 797
10.6799998283386 792
10.6999998278916 862
10.7199998274446 773
10.7399998269975 859
10.7599998265505 838
10.7799998261034 855
10.7999998256564 854
10.8199998252094 886
10.8399998247623 903
10.8599998243153 907
10.8799998238683 953
10.8999998234212 963
10.9199998229742 1049
10.9399998225272 1125
10.9599998220801 1296
10.9799998216331 1458
10.9999998211861 1435
11.019999820739 1559
11.039999820292 1514
11.059999819845 1364
11.0799998193979 1156
11.0999998189509 1006
11.1199998185039 909
11.1399998180568 789
11.1599998176098 874
11.1799998171628 830
11.1999998167157 810
11.2199998162687 812
11.2399998158216 811
11.2599998153746 812
11.2799998149276 807
11.2999998144805 820
11.3199998140335 863
11.3399998135865 890
11.3599998131394 918
11.3799998126924 872
11.3999998122454 920
11.4199998117983 927
11.4399998113513 988
11.4599998109043 1107
11.4799998104572 1131
11.4999998100102 1168
11.5199998095632 1280
11.5399998091161 1188
11.5599998086691 1017
11.5799998082221 931
11.599999807775 900
11.619999807328 813
11.639999806881 813
11.6599998064339 855
11.6799998059869 838
11.6999998055398 807
11.7199998050928 829
11.7399998046458 832
11.7599998041987 819
11.7799998037517 850
11.7999998033047 835
11.8199998028576 818
11.8399998024106 827
11.8599998019636 812
11.8799998015165 824
11.8999998010695 839
11.9199998006225 833
11.9399998001754 852
11.9599997997284 888
11.9799997992814 887
11.9999997988343 834
12.0199997983873 882
12.0399997979403 891
12.0599997974932 924
12.0799997970462 983
12.0999997965992 983
12.1199997961521 1023
12.1399997957051 1011
12.159999795258 963
12.179999794811 970
12.199999794364 954
12.2199997939169 925
12.2399997934699 895
12.2599997930229 869
12.2799997925758 808
12.2999997921288 827
12.3199997916818 841
12.3399997912347 801
12.3599997907877 869
12.3799997903407 865
12.3999997898936 837
12.4199997894466 857
12.4399997889996 818
12.4599997885525 846
12.4799997881055 889
12.4999997876585 807
12.5199997872114 808
12.5399997867644 901
12.5599997863173 870
12.5799997858703 822
12.5999997854233 878
12.6199997849762 836
12.6399997845292 873
12.6599997840822 864
12.6799997836351 938
12.6999997831881 919
12.7199997827411 835
12.739999782294 939
12.759999781847 922
12.7799997814 851
12.7999997809529 898
12.8199997805059 856
12.8399997800589 872
12.8599997796118 866
12.8799997791648 944
12.8999997787178 856
12.9199997782707 928
12.9399997778237 891
12.9599997773767 897
12.9799997769296 904
12.9999997764826 907
13.0199997760355 884
13.0399997755885 904
13.0599997751415 955
13.0799997746944 899
13.0999997742474 941
13.1199997738004 931
13.1399997733533 992
13.1599997729063 907
13.1799997724593 950
13.1999997720122 1044
13.2199997715652 1071
13.2399997711182 1109
13.2599997706711 1047
13.2799997702241 1137
13.2999997697771 1064
13.31999976933 1034
13.339999768883 957
13.359999768436 969
13.3799997679889 977
13.3999997675419 985
13.4199997670949 929
13.4399997666478 942
13.4599997662008 907
13.4799997657537 907
13.4999997653067 969
13.5199997648597 929
13.5399997644126 956
13.5599997639656 991
13.5799997635186 960
13.5999997630715 975
13.6199997626245 937
13.6399997621775 1010
13.6599997617304 942
13.6799997612834 928
13.6999997608364 960
13.7199997603893 989
13.7399997599423 988
13.7599997594953 989
13.7799997590482 990
13.7999997586012 1003
13.8199997581542 953
13.8399997577071 980
13.8599997572601 1039
13.879999756813 943
13.899999756366 1013
13.919999755919 1038
13.9399997554719 1053
13.9599997550249 1011
13.9799997545779 1034
13.9999997541308 1021
14.0199997536838 1009
14.0399997532368 1051
14.0599997527897 1012
14.0799997523427 1078
14.0999997518957 1064
14.1199997514486 1041
14.1399997510016 1134
14.1599997505546 1115
14.1799997501075 1135
14.1999997496605 1128
14.2199997492135 1159
14.2399997487664 1189
14.2599997483194 1249
14.2799997478724 1090
14.2999997474253 1108
14.3199997469783 1102
14.3399997465312 1095
14.3599997460842 1106
14.3799997456372 1174
14.3999997451901 1126
14.4199997447431 1200
14.4399997442961 1225
14.459999743849 1228
14.479999743402 1255
14.499999742955 1228
14.5199997425079 1112
14.5399997420609 1163
14.5599997416139 1163
14.5799997411668 1190
14.5999997407198 1109
14.6199997402728 1115
14.6399997398257 1095
14.6599997393787 1155
14.6799997389317 1140
14.6999997384846 1159
14.7199997380376 1114
14.7399997375906 1205
14.7599997371435 1159
14.7799997366965 1145
14.7999997362494 1214
14.8199997358024 1132
14.8399997353554 1236
14.8599997349083 1222
14.8799997344613 1233
14.8999997340143 1261
14.9199997335672 1180
14.9399997331202 1189
14.9599997326732 1155
14.9799997322261 1175
14.9999997317791 1154
15.0199997313321 1180
15.039999730885 1141
15.059999730438 1178
15.079999729991 1140
15.0999997295439 1181
15.1199997290969 1155
15.1399997286499 1135
15.1599997282028 1155
15.1799997277558 1218
15.1999997273088 1206
15.2199997268617 1222
15.2399997264147 1204
15.2599997259676 1244
15.2799997255206 1220
15.2999997250736 1225
15.3199997246265 1229
15.3399997241795 1224
15.3599997237325 1204
15.3799997232854 1321
15.3999997228384 1213
15.4199997223914 1267
15.4399997219443 1198
15.4599997214973 1232
15.4799997210503 1255
15.4999997206032 1247
15.5199997201562 1322
15.5399997197092 1238
15.5599997192621 1323
15.5799997188151 1337
15.5999997183681 1305
15.619999717921 1307
15.639999717474 1333
15.659999717027 1283
15.6799997165799 1350
15.6999997161329 1315
15.7199997156858 1257
15.7399997152388 1248
15.7599997147918 1378
15.7799997143447 1365
15.7999997138977 1382
15.8199997134507 1345
15.8399997130036 1327
15.8599997125566 1385
15.8799997121096 1297
15.8999997116625 1322
15.9199997112155 1339
15.9399997107685 1368
15.9599997103214 1389
15.9799997098744 1421
15.9999997094274 1378
16.0199997089803 1362
16.0399997085333 1382
16.0599997080863 1405
16.0799997076392 1366
16.0999997071922 1394
16.1199997067451 1342
16.1399997062981 1399
16.1599997058511 1477
16.179999705404 1454
16.199999704957 1400
16.21999970451 1426
16.2399997040629 1469
16.2599997036159 1425
16.2799997031689 1499
16.2999997027218 1471
16.3199997022748 1440
16.3399997018278 1425
16.3599997013807 1529
16.3799997009337 1491
16.3999997004867 1526
16.4199997000396 1480
16.4399996995926 1431
16.4599996991456 1480
16.4799996986985 1482
16.4999996982515 1458
16.5199996978045 1484
16.5399996973574 1440
16.5599996969104 1505
16.5799996964633 1544
16.5999996960163 1551
16.6199996955693 1559
16.6399996951222 1497
16.6599996946752 1507
16.6799996942282 1507
16.6999996937811 1539
16.7199996933341 1534
16.7399996928871 1554
16.75999969244 1586
16.779999691993 1617
16.799999691546 1688
16.8199996910989 1633
16.8399996906519 1536
16.8599996902049 1569
16.8799996897578 1546
16.8999996893108 1533
16.9199996888638 1646
16.9399996884167 1642
16.9599996879697 1583
16.9799996875226 1680
16.9999996870756 1602
17.0199996866286 1574
17.0399996861815 1738
17.0599996857345 1688
17.0799996852875 1697
17.0999996848404 1750
17.1199996843934 1817
17.1399996839464 1842
17.1599996834993 1892
17.1799996830523 1896
17.1999996826053 1886
17.2199996821582 1877
17.2399996817112 1953
17.2599996812642 1880
17.2799996808171 1846
17.2999996803701 1781
17.3199996799231 1774
17.339999679476 1756
17.359999679029 1729
17.379999678582 1774
17.3999996781349 1765
17.4199996776879 1676
17.4399996772408 1730
17.4599996767938 1734
17.4799996763468 1720
17.4999996758997 1716
17.5199996754527 1768
17.5399996750057 1727
17.5599996745586 1728
17.5799996741116 1733
17.5999996736646 1703
17.6199996732175 1776
17.6399996727705 1788
17.6599996723235 1809
17.6799996718764 1822
17.6999996714294 1776
17.7199996709824 1764
17.7399996705353 1838
17.7599996700883 1760
17.7799996696413 1791
17.7999996691942 1739
17.8199996687472 1867
17.8399996683002 1875
17.8599996678531 1888
17.8799996674061 1831
17.899999666959 1857
17.919999666512 1942
17.939999666065 1910
17.9599996656179 1863
17.9799996651709 1840
17.9999996647239 1872
18.0199996642768 1889
18.0399996638298 1932
18.0599996633828 1942
18.0799996629357 1864
18.0999996624887 1913
18.1199996620417 1865
18.1399996615946 1948
18.1599996611476 1918
18.1799996607006 1869
18.1999996602535 1880
18.2199996598065 1954
18.2399996593595 1928
18.2599996589124 1970
18.2799996584654 1953
18.2999996580184 2010
18.3199996575713 1980
18.3399996571243 1927
18.3599996566772 1935
18.3799996562302 1951
18.3999996557832 1961
18.4199996553361 2014
18.4399996548891 1992
18.4599996544421 1993
18.479999653995 2069
18.499999653548 2012
18.519999653101 2021
18.5399996526539 2011
18.5599996522069 2011
18.5799996517599 1994
18.5999996513128 2062
18.6199996508658 2064
18.6399996504188 2053
18.6599996499717 2113
18.6799996495247 2238
18.6999996490777 2206
18.7199996486306 2081
18.7399996481836 2206
18.7599996477366 2167
18.7799996472895 2127
18.7999996468425 2104
18.8199996463954 2183
18.8399996459484 2062
18.8599996455014 2153
18.8799996450543 2158
18.8999996446073 2093
18.9199996441603 2135
18.9399996437132 2086
18.9599996432662 2063
18.9799996428192 2110
18.9999996423721 2194
19.0199996419251 2164
19.0399996414781 2067
19.059999641031 2101
19.079999640584 2195
19.099999640137 2111
19.1199996396899 2202
19.1399996392429 2140
19.1599996387959 2169
19.1799996383488 2258
19.1999996379018 2210
19.2199996374547 2243
19.2399996370077 2247
19.2599996365607 2286
19.2799996361136 2192
19.2999996356666 2175
19.3199996352196 2238
19.3399996347725 2169
19.3599996343255 2184
19.3799996338785 2293
19.3999996334314 2300
19.4199996329844 2282
19.4399996325374 2271
19.4599996320903 2309
19.4799996316433 2315
19.4999996311963 2339
19.5199996307492 2408
19.5399996303022 2331
19.5599996298552 2510
19.5799996294081 2501
19.5999996289611 2605
19.6199996285141 2796
19.639999628067 2855
19.65999962762 2758
19.6799996271729 2666
19.6999996267259 2597
19.7199996262789 2475
19.7399996258318 2486
19.7599996253848 2361
19.7799996249378 2391
19.7999996244907 2472
19.8199996240437 2467
19.8399996235967 2566
19.8599996231496 2750
19.8799996227026 2812
19.8999996222556 2975
19.9199996218085 3115
19.9399996213615 3058
19.9599996209145 2907
19.9799996204674 2819
19.9999996200204 2531
20.0199996195734 2509
20.0399996191263 2450
20.0599996186793 2356
20.0799996182322 2267
20.0999996177852 2273
20.1199996173382 2357
20.1399996168911 2333
20.1599996164441 2286
20.1799996159971 2377
20.19999961555 2357
20.219999615103 2236
20.239999614656 2346
20.2599996142089 2357
20.2799996137619 2349
20.2999996133149 2373
20.3199996128678 2347
20.3399996124208 2339
20.3599996119738 2349
20.3799996115267 2336
20.3999996110797 2312
20.4199996106327 2423
20.4399996101856 2315
20.4599996097386 2344
20.4799996092916 2264
20.4999996088445 2247
20.5199996083975 2340
20.5399996079504 2305
20.5599996075034 2241
20.5799996070564 2317
20.5999996066093 2265
20.6199996061623 2316
20.6399996057153 2380
20.6599996052682 2371
20.6799996048212 2334
20.6999996043742 2306
20.7199996039271 2355
20.7399996034801 2321
20.7599996030331 2370
20.779999602586 2418
20.799999602139 2404
20.819999601692 2306
20.8399996012449 2419
20.8599996007979 2475
20.8799996003509 2382
20.8999995999038 2435
20.9199995994568 2417
20.9399995990098 2431
20.9599995985627 2460
20.9799995981157 2449
20.9999995976686 2366
21.0199995972216 2488
21.0399995967746 2558
21.0599995963275 2395
21.0799995958805 2358
21.0999995954335 2434
21.1199995949864 2476
21.1399995945394 2365
21.1599995940924 2331
21.1799995936453 2311
21.1999995931983 2448
21.2199995927513 2354
21.2399995923042 2278
21.2599995918572 2286
21.2799995914102 2354
21.2999995909631 2372
21.3199995905161 2327
21.3399995900691 2297
21.359999589622 2345
21.379999589175 2312
21.399999588728 2366
21.4199995882809 2371
21.4399995878339 2280
21.4599995873868 2258
21.4799995869398 2347
21.4999995864928 2320
21.5199995860457 2299
21.5399995855987 2285
21.5599995851517 2270
21.5799995847046 2385
21.5999995842576 2377
21.6199995838106 2349
21.6399995833635 2314
21.6599995829165 2343
21.6799995824695 2349
21.6999995820224 2395
21.7199995815754 2378
21.7399995811284 2471
21.7599995806813 2561
21.7799995802343 2635
21.7999995797873 2566
21.8199995793402 2533
21.8399995788932 2458
21.8599995784462 2473
21.8799995779991 2363
21.8999995775521 2394
21.919999577105 2263
21.939999576658 2414
21.959999576211 2294
21.9799995757639 2256
21.9999995753169 2339
22.0199995748699 2380
22.0399995744228 2213
22.0599995739758 2366
22.0799995735288 2266
22.0999995730817 2286
22.1199995726347 2322
22.1399995721877 2334
22.1599995717406 2263
22.1799995712936 2312
22.1999995708466 2338
22.2199995703995 2389
22.2399995699525 2380
22.2599995695055 2431
22.2799995690584 2435
22.2999995686114 2513
22.3199995681643 2512
22.3399995677173 2502
22.3599995672703 2443
22.3799995668232 2540
22.3999995663762 2369
22.4199995659292 2357
22.4399995654821 2240
22.4599995650351 2327
22.4799995645881 2247
22.499999564141 2227
22.519999563694 2237
22.539999563247 2155
22.5599995627999 2223
22.5799995623529 2257
22.5999995619059 2173
22.6199995614588 2241
22.6399995610118 2190
22.6599995605648 2263
22.6799995601177 2160
22.6999995596707 2235
22.7199995592237 2202
22.7399995587766 2208
22.7599995583296 2190
22.7799995578825 2079
22.7999995574355 2216
22.8199995569885 2166
22.8399995565414 2203
22.8599995560944 2159
22.8799995556474 2266
22.8999995552003 2220
22.9199995547533 2186
22.9399995543063 2214
22.9599995538592 2212
22.9799995534122 2239
22.9999995529652 2258
23.0199995525181 2356
23.0399995520711 2301
23.0599995516241 2265
23.079999551177 2223
23.09999955073 2113
23.119999550283 2204
23.1399995498359 2133
23.1599995493889 2101
23.1799995489418 2151
23.1999995484948 2159
23.2199995480478 2088
23.2399995476007 2118
23.2599995471537 2071
23.2799995467067 2141
23.2999995462596 2038
23.3199995458126 2129
23.3399995453656 2171
23.3599995449185 2121
23.3799995444715 2129
23.3999995440245 2165
23.4199995435774 2063
23.4399995431304 2026
23.4599995426834 2097
23.4799995422363 2079
23.4999995417893 2068
23.5199995413423 2117
23.5399995408952 2076
23.5599995404482 2104
23.5799995400012 2181
23.5999995395541 2126
23.6199995391071 2175
23.63999953866 2221
23.659999538213 2195
23.679999537766 2405
23.6999995373189 2554
23.7199995368719 2689
23.7399995364249 2720
23.7599995359778 2762
23.7799995355308 2689
23.7999995350838 2544
23.8199995346367 2400
23.8399995341897 2239
23.8599995337427 2252
23.8799995332956 2163
23.8999995328486 2021
23.9199995324016 2132
23.9399995319545 2175
23.9599995315075 2119
23.9799995310605 2093
23.9999995306134 2161
24.0199995301664 2145
24.0399995297194 2018
24.0599995292723 2095
24.0799995288253 1991
24.0999995283782 1988
24.1199995279312 2037
24.1399995274842 1932
24.1599995270371 1984
24.1799995265901 1964
24.1999995261431 2020
24.219999525696 2007
24.239999525249 2002
24.259999524802 2007
24.2799995243549 2047
24.2999995239079 1987
24.3199995234609 2005
24.3399995230138 2015
24.3599995225668 1977
24.3799995221198 1987
24.3999995216727 2050
24.4199995212257 1995
24.4399995207787 1887
24.4599995203316 1916
24.4799995198846 1946
24.4999995194376 1844
24.5199995189905 1841
24.5399995185435 1969
24.5599995180964 1870
24.5799995176494 1907
24.5999995172024 1897
24.6199995167553 1914
24.6399995163083 1864
24.6599995158613 1927
24.6799995154142 1863
24.6999995149672 1929
24.7199995145202 1894
24.7399995140731 1955
24.7599995136261 1996
24.7799995131791 2015
24.799999512732 2026
24.819999512285 2056
24.839999511838 2087
24.8599995113909 2281
24.8799995109439 2332
24.8999995104969 2393
24.9199995100498 2334
24.9399995096028 2209
24.9599995091558 2191
24.9799995087087 2005
24.9999995082617 1948
25.0199995078146 1922
25.0399995073676 1831
25.0599995069206 1923
25.0799995064735 1842
25.0999995060265 1864
25.1199995055795 1836
25.1399995051324 1899
25.1599995046854 1858
25.1799995042384 1815
25.1999995037913 1830
25.2199995033443 1781
25.2399995028973 1895
25.2599995024502 1865
25.2799995020032 1770
25.2999995015562 1822
25.3199995011091 1841
25.3399995006621 1922
25.3599995002151 1865
25.379999499768 1907
25.399999499321 1981
25.4199994988739 2072
25.4399994984269 2188
25.4599994979799 2227
25.4799994975328 2192
25.4999994970858 2336
25.5199994966388 2413
25.5399994961917 2496
25.5599994957447 2583
25.5799994952977 2689
25.5999994948506 2531
25.6199994944036 2424
25.6399994939566 2178
25.6599994935095 2126
25.6799994930625 2013
25.6999994926155 1985
25.7199994921684 1994
25.7399994917214 2129
25.7599994912744 2294
25.7799994908273 2373
25.7999994903803 2508
25.8199994899333 2601
25.8399994894862 2554
25.8599994890392 2427
25.8799994885921 2313
25.8999994881451 2155
25.9199994876981 2059
25.939999487251 1898
25.959999486804 1806
25.979999486357 1777
25.9999994859099 1781
26.0199994854629 1768
26.0399994850159 1760
26.0599994845688 1710
26.0799994841218 1715
26.0999994836748 1736
26.1199994832277 1727
26.1399994827807 1745
26.1599994823337 1728
26.1799994818866 1663
26.1999994814396 1715
26.2199994809926 1681
26.2399994805455 1685
26.2599994800985 1734
26.2799994796514 1723
26.2999994792044 1686
26.3199994787574 1653
26.3399994783103 1720
26.3599994778633 1688
26.3799994774163 1668
26.3999994769692 1663
26.4199994765222 1740
26.4399994760752 1704
26.4599994756281 1667
26.4799994751811 1758
26.4999994747341 1735
26.519999474287 1733
26.53999947384 1811
26.559999473393 1865
26.5799994729459 1969
26.5999994724989 2051
26.6199994720519 2163
26.6399994716048 2239
26.6599994711578 2113
26.6799994707108 2080
26.6999994702637 1928
26.7199994698167 1901
26.7399994693697 1829
26.7599994689226 1722
26.7799994684756 1721
26.7999994680285 1622
26.8199994675815 1675
26.8399994671345 1642
26.8599994666874 1688
26.8799994662404 1676
26.8999994657934 1635
26.9199994653463 1657
26.9399994648993 1588
26.9599994644523 1668
26.9799994640052 1656
26.9999994635582 1589
27.0199994631112 1660
27.0399994626641 1569
27.0599994622171 1612
27.0799994617701 1601
27.099999461323 1641
27.119999460876 1602
27.139999460429 1556
27.1599994599819 1644
27.1799994595349 1577
27.1999994590878 1582
27.2199994586408 1732
27.2399994581938 1541
27.2599994577467 1740
27.2799994572997 1669
27.2999994568527 1593
27.3199994564056 1659
27.3399994559586 1707
27.3599994555116 1683
27.3799994550645 1748
27.3999994546175 1773
27.4199994541705 1996
27.4399994537234 2060
27.4599994532764 2136
27.4799994528294 2182
27.4999994523823 2026
27.5199994519353 1973
27.5399994514883 1914
27.5599994510412 1750
27.5799994505942 1740
27.5999994501472 1706
27.6199994497001 1555
27.6399994492531 1520
27.659999448806 1541
27.679999448359 1507
27.699999447912 1487
27.7199994474649 1601
27.7399994470179 1542
27.7599994465709 1510
27.7799994461238 1581
27.7999994456768 1568
27.8199994452298 1506
27.8399994447827 1507
27.8599994443357 1522
27.8799994438887 1493
27.8999994434416 1486
27.9199994429946 1457
27.9399994425476 1544
27.9599994421005 1453
27.9799994416535 1431
27.9999994412065 1501
28.0199994407594 1474
28.0399994403124 1561
28.0599994398654 1473
28.0799994394183 1544
28.0999994389713 1542
28.1199994385242 1495
28.1399994380772 1565
28.1599994376302 1513
28.1799994371831 1663
28.1999994367361 1712
28.2199994362891 1848
28.239999435842 1884
28.259999435395 2030
28.279999434948 2016
28.2999994345009 1957
28.3199994340539 1861
28.3399994336069 1804
28.3599994331598 1726
28.3799994327128 1697
28.3999994322658 1518
28.4199994318187 1529
28.4399994313717 1513
28.4599994309247 1456
28.4799994304776 1433
28.4999994300306 1466
28.5199994295835 1488
28.5399994291365 1398
28.5599994286895 1497
28.5799994282424 1411
28.5999994277954 1480
28.6199994273484 1504
28.6399994269013 1480
28.6599994264543 1454
28.6799994260073 1419
28.6999994255602 1478
28.7199994251132 1390
28.7399994246662 1506
28.7599994242191 1511
28.7799994237721 1548
28.7999994233251 1616
28.819999422878 1769
28.839999422431 1746
28.859999421984 1796
28.8799994215369 1942
28.8999994210899 1860
28.9199994206429 1859
28.9399994201958 1728
28.9599994197488 1792
28.9799994193017 1724
28.9999994188547 1731
29.0199994184077 1826
29.0399994179606 1805
29.0599994175136 1871
29.0799994170666 1858
29.0999994166195 1796
29.1199994161725 1688
29.1399994157255 1703
29.1599994152784 1596
29.1799994148314 1513
29.1999994143844 1421
29.2199994139373 1377
29.2399994134903 1408
29.2599994130433 1397
29.2799994125962 1399
29.2999994121492 1330
29.3199994117022 1361
29.3399994112551 1435
29.3599994108081 1418
29.379999410361 1291
29.399999409914 1373
29.419999409467 1365
29.4399994090199 1417
29.4599994085729 1338
29.4799994081259 1341
29.4999994076788 1362
29.5199994072318 1403
29.5399994067848 1304
29.5599994063377 1388
29.5799994058907 1414
29.5999994054437 1432
29.6199994049966 1339
29.6399994045496 1413
29.6599994041026 1375
29.6799994036555 1349
29.6999994032085 1352
29.7199994027615 1358
29.7399994023144 1339
29.7599994018674 1362
29.7799994014204 1388
29.7999994009733 1438
29.8199994005263 1427
29.8399994000793 1557
29.8599993996322 1561
29.8799993991852 1637
29.8999993987381 1674
29.9199993982911 1492
29.9399993978441 1494
29.959999397397 1515
29.97999939695 1431
29.999999396503 1424
