3 2041
3.01999999955297 1921
3.03999999910593 1838
3.0599999986589 1625
3.07999999821186 1618
3.09999999776483 1581
3.11999999731779 1519
3.13999999687076 1529
3.15999999642372 1481
3.17999999597669 1582
3.19999999552965 1451
3.21999999508262 1447
3.23999999463558 1408
3.25999999418855 1392
3.27999999374151 1370
3.29999999329448 1378
3.31999999284744 1355
3.33999999240041 1353
3.35999999195337 1416
3.37999999150634 1355
3.3999999910593 1310
3.41999999061227 1329
3.43999999016523 1266
3.4599999897182 1249
3.47999998927116 1292
3.49999998882413 1254
3.51999998837709 1308
3.53999998793006 1220
3.55999998748302 1281
3.57999998703599 1220
3.59999998658895 1267
3.61999998614192 1155
3.63999998569489 1173
3.65999998524785 1104
3.67999998480082 1092
3.69999998435378 1176
3.71999998390675 1064
3.73999998345971 1095
3.75999998301268 1131
3.77999998256564 1129
3.79999998211861 1072
3.81999998167157 1134
3.83999998122454 1091
3.8599999807775 1070
3.87999998033047 1129
3.89999997988343 1070
3.9199999794364 1113
3.93999997898936 1000
3.95999997854233 1009
3.97999997809529 1078
3.99999997764826 1043
4.01999997720122 1043
4.03999997675419 1007
4.05999997630715 956
4.07999997586012 1001
4.09999997541308 987
4.11999997496605 962
4.13999997451901 944
4.15999997407198 978
4.17999997362494 895
4.19999997317791 932
4.21999997273087 904
4.23999997228384 916
4.25999997183681 941
4.27999997138977 916
4.29999997094274 894
4.3199999704957 891
4.33999997004867 942
4.35999996960163 937
4.3799999691546 896
4.39999996870756 911
4.41999996826053 868
4.43999996781349 831
4.45999996736646 855
4.47999996691942 829
4.49999996647239 894
4.51999996602535 826
4.53999996557832 823
4.55999996513128 876
4.57999996468425 879
4.59999996423721 825
4.61999996379018 822
4.63999996334314 832
4.65999996289611 834
4.67999996244907 876
4.69999996200204 877
4.719999961555 841
4.73999996110797 893
4.75999996066093 843
4.7799999602139 882
4.79999995976686 853
4.81999995931983 843
4.83999995887279 846
4.85999995842576 887
4.87999995797873 850
4.89999995753169 823
4.91999995708466 801
4.93999995663762 863
4.95999995619059 871
4.97999995574355 885
4.99999995529652 894
5.01999995484948 893
5.03999995440245 894
5.05999995395541 908
5.07999995350838 926
5.09999995306134 986
5.11999995261431 993
5.13999995216727 1045
5.15999995172024 1003
5.1799999512732 1049
5.19999995082617 1021
5.21999995037913 1091
5.2399999499321 1130
5.25999994948506 1164
5.27999994903803 1168
5.29999994859099 1160
5.31999994814396 1221
5.33999994769692 1275
5.35999994724989 1213
5.37999994680285 1291
5.39999994635582 1386
5.41999994590878 1456
5.43999994546175 1499
5.45999994501471 1633
5.47999994456768 1630
5.49999994412065 1750
5.51999994367361 1760
5.53999994322658 1914
5.55999994277954 2007
5.57999994233251 2109
5.59999994188547 2278
5.61999994143844 2441
5.6399999409914 2536
5.65999994054437 2790
5.67999994009733 3081
5.6999999396503 3351
5.71999993920326 3791
5.73999993875623 4257
5.75999993830919 5219
5.77999993786216 6364
5.79999993741512 7309
5.81999993696809 6921
5.83999993652105 5203
5.85999993607402 3115
5.87999993562698 1775
5.89999993517995 1241
5.91999993473291 1035
5.93999993428588 1031
5.95999993383884 973
5.97999993339181 921
5.99999993294477 979
6.01999993249774 983
6.0399999320507 910
6.05999993160367 954
6.07999993115663 973
6.0999999307096 960
6.11999993026257 949
6.13999992981553 967
6.1599999293685 1012
6.17999992892146 999
6.19999992847443 984
6.21999992802739 952
6.23999992758036 1035
6.25999992713332 1044
6.27999992668629 1052
6.29999992623925 1094
6.31999992579222 1135
6.33999992534518 1141
6.35999992489815 1255
6.37999992445111 1250
6.39999992400408 1271
6.41999992355704 1382
6.43999992311001 1456
6.45999992266297 1501
6.47999992221594 1535
6.4999999217689 1578
6.51999992132187 1757
6.53999992087483 1921
6.5599999204278 2053
6.57999991998076 2210
6.59999991953373 2463
6.61999991908669 2783
6.63999991863966 3152
6.65999991819262 3743
6.67999991774559 4377
6.69999991729855 4259
6.71999991685152 3370
6.73999991640449 2115
6.75999991595745 1355
6.77999991551042 1017
6.79999991506338 914
6.81999991461635 913
6.83999991416931 864
6.85999991372228 834
6.87999991327524 837
6.89999991282821 780
6.91999991238117 808
6.93999991193414 861
6.9599999114871 802
6.97999991104007 829
6.99999991059303 763
7.019999910146 806
7.03999990969896 881
7.05999990925193 863
7.07999990880489 894
7.09999990835786 868
7.11999990791082 917
7.13999990746379 887
7.15999990701675 992
7.17999990656972 953
7.19999990612268 888
7.21999990567565 928
7.23999990522861 996
7.25999990478158 1042
7.27999990433454 999
7.29999990388751 1040
7.31999990344047 1123
7.33999990299344 1143
7.35999990254641 1145
7.37999990209937 1262
7.39999990165234 1385
7.4199999012053 1498
7.43999990075827 1625
7.45999990031123 1835
7.4799998998642 1853
7.49999989941716 1766
7.51999989897013 1409
7.53999989852309 1049
7.55999989807606 927
7.57999989762902 787
7.59999989718199 791
7.61999989673495 776
7.63999989628792 734
7.65999989584088 787
7.67999989539385 731
7.69999989494681 706
7.71999989449978 740
7.73999989405274 779
7.75999989360571 781
7.77999989315867 772
7.79999989271164 723
7.8199998922646 746
7.83999989181757 696
7.85999989137053 785
7.8799998909235 733
7.89999989047646 752
7.91999989002943 721
7.9399998895824 745
7.95999988913536 744
7.97999988868833 745
7.99999988824129 747
8.01999988779426 824
8.03999988734722 783
8.05999988690019 721
8.07999988645315 741
8.09999988600612 750
8.11999988555908 792
8.13999988511205 805
8.15999988466501 752
8.17999988421798 797
8.19999988377094 806
8.21999988332391 756
8.23999988287687 728
8.25999988242984 772
8.2799998819828 829
8.29999988153577 830
8.31999988108873 785
8.3399998806417 818
8.35999988019466 834
8.37999987974763 837
8.39999987930059 871
8.41999987885356 872
8.43999987840652 886
8.45999987795949 899
8.47999987751245 952
8.49999987706542 999
8.51999987661839 1015
8.53999987617135 1079
8.55999987572432 1071
8.57999987527728 1192
8.59999987483025 1222
8.61999987438321 1285
8.63999987393618 1232
8.65999987348914 1043
8.67999987304211 907
8.69999987259507 878
8.71999987214804 778
8.739999871701 759
8.75999987125397 782
8.77999987080693 782
8.7999998703599 806
8.81999986991286 723
8.83999986946583 840
8.85999986901879 802
8.87999986857176 799
8.89999986812472 812
8.91999986767769 795
8.93999986723065 824
8.95999986678362 908
8.97999986633658 845
8.99999986588955 861
9.01999986544251 875
9.03999986499548 912
9.05999986454844 900
9.07999986410141 988
9.09999986365438 1022
9.11999986320734 1034
9.13999986276031 1068
9.15999986231327 1152
9.17999986186624 1169
9.1999998614192 1216
9.21999986097217 1314
9.23999986052513 1422
9.2599998600781 1455
9.27999985963106 1630
9.29999985918403 1812
9.31999985873699 1991
9.33999985828996 2253
9.35999985784292 2629
9.37999985739589 3009
9.39999985694885 3318
9.41999985650182 3385
9.43999985605478 2890
9.45999985560775 2092
9.47999985516071 1393
9.49999985471368 1024
9.51999985426664 834
9.53999985381961 802
9.55999985337257 787
9.57999985292554 846
9.5999998524785 809
9.61999985203147 699
9.63999985158443 717
9.6599998511374 798
9.67999985069037 767
9.69999985024333 788
9.7199998497963 742
9.73999984934926 775
9.75999984890223 803
9.77999984845519 784
9.79999984800816 775
9.81999984756112 801
9.83999984711409 759
9.85999984666705 756
9.87999984622002 788
9.89999984577298 781
9.91999984532595 764
9.93999984487891 784
9.95999984443188 793
9.97999984398484 760
9.99999984353781 730
10.0199998430908 760
10.0399998426437 791
10.0599998421967 768
10.0799998417497 776
10.0999998413026 742
10.1199998408556 767
10.1399998404086 775
10.1599998399615 798
10.1799998395145 789
10.1999998390675 723
10.2199998386204 755
10.2399998381734 762
10.2599998377264 781
10.2799998372793 761
10.2999998368323 766
10.3199998363853 745
10.3399998359382 722
10.3599998354912 835
10.3799998350441 753
10.3999998345971 831
10.4199998341501 805
10.439999833703 800
10.459999833256 779
10.479999832809 797
10.4999998323619 794
10.5199998319149 839
10.5399998314679 822
10.5599998310208 825
10.5799998305738 837
10.5999998301268 922
10.6199998296797 870
10.6399998292327 828
10.6599998287857 923
10.6799998283386 907
10.6999998278916 972
10.7199998274446 1018
10.7399998269975 1034
10.7599998265505 1053
10.7799998261034 1109
10.7999998256564 1239
10.8199998252094 1301
10.8399998247623 1352
10.8599998243153 1531
10.8799998238683 1602
10.8999998234212 1674
10.9199998229742 1898
10.9399998225272 2059
10.9599998220801 2350
10.9799998216331 2757
10.9999998211861 3190
11.019999820739 3383
11.039999820292 3200
11.059999819845 2521
11.0799998193979 1679
11.0999998189509 1239
11.1199998185039 1087
11.1399998180568 978
11.1599998176098 948
11.1799998171628 919
11.1999998167157 964
11.2199998162687 906
11.2399998158216 935
11.2599998153746 944
11.2799998149276 976
11.2999998144805 1009
11.3199998140335 1023
11.3399998135865 1061
11.3599998131394 1096
11.3799998126924 1212
11.3999998122454 1209
11.4199998117983 1355
11.4399998113513 1546
11.4599998109043 1751
11.4799998104572 1853
11.4999998100102 2039
11.5199998095632 2027
11.5399998091161 1687
11.5599998086691 1318
11.5799998082221 1082
11.599999807775 938
11.619999807328 804
11.639999806881 878
11.6599998064339 812
11.6799998059869 811
11.6999998055398 806
11.7199998050928 844
11.7399998046458 862
11.7599998041987 829
11.7799998037517 791
11.7999998033047 767
11.8199998028576 792
11.8399998024106 826
11.8599998019636 816
11.8799998015165 824
11.8999998010695 844
11.9199998006225 855
11.9399998001754 851
11.9599997997284 850
11.9799997992814 914
11.9999997988343 889
12.0199997983873 901
12.0399997979403 885
12.0599997974932 932
12.0799997970462 930
12.0999997965992 980
12.1199997961521 950
12.1399997957051 991
12.159999795258 1006
12.179999794811 976
12.199999794364 842
12.2199997939169 855
12.2399997934699 859
12.2599997930229 853
12.2799997925758 815
12.2999997921288 804
12.3199997916818 796
12.3399997912347 769
12.3599997907877 773
12.3799997903407 809
12.3999997898936 821
12.4199997894466 829
12.4399997889996 799
12.4599997885525 788
12.4799997881055 860
12.4999997876585 814
12.5199997872114 784
12.5399997867644 794
12.5599997863173 839
12.5799997858703 803
12.5999997854233 825
12.6199997849762 818
12.6399997845292 822
12.6599997840822 818
12.6799997836351 821
12.6999997831881 848
12.7199997827411 838
12.739999782294 767
12.759999781847 879
12.7799997814 870
12.7999997809529 866
12.8199997805059 809
12.8399997800589 881
12.8599997796118 885
12.8799997791648 898
12.8999997787178 836
12.9199997782707 876
12.9399997778237 805
12.9599997773767 814
12.9799997769296 851
12.9999997764826 857
13.0199997760355 826
13.0399997755885 875
13.0599997751415 839
13.0799997746944 899
13.0999997742474 961
13.1199997738004 903
13.1399997733533 924
13.1599997729063 960
13.1799997724593 983
13.1999997720122 1022
13.2199997715652 1085
13.2399997711182 1172
13.2599997706711 1296
13.2799997702241 1236
13.2999997697771 1281
13.31999976933 1137
13.339999768883 1093
13.359999768436 959
13.3799997679889 889
13.3999997675419 836
13.4199997670949 809
13.4399997666478 834
13.4599997662008 871
13.4799997657537 862
13.4999997653067 887
13.5199997648597 847
13.5399997644126 842
13.5599997639656 870
13.5799997635186 867
13.5999997630715 867
13.6199997626245 852
13.6399997621775 808
13.6599997617304 873
13.6799997612834 901
13.6999997608364 892
13.7199997603893 858
13.7399997599423 850
13.7599997594953 846
13.7799997590482 875
13.7999997586012 907
13.8199997581542 863
13.8399997577071 878
13.8599997572601 879
13.879999756813 897
13.899999756366 889
13.919999755919 819
13.9399997554719 934
13.9599997550249 888
13.9799997545779 869
13.9999997541308 889
14.0199997536838 895
14.0399997532368 920
14.0599997527897 883
14.0799997523427 899
14.0999997518957 946
14.1199997514486 947
14.1399997510016 948
14.1599997505546 950
14.1799997501075 997
14.1999997496605 991
14.2199997492135 984
14.2399997487664 1027
14.2599997483194 1041
14.2799997478724 1009
14.2999997474253 1017
14.3199997469783 1030
14.3399997465312 980
14.3599997460842 1031
14.3799997456372 1101
14.3999997451901 1118
14.4199997447431 1152
14.4399997442961 1166
14.459999743849 1325
14.479999743402 1282
14.499999742955 1226
14.5199997425079 1049
14.5399997420609 1042
14.5599997416139 1002
14.5799997411668 935
14.5999997407198 943
14.6199997402728 897
14.6399997398257 910
14.6599997393787 892
14.6799997389317 905
14.6999997384846 974
14.7199997380376 943
14.7399997375906 952
14.7599997371435 978
14.7799997366965 1026
14.7999997362494 1028
14.8199997358024 1007
14.8399997353554 1026
14.8599997349083 1072
14.8799997344613 995
14.8999997340143 994
14.9199997335672 967
14.9399997331202 955
14.9599997326732 932
14.9799997322261 872
14.9999997317791 851
15.0199997313321 885
15.039999730885 958
15.059999730438 990
15.079999729991 928
15.0999997295439 966
15.1199997290969 922
15.1399997286499 928
15.1599997282028 917
15.1799997277558 973
15.1999997273088 932
15.2199997268617 922
15.2399997264147 956
15.2599997259676 951
15.2799997255206 1000
15.2999997250736 974
15.3199997246265 958
15.3399997241795 979
15.3599997237325 998
15.3799997232854 996
15.3999997228384 982
15.4199997223914 973
15.4399997219443 973
15.4599997214973 1007
15.4799997210503 985
15.4999997206032 1020
15.5199997201562 997
15.5399997197092 972
15.5599997192621 984
15.5799997188151 972
15.5999997183681 995
15.619999717921 1066
15.639999717474 983
15.659999717027 960
15.6799997165799 959
15.6999997161329 1016
15.7199997156858 1006
15.7399997152388 1064
15.7599997147918 976
15.7799997143447 978
15.7999997138977 1036
15.8199997134507 1026
15.8399997130036 951
15.8599997125566 999
15.8799997121096 1064
15.8999997116625 999
15.9199997112155 1029
15.9399997107685 1125
15.9599997103214 1055
15.9799997098744 999
15.9999997094274 1077
16.0199997089803 1086
16.0399997085333 1093
16.0599997080863 1036
16.0799997076392 1000
16.0999997071922 1053
16.1199997067451 1016
16.1399997062981 1059
16.1599997058511 1050
16.179999705404 1076
16.199999704957 1077
16.21999970451 1081
16.2399997040629 1010
16.2599997036159 1060
16.2799997031689 1087
16.2999997027218 1056
16.3199997022748 1084
16.3399997018278 1145
16.3599997013807 1078
16.3799997009337 1068
16.3999997004867 1057
16.4199997000396 1095
16.4399996995926 1128
16.4599996991456 1110
16.4799996986985 1107
16.4999996982515 1096
16.5199996978045 1091
16.5399996973574 1114
16.5599996969104 1119
16.5799996964633 1115
16.5999996960163 1106
16.6199996955693 1094
16.6399996951222 1177
16.6599996946752 1115
16.6799996942282 1132
16.6999996937811 1199
16.7199996933341 1124
16.7399996928871 1140
16.75999969244 1109
16.779999691993 1201
16.799999691546 1206
16.8199996910989 1163
16.8399996906519 1154
16.8599996902049 1186
16.8799996897578 1229
16.8999996893108 1193
16.9199996888638 1256
16.9399996884167 1255
16.9599996879697 1236
16.9799996875226 1367
16.9999996870756 1311
17.0199996866286 1243
17.0399996861815 1289
17.0599996857345 1306
17.0799996852875 1325
17.0999996848404 1318
17.1199996843934 1385
17.1399996839464 1344
17.1599996834993 1479
17.1799996830523 1417
17.1999996826053 1566
17.2199996821582 1580
17.2399996817112 1646
17.2599996812642 1614
17.2799996808171 1576
17.2999996803701 1486
17.3199996799231 1374
17.339999679476 1223
17.359999679029 1229
17.379999678582 1263
17.3999996781349 1178
17.4199996776879 1186
17.4399996772408 1263
17.4599996767938 1221
17.4799996763468 1218
17.4999996758997 1213
17.5199996754527 1219
17.5399996750057 1251
17.5599996745586 1255
17.5799996741116 1297
17.5999996736646 1280
17.6199996732175 1296
17.6399996727705 1266
17.6599996723235 1308
17.6799996718764 1293
17.6999996714294 1288
17.7199996709824 1337
17.7399996705353 1320
17.7599996700883 1321
17.7799996696413 1369
17.7999996691942 1247
17.8199996687472 1258
17.8399996683002 1270
17.8599996678531 1293
17.8799996674061 1407
17.899999666959 1352
17.919999666512 1314
17.939999666065 1333
17.9599996656179 1329
17.9799996651709 1417
17.9999996647239 1362
18.0199996642768 1360
18.0399996638298 1402
18.0599996633828 1370
18.0799996629357 1294
18.0999996624887 1323
18.1199996620417 1366
18.1399996615946 1290
18.1599996611476 1311
18.1799996607006 1322
18.1999996602535 1315
18.2199996598065 1369
18.2399996593595 1327
18.2599996589124 1338
18.2799996584654 1435
18.2999996580184 1445
18.3199996575713 1390
18.3399996571243 1426
18.3599996566772 1418
18.3799996562302 1356
18.3999996557832 1402
18.4199996553361 1430
18.4399996548891 1373
18.4599996544421 1437
18.479999653995 1423
18.499999653548 1434
18.519999653101 1457
18.5399996526539 1430
18.5599996522069 1477
18.5799996517599 1398
18.5999996513128 1457
18.6199996508658 1426
18.6399996504188 1424
18.6599996499717 1487
18.6799996495247 1477
18.6999996490777 1475
18.7199996486306 1540
18.7399996481836 1527
18.7599996477366 1508
18.7799996472895 1471
18.7999996468425 1477
18.8199996463954 1476
18.8399996459484 1463
18.8599996455014 1473
18.8799996450543 1475
18.8999996446073 1481
18.9199996441603 1468
18.9399996437132 1502
18.9599996432662 1538
18.9799996428192 1540
18.9999996423721 1527
19.0199996419251 1559
19.0399996414781 1491
19.059999641031 1516
19.079999640584 1516
19.099999640137 1519
19.1199996396899 1574
19.1399996392429 1552
19.1599996387959 1567
19.1799996383488 1680
19.1999996379018 1569
19.2199996374547 1540
19.2399996370077 1543
19.2599996365607 1647
19.2799996361136 1631
19.2999996356666 1543
19.3199996352196 1579
19.3399996347725 1672
19.3599996343255 1595
19.3799996338785 1589
19.3999996334314 1606
19.4199996329844 1678
19.4399996325374 1663
19.4599996320903 1662
19.4799996316433 1719
19.4999996311963 1842
19.5199996307492 1820
19.5399996303022 1850
19.5599996298552 1993
19.5799996294081 2137
19.5999996289611 2296
19.6199996285141 2480
19.639999628067 2688
19.65999962762 2607
19.6799996271729 2386
19.6999996267259 2213
19.7199996262789 2061
19.7399996258318 1958
19.7599996253848 1937
19.7799996249378 1919
19.7999996244907 1934
19.8199996240437 2106
19.8399996235967 2207
19.8599996231496 2387
19.8799996227026 2692
19.8999996222556 2961
19.9199996218085 3241
19.9399996213615 3229
19.9599996209145 2882
19.9799996204674 2428
19.9999996200204 2091
20.0199996195734 1897
20.0399996191263 1799
20.0599996186793 1749
20.0799996182322 1687
20.0999996177852 1693
20.1199996173382 1676
20.1399996168911 1601
20.1599996164441 1597
20.1799996159971 1671
20.19999961555 1695
20.219999615103 1650
20.239999614656 1718
20.2599996142089 1700
20.2799996137619 1708
20.2999996133149 1675
20.3199996128678 1681
20.3399996124208 1680
20.3599996119738 1611
20.3799996115267 1583
20.3999996110797 1705
20.4199996106327 1670
20.4399996101856 1746
20.4599996097386 1682
20.4799996092916 1640
20.4999996088445 1666
20.5199996083975 1654
20.5399996079504 1606
20.5599996075034 1690
20.5799996070564 1699
20.5999996066093 1680
20.6199996061623 1702
20.6399996057153 1669
20.6599996052682 1658
20.6799996048212 1688
20.6999996043742 1691
20.7199996039271 1670
20.7399996034801 1706
20.7599996030331 1708
20.779999602586 1691
20.799999602139 1728
20.819999601692 1710
20.8399996012449 1756
20.8599996007979 1731
20.8799996003509 1719
20.8999995999038 1765
20.9199995994568 1718
20.9399995990098 1715
20.9599995985627 1667
20.9799995981157 1761
20.9999995976686 1763
21.0199995972216 1773
21.0399995967746 1806
21.0599995963275 1829
21.0799995958805 1738
21.0999995954335 1821
21.1199995949864 1735
21.1399995945394 1627
21.1599995940924 1729
21.1799995936453 1799
21.1999995931983 1693
21.2199995927513 1685
21.2399995923042 1690
21.2599995918572 1685
21.2799995914102 1788
21.2999995909631 1752
21.3199995905161 1686
21.3399995900691 1728
21.359999589622 1676
21.379999589175 1769
21.399999588728 1674
21.4199995882809 1666
21.4399995878339 1693
21.4599995873868 1661
21.4799995869398 1753
21.4999995864928 1714
21.5199995860457 1703
21.5399995855987 1708
21.5599995851517 1743
21.5799995847046 1720
21.5999995842576 1680
21.6199995838106 1774
21.6399995833635 1746
21.6599995829165 1762
21.6799995824695 1881
21.6999995820224 1959
21.7199995815754 1969
21.7399995811284 2004
21.7599995806813 2088
21.7799995802343 2172
21.7999995797873 2112
21.8199995793402 1991
21.8399995788932 2017
21.8599995784462 1878
21.8799995779991 1805
21.8999995775521 1759
21.919999577105 1701
21.939999576658 1663
21.959999576211 1691
21.9799995757639 1678
21.9999995753169 1728
22.0199995748699 1707
22.0399995744228 1691
22.0599995739758 1726
22.0799995735288 1696
22.0999995730817 1671
22.1199995726347 1683
22.1399995721877 1603
22.1599995717406 1676
22.1799995712936 1712
22.1999995708466 1670
22.2199995703995 1732
22.2399995699525 1656
22.2599995695055 1670
22.2799995690584 1699
22.2999995686114 1702
22.3199995681643 1791
22.3399995677173 1806
22.3599995672703 1768
22.3799995668232 1726
22.3999995663762 1683
22.4199995659292 1649
22.4399995654821 1765
22.4599995650351 1617
22.4799995645881 1581
22.499999564141 1625
22.519999563694 1661
22.539999563247 1651
22.5599995627999 1585
22.5799995623529 1652
22.5999995619059 1613
22.6199995614588 1624
22.6399995610118 1603
22.6599995605648 1574
22.6799995601177 1611
22.6999995596707 1633
22.7199995592237 1618
22.7399995587766 1570
22.7599995583296 1599
22.7799995578825 1558
22.7999995574355 1634
22.8199995569885 1671
22.8399995565414 1646
22.8599995560944 1663
22.8799995556474 1620
22.8999995552003 1658
22.9199995547533 1628
22.9399995543063 1701
22.9599995538592 1721
22.9799995534122 1694
22.9999995529652 1767
23.0199995525181 1907
23.0399995520711 1777
23.0599995516241 1751
23.079999551177 1683
23.09999955073 1645
23.119999550283 1563
23.1399995498359 1522
23.1599995493889 1589
23.1799995489418 1544
23.1999995484948 1580
23.2199995480478 1525
23.2399995476007 1568
23.2599995471537 1501
23.2799995467067 1498
23.2999995462596 1546
23.3199995458126 1437
23.3399995453656 1538
23.3599995449185 1500
23.3799995444715 1574
23.3999995440245 1573
23.4199995435774 1513
23.4399995431304 1497
23.4599995426834 1481
23.4799995422363 1541
23.4999995417893 1538
23.5199995413423 1588
23.5399995408952 1612
23.5599995404482 1706
23.5799995400012 1691
23.5999995395541 1719
23.6199995391071 1764
23.63999953866 1805
23.659999538213 1936
23.679999537766 2076
23.6999995373189 2425
23.7199995368719 2713
23.7399995364249 2695
23.7599995359778 2678
23.7799995355308 2378
23.7999995350838 2140
23.8199995346367 1993
23.8399995341897 1757
23.8599995337427 1607
23.8799995332956 1674
23.8999995328486 1632
23.9199995324016 1560
23.9399995319545 1661
23.9599995315075 1686
23.9799995310605 1657
23.9999995306134 1693
24.0199995301664 1621
24.0399995297194 1673
24.0599995292723 1584
24.0799995288253 1401
24.0999995283782 1423
24.1199995279312 1438
24.1399995274842 1425
24.1599995270371 1440
24.1799995265901 1374
24.1999995261431 1390
24.219999525696 1375
24.239999525249 1408
24.259999524802 1425
24.2799995243549 1477
24.2999995239079 1531
24.3199995234609 1510
24.3399995230138 1462
24.3599995225668 1425
24.3799995221198 1418
24.3999995216727 1389
24.4199995212257 1443
24.4399995207787 1418
24.4599995203316 1448
24.4799995198846 1399
24.4999995194376 1374
24.5199995189905 1418
24.5399995185435 1341
24.5599995180964 1384
24.5799995176494 1313
24.5999995172024 1443
24.6199995167553 1387
24.6399995163083 1362
24.6599995158613 1341
24.6799995154142 1380
24.6999995149672 1475
24.7199995145202 1505
24.7399995140731 1422
24.7599995136261 1426
24.7799995131791 1522
24.799999512732 1682
24.819999512285 1729
24.839999511838 1913
24.8599995113909 1969
24.8799995109439 2255
24.8999995104969 2144
24.9199995100498 1970
24.9399995096028 1784
24.9599995091558 1757
24.9799995087087 1634
24.9999995082617 1417
25.0199995078146 1348
25.0399995073676 1377
25.0599995069206 1393
25.0799995064735 1374
25.0999995060265 1356
25.1199995055795 1317
25.1399995051324 1458
25.1599995046854 1327
25.1799995042384 1343
25.1999995037913 1358
25.2199995033443 1399
25.2399995028973 1381
25.2599995024502 1393
25.2799995020032 1438
25.2999995015562 1316
25.3199995011091 1431
25.3399995006621 1400
25.3599995002151 1459
25.379999499768 1422
25.399999499321 1561
25.4199994988739 1598
25.4399994984269 1722
25.4599994979799 1716
25.4799994975328 1919
25.4999994970858 2038
25.5199994966388 2301
25.5399994961917 2577
25.5599994957447 2713
25.5799994952977 2495
25.5999994948506 2245
25.6199994944036 2036
25.6399994939566 1956
25.6599994935095 1595
25.6799994930625 1462
25.6999994926155 1436
25.7199994921684 1328
25.7399994917214 1472
25.7599994912744 1474
25.7799994908273 1495
25.7999994903803 1730
25.8199994899333 1648
25.8399994894862 1609
25.8599994890392 1551
25.8799994885921 1460
25.8999994881451 1396
25.9199994876981 1283
25.939999487251 1265
25.959999486804 1226
25.979999486357 1274
25.9999994859099 1283
26.0199994854629 1230
26.0399994850159 1236
26.0599994845688 1251
26.0799994841218 1261
26.0999994836748 1219
26.1199994832277 1243
26.1399994827807 1195
26.1599994823337 1186
26.1799994818866 1167
26.1999994814396 1213
26.2199994809926 1236
26.2399994805455 1201
26.2599994800985 1133
26.2799994796514 1243
26.2999994792044 1269
26.3199994787574 1222
26.3399994783103 1171
26.3599994778633 1276
26.3799994774163 1216
26.3999994769692 1255
26.4199994765222 1236
26.4399994760752 1250
26.4599994756281 1223
26.4799994751811 1275
26.4999994747341 1249
26.519999474287 1351
26.53999947384 1358
26.559999473393 1419
26.5799994729459 1636
26.5999994724989 1829
26.6199994720519 1902
26.6399994716048 1926
26.6599994711578 1880
26.6799994707108 1671
26.6999994702637 1560
26.7199994698167 1411
26.7399994693697 1379
26.7599994689226 1244
26.7799994684756 1174
26.7999994680285 1243
26.8199994675815 1215
26.8399994671345 1205
26.8599994666874 1183
26.8799994662404 1148
26.8999994657934 1196
26.9199994653463 1201
26.9399994648993 1174
26.9599994644523 1160
26.9799994640052 1160
26.9999994635582 1135
27.0199994631112 1127
27.0399994626641 1169
27.0599994622171 1149
27.0799994617701 1146
27.099999461323 1150
27.119999460876 1160
27.139999460429 1202
27.1599994599819 1147
27.1799994595349 1200
27.1999994590878 1080
27.2199994586408 1179
27.2399994581938 1152
27.2599994577467 1205
27.2799994572997 1271
27.2999994568527 1243
27.3199994564056 1295
27.3399994559586 1340
27.3599994555116 1413
27.3799994550645 1400
27.3999994546175 1613
27.4199994541705 1823
27.4399994537234 1880
27.4599994532764 2089
27.4799994528294 2060
27.4999994523823 1866
27.5199994519353 1676
27.5399994514883 1587
27.5599994510412 1403
27.5799994505942 1255
27.5999994501472 1158
27.6199994497001 1096
27.6399994492531 1096
27.659999448806 1115
27.679999448359 1075
27.699999447912 1095
27.7199994474649 1096
27.7399994470179 1085
27.7599994465709 1073
27.7799994461238 1068
27.7999994456768 1074
27.8199994452298 1117
27.8399994447827 1107
27.8599994443357 1044
27.8799994438887 1096
27.8999994434416 1045
27.9199994429946 1081
27.9399994425476 1080
27.9599994421005 1123
27.9799994416535 1090
27.9999994412065 1065
28.0199994407594 1079
28.0399994403124 1034
28.0599994398654 1114
28.0799994394183 1089
28.0999994389713 1121
28.1199994385242 1150
28.1399994380772 1150
28.1599994376302 1209
28.1799994371831 1191
28.1999994367361 1251
28.2199994362891 1326
28.239999435842 1472
28.259999435395 1455
28.279999434948 1546
28.2999994345009 1409
28.3199994340539 1405
28.3399994336069 1308
28.3599994331598 1260
28.3799994327128 1200
28.3999994322658 1125
28.4199994318187 1065
28.4399994313717 1079
28.4599994309247 1018
28.4799994304776 1050
28.4999994300306 1060
28.5199994295835 1030
28.5399994291365 1046
28.5599994286895 996
28.5799994282424 1031
28.5999994277954 1055
28.6199994273484 1070
28.6399994269013 1065
28.6599994264543 1061
28.6799994260073 1030
28.6999994255602 1074
28.7199994251132 1087
28.7399994246662 1182
28.7599994242191 1184
28.7799994237721 1258
28.7999994233251 1355
28.819999422878 1525
28.839999422431 1719
28.859999421984 1766
28.8799994215369 1817
28.8999994210899 1618
28.9199994206429 1532
28.9399994201958 1518
28.9599994197488 1465
28.9799994193017 1388
28.9999994188547 1437
29.0199994184077 1513
29.0399994179606 1582
29.0599994175136 1731
29.0799994170666 1698
29.0999994166195 1534
29.1199994161725 1345
29.1399994157255 1371
29.1599994152784 1253
29.1799994148314 1121
29.1999994143844 1081
29.2199994139373 1048
29.2399994134903 977
29.2599994130433 1073
29.2799994125962 977
29.2999994121492 950
29.3199994117022 1037
29.3399994112551 945
29.3599994108081 941
29.379999410361 965
29.399999409914 997
29.419999409467 1004
29.4399994090199 995
29.4599994085729 1015
29.4799994081259 986
29.4999994076788 960
29.5199994072318 968
29.5399994067848 948
29.5599994063377 926
29.5799994058907 1047
29.5999994054437 973
29.6199994049966 986
29.6399994045496 983
29.6599994041026 982
29.6799994036555 974
29.6999994032085 976
29.7199994027615 951
29.7399994023144 985
29.7599994018674 994
29.7799994014204 995
29.7999994009733 1029
29.8199994005263 1011
29.8399994000793 1067
29.8599993996322 1098
29.8799993991852 1141
29.8999993987381 1083
29.9199993982911 1067
29.9399993978441 1030
29.959999397397 1034
29.97999939695 1014
29.999999396503 959
