3 1995
3.01999999955297 1870
3.03999999910593 1696
3.0599999986589 1610
3.07999999821186 1623
3.09999999776483 1478
3.11999999731779 1477
3.13999999687076 1478
3.15999999642372 1496
3.17999999597669 1377
3.19999999552965 1446
3.21999999508262 1427
3.23999999463558 1376
3.25999999418855 1395
3.27999999374151 1360
3.29999999329448 1445
3.31999999284744 1329
3.33999999240041 1379
3.35999999195337 1379
3.37999999150634 1324
3.3999999910593 1353
3.41999999061227 1296
3.43999999016523 1263
3.4599999897182 1330
3.47999998927116 1344
3.49999998882413 1310
3.51999998837709 1306
3.53999998793006 1268
3.55999998748302 1239
3.57999998703599 1245
3.59999998658895 1208
3.61999998614192 1174
3.63999998569489 1159
3.65999998524785 1161
3.67999998480082 1218
3.69999998435378 1196
3.71999998390675 1193
3.73999998345971 1068
3.75999998301268 1160
3.77999998256564 1121
3.79999998211861 1119
3.81999998167157 1138
3.83999998122454 1095
3.8599999807775 1143
3.87999998033047 1050
3.89999997988343 1052
3.9199999794364 1076
3.93999997898936 1115
3.95999997854233 999
3.97999997809529 1039
3.99999997764826 1070
4.01999997720122 1017
4.03999997675419 1002
4.05999997630715 980
4.07999997586012 1007
4.09999997541308 962
4.11999997496605 1018
4.13999997451901 1098
4.15999997407198 1013
4.17999997362494 961
4.19999997317791 965
4.21999997273087 1025
4.23999997228384 996
4.25999997183681 1010
4.27999997138977 960
4.29999997094274 948
4.3199999704957 951
4.33999997004867 872
4.35999996960163 934
4.3799999691546 959
4.39999996870756 949
4.41999996826053 935
4.43999996781349 955
4.45999996736646 921
4.47999996691942 889
4.49999996647239 929
4.51999996602535 879
4.53999996557832 870
4.55999996513128 866
4.57999996468425 921
4.59999996423721 861
4.61999996379018 874
4.63999996334314 911
4.65999996289611 831
4.67999996244907 899
4.69999996200204 886
4.719999961555 871
4.73999996110797 884
4.75999996066093 861
4.7799999602139 858
4.79999995976686 826
4.81999995931983 859
4.83999995887279 842
4.85999995842576 871
4.87999995797873 871
4.89999995753169 836
4.91999995708466 874
4.93999995663762 837
4.95999995619059 792
4.97999995574355 896
4.99999995529652 904
5.01999995484948 866
5.03999995440245 878
5.05999995395541 817
5.07999995350838 878
5.09999995306134 875
5.11999995261431 814
5.13999995216727 814
5.15999995172024 878
5.1799999512732 879
5.19999995082617 888
5.21999995037913 871
5.2399999499321 838
5.25999994948506 871
5.27999994903803 851
5.29999994859099 864
5.31999994814396 875
5.33999994769692 880
5.35999994724989 876
5.37999994680285 876
5.39999994635582 871
5.41999994590878 905
5.43999994546175 944
5.45999994501471 933
5.47999994456768 1003
5.49999994412065 1032
5.51999994367361 985
5.53999994322658 976
5.55999994277954 1071
5.57999994233251 1096
5.59999994188547 1079
5.61999994143844 1160
5.6399999409914 1216
5.65999994054437 1222
5.67999994009733 1275
5.6999999396503 1292
5.71999993920326 1410
5.73999993875623 1580
5.75999993830919 1897
5.77999993786216 2133
5.79999993741512 2290
5.81999993696809 2446
5.83999993652105 2314
5.85999993607402 1797
5.87999993562698 1108
5.89999993517995 921
5.91999993473291 856
5.93999993428588 860
5.95999993383884 918
5.97999993339181 854
5.99999993294477 902
6.01999993249774 859
6.0399999320507 895
6.05999993160367 840
6.07999993115663 863
6.0999999307096 896
6.11999993026257 872
6.13999992981553 855
6.1599999293685 871
6.17999992892146 894
6.19999992847443 845
6.21999992802739 901
6.23999992758036 894
6.25999992713332 904
6.27999992668629 885
6.29999992623925 884
6.31999992579222 925
6.33999992534518 870
6.35999992489815 925
6.37999992445111 941
6.39999992400408 988
6.41999992355704 933
6.43999992311001 943
6.45999992266297 1020
6.47999992221594 1051
6.4999999217689 1019
6.51999992132187 1104
6.53999992087483 1138
6.5599999204278 1149
6.57999991998076 1191
6.59999991953373 1281
6.61999991908669 1336
6.63999991863966 1482
6.65999991819262 1632
6.67999991774559 1782
6.69999991729855 1824
6.71999991685152 1466
6.73999991640449 1126
6.75999991595745 985
6.77999991551042 883
6.79999991506338 904
6.81999991461635 892
6.83999991416931 911
6.85999991372228 880
6.87999991327524 849
6.89999991282821 831
6.91999991238117 869
6.93999991193414 860
6.9599999114871 836
6.97999991104007 907
6.99999991059303 888
7.019999910146 904
7.03999990969896 885
7.05999990925193 890
7.07999990880489 876
7.09999990835786 867
7.11999990791082 881
7.13999990746379 877
7.15999990701675 888
7.17999990656972 851
7.19999990612268 881
7.21999990567565 884
7.23999990522861 867
7.25999990478158 855
7.27999990433454 885
7.29999990388751 856
7.31999990344047 907
7.33999990299344 903
7.35999990254641 947
7.37999990209937 991
7.39999990165234 944
7.4199999012053 938
7.43999990075827 914
7.45999990031123 1000
7.4799998998642 1027
7.49999989941716 968
7.51999989897013 944
7.53999989852309 887
7.55999989807606 950
7.57999989762902 827
7.59999989718199 893
7.61999989673495 861
7.63999989628792 942
7.65999989584088 874
7.67999989539385 893
7.69999989494681 893
7.71999989449978 852
7.73999989405274 893
7.75999989360571 865
7.77999989315867 888
7.79999989271164 869
7.8199998922646 923
7.83999989181757 898
7.85999989137053 888
7.8799998909235 869
7.89999989047646 878
7.91999989002943 930
7.9399998895824 860
7.95999988913536 869
7.97999988868833 879
7.99999988824129 904
8.01999988779426 858
8.03999988734722 840
8.05999988690019 909
8.07999988645315 943
8.09999988600612 886
8.11999988555908 853
8.13999988511205 867
8.15999988466501 856
8.17999988421798 892
8.19999988377094 906
8.21999988332391 917
8.23999988287687 890
8.25999988242984 938
8.2799998819828 895
8.29999988153577 894
8.31999988108873 887
8.3399998806417 898
8.35999988019466 897
8.37999987974763 899
8.39999987930059 894
8.41999987885356 942
8.43999987840652 931
8.45999987795949 895
8.47999987751245 973
8.49999987706542 927
8.51999987661839 948
8.53999987617135 950
8.55999987572432 929
8.57999987527728 932
8.59999987483025 971
8.61999987438321 988
8.63999987393618 948
8.65999987348914 923
8.67999987304211 933
8.69999987259507 902
8.71999987214804 917
8.739999871701 900
8.75999987125397 885
8.77999987080693 943
8.7999998703599 967
8.81999986991286 922
8.83999986946583 896
8.85999986901879 965
8.87999986857176 931
8.89999986812472 923
8.91999986767769 933
8.93999986723065 888
8.95999986678362 977
8.97999986633658 934
8.99999986588955 1005
9.01999986544251 1022
9.03999986499548 993
9.05999986454844 1028
9.07999986410141 945
9.09999986365438 1009
9.11999986320734 1090
9.13999986276031 989
9.15999986231327 1061
9.17999986186624 1143
9.1999998614192 1074
9.21999986097217 1105
9.23999986052513 1157
9.2599998600781 1182
9.27999985963106 1204
9.29999985918403 1272
9.31999985873699 1402
9.33999985828996 1486
9.35999985784292 1703
9.37999985739589 1869
9.39999985694885 1971
9.41999985650182 1922
9.43999985605478 1664
9.45999985560775 1334
9.47999985516071 1067
9.49999985471368 971
9.51999985426664 965
9.53999985381961 958
9.55999985337257 946
9.57999985292554 977
9.5999998524785 948
9.61999985203147 954
9.63999985158443 941
9.6599998511374 926
9.67999985069037 908
9.69999985024333 900
9.7199998497963 923
9.73999984934926 970
9.75999984890223 951
9.77999984845519 964
9.79999984800816 936
9.81999984756112 938
9.83999984711409 957
9.85999984666705 1020
9.87999984622002 993
9.89999984577298 931
9.91999984532595 942
9.93999984487891 916
9.95999984443188 961
9.97999984398484 964
9.99999984353781 942
10.0199998430908 960
10.0399998426437 974
10.0599998421967 933
10.0799998417497 938
10.0999998413026 962
10.1199998408556 938
10.1399998404086 945
10.1599998399615 968
10.1799998395145 948
10.1999998390675 991
10.2199998386204 991
10.2399998381734 971
10.2599998377264 975
10.2799998372793 989
10.2999998368323 954
10.3199998363853 977
10.3399998359382 1024
10.3599998354912 955
10.3799998350441 1045
10.3999998345971 973
10.4199998341501 1006
10.439999833703 974
10.459999833256 982
10.479999832809 1029
10.4999998323619 976
10.5199998319149 980
10.5399998314679 983
10.5599998310208 978
10.5799998305738 1009
10.5999998301268 1051
10.6199998296797 1050
10.6399998292327 1043
10.6599998287857 1018
10.6799998283386 1028
10.6999998278916 1080
10.7199998274446 1097
10.7399998269975 1084
10.7599998265505 1149
10.7799998261034 1194
10.7999998256564 1199
10.8199998252094 1233
10.8399998247623 1270
10.8599998243153 1297
10.8799998238683 1361
10.8999998234212 1291
10.9199998229742 1463
10.9399998225272 1622
10.9599998220801 1895
10.9799998216331 2093
10.9999998211861 2196
11.019999820739 2242
11.039999820292 2046
11.059999819845 1674
11.0799998193979 1265
11.0999998189509 1165
11.1199998185039 1050
11.1399998180568 1140
11.1599998176098 1075
11.1799998171628 1059
11.1999998167157 1068
11.2199998162687 1095
11.2399998158216 1044
11.2599998153746 1070
11.2799998149276 1120
11.2999998144805 1165
11.3199998140335 1152
11.3399998135865 1169
11.3599998131394 1188
11.3799998126924 1232
11.3999998122454 1307
11.4199998117983 1349
11.4399998113513 1533
11.4599998109043 1723
11.4799998104572 1789
11.4999998100102 1833
11.5199998095632 1645
11.5399998091161 1465
11.5599998086691 1338
11.5799998082221 1185
11.599999807775 1150
11.619999807328 1037
11.639999806881 1065
11.6599998064339 1073
11.6799998059869 1107
11.6999998055398 1068
11.7199998050928 1048
11.7399998046458 1103
11.7599998041987 1066
11.7799998037517 1052
11.7999998033047 1044
11.8199998028576 1094
11.8399998024106 1089
11.8599998019636 1102
11.8799998015165 1080
11.8999998010695 1122
11.9199998006225 1075
11.9399998001754 1071
11.9599997997284 1085
11.9799997992814 1063
11.9999997988343 1092
12.0199997983873 1064
12.0399997979403 1071
12.0599997974932 1067
12.0799997970462 1124
12.0999997965992 1131
12.1199997961521 1147
12.1399997957051 1167
12.159999795258 1163
12.179999794811 1155
12.199999794364 1114
12.2199997939169 1106
12.2399997934699 1112
12.2599997930229 1238
12.2799997925758 1115
12.2999997921288 1146
12.3199997916818 1127
12.3399997912347 1142
12.3599997907877 1116
12.3799997903407 1062
12.3999997898936 1145
12.4199997894466 1130
12.4399997889996 1115
12.4599997885525 1149
12.4799997881055 1191
12.4999997876585 1165
12.5199997872114 1183
12.5399997867644 1123
12.5599997863173 1107
12.5799997858703 1127
12.5999997854233 1167
12.6199997849762 1164
12.6399997845292 1111
12.6599997840822 1131
12.6799997836351 1162
12.6999997831881 1159
12.7199997827411 1196
12.739999782294 1204
12.759999781847 1178
12.7799997814 1225
12.7999997809529 1191
12.8199997805059 1148
12.8399997800589 1177
12.8599997796118 1114
12.8799997791648 1126
12.8999997787178 1214
12.9199997782707 1248
12.9399997778237 1176
12.9599997773767 1172
12.9799997769296 1177
12.9999997764826 1266
13.0199997760355 1224
13.0399997755885 1224
13.0599997751415 1263
13.0799997746944 1268
13.0999997742474 1271
13.1199997738004 1276
13.1399997733533 1257
13.1599997729063 1272
13.1799997724593 1285
13.1999997720122 1300
13.2199997715652 1426
13.2399997711182 1391
13.2599997706711 1408
13.2799997702241 1433
13.2999997697771 1446
13.31999976933 1321
13.339999768883 1323
13.359999768436 1273
13.3799997679889 1298
13.3999997675419 1274
13.4199997670949 1201
13.4399997666478 1216
13.4599997662008 1256
13.4799997657537 1230
13.4999997653067 1180
13.5199997648597 1203
13.5399997644126 1137
13.5599997639656 1212
13.5799997635186 1232
13.5999997630715 1253
13.6199997626245 1267
13.6399997621775 1237
13.6599997617304 1343
13.6799997612834 1276
13.6999997608364 1296
13.7199997603893 1315
13.7399997599423 1300
13.7599997594953 1274
13.7799997590482 1265
13.7999997586012 1261
13.8199997581542 1265
13.8399997577071 1335
13.8599997572601 1249
13.879999756813 1268
13.899999756366 1306
13.919999755919 1287
13.9399997554719 1312
13.9599997550249 1357
13.9799997545779 1320
13.9999997541308 1317
14.0199997536838 1315
14.0399997532368 1297
14.0599997527897 1391
14.0799997523427 1363
14.0999997518957 1374
14.1199997514486 1315
14.1399997510016 1322
14.1599997505546 1362
14.1799997501075 1371
14.1999997496605 1420
14.2199997492135 1366
14.2399997487664 1373
14.2599997483194 1417
14.2799997478724 1341
14.2999997474253 1379
14.3199997469783 1432
14.3399997465312 1426
14.3599997460842 1490
14.3799997456372 1472
14.3999997451901 1531
14.4199997447431 1598
14.4399997442961 1638
14.459999743849 1551
14.479999743402 1581
14.499999742955 1450
14.5199997425079 1485
14.5399997420609 1431
14.5599997416139 1371
14.5799997411668 1441
14.5999997407198 1401
14.6199997402728 1465
14.6399997398257 1443
14.6599997393787 1452
14.6799997389317 1426
14.6999997384846 1475
14.7199997380376 1440
14.7399997375906 1424
14.7599997371435 1466
14.7799997366965 1503
14.7999997362494 1518
14.8199997358024 1498
14.8399997353554 1475
14.8599997349083 1511
14.8799997344613 1506
14.8999997340143 1461
14.9199997335672 1540
14.9399997331202 1515
14.9599997326732 1552
14.9799997322261 1546
14.9999997317791 1534
15.0199997313321 1490
15.039999730885 1525
15.059999730438 1529
15.079999729991 1522
15.0999997295439 1497
15.1199997290969 1490
15.1399997286499 1502
15.1599997282028 1501
15.1799997277558 1546
15.1999997273088 1561
15.2199997268617 1541
15.2399997264147 1450
15.2599997259676 1510
15.2799997255206 1467
15.2999997250736 1502
15.3199997246265 1525
15.3399997241795 1530
15.3599997237325 1502
15.3799997232854 1525
15.3999997228384 1516
15.4199997223914 1559
15.4399997219443 1626
15.4599997214973 1624
15.4799997210503 1578
15.4999997206032 1551
15.5199997201562 1544
15.5399997197092 1578
15.5599997192621 1680
15.5799997188151 1615
15.5999997183681 1636
15.619999717921 1654
15.639999717474 1573
15.659999717027 1631
15.6799997165799 1699
15.6999997161329 1724
15.7199997156858 1633
15.7399997152388 1710
15.7599997147918 1639
15.7799997143447 1645
15.7999997138977 1697
15.8199997134507 1614
15.8399997130036 1585
15.8599997125566 1665
15.8799997121096 1623
15.8999997116625 1709
15.9199997112155 1689
15.9399997107685 1652
15.9599997103214 1655
15.9799997098744 1713
15.9999997094274 1734
16.0199997089803 1756
16.0399997085333 1669
16.0599997080863 1720
16.0799997076392 1651
16.0999997071922 1736
16.1199997067451 1763
16.1399997062981 1753
16.1599997058511 1744
16.179999705404 1779
16.199999704957 1717
16.21999970451 1713
16.2399997040629 1749
16.2599997036159 1793
16.2799997031689 1743
16.2999997027218 1796
16.3199997022748 1769
16.3399997018278 1791
16.3599997013807 1736
16.3799997009337 1758
16.3999997004867 1877
16.4199997000396 1765
16.4399996995926 1798
16.4599996991456 1755
16.4799996986985 1835
16.4999996982515 1792
16.5199996978045 1866
16.5399996973574 1892
16.5599996969104 1860
16.5799996964633 1903
16.5999996960163 1817
16.6199996955693 1869
16.6399996951222 1908
16.6599996946752 1855
16.6799996942282 1892
16.6999996937811 1893
16.7199996933341 1946
16.7399996928871 2001
16.75999969244 1911
16.779999691993 1906
16.799999691546 1975
16.8199996910989 1972
16.8399996906519 1924
16.8599996902049 1930
16.8799996897578 1923
16.8999996893108 1958
16.9199996888638 2071
16.9399996884167 2025
16.9599996879697 2023
16.9799996875226 2089
16.9999996870756 2054
17.0199996866286 2105
17.0399996861815 2030
17.0599996857345 2055
17.0799996852875 2094
17.0999996848404 2173
17.1199996843934 2080
17.1399996839464 2061
17.1599996834993 2076
17.1799996830523 2209
17.1999996826053 2289
17.2199996821582 2340
17.2399996817112 2359
17.2599996812642 2171
17.2799996808171 2260
17.2999996803701 2204
17.3199996799231 2199
17.339999679476 2034
17.359999679029 2075
17.379999678582 2143
17.3999996781349 1982
17.4199996776879 2042
17.4399996772408 2150
17.4599996767938 2096
17.4799996763468 2106
17.4999996758997 2185
17.5199996754527 2213
17.5399996750057 2193
17.5599996745586 2152
17.5799996741116 2088
17.5999996736646 2194
17.6199996732175 2236
17.6399996727705 2101
17.6599996723235 2168
17.6799996718764 2295
17.6999996714294 2181
17.7199996709824 2096
17.7399996705353 2142
17.7599996700883 2181
17.7799996696413 2188
17.7999996691942 2220
17.8199996687472 2204
17.8399996683002 2193
17.8599996678531 2357
17.8799996674061 2281
17.899999666959 2221
17.919999666512 2312
17.939999666065 2309
17.9599996656179 2352
17.9799996651709 2247
17.9999996647239 2275
18.0199996642768 2307
18.0399996638298 2322
18.0599996633828 2350
18.0799996629357 2298
18.0999996624887 2325
18.1199996620417 2285
18.1399996615946 2363
18.1599996611476 2372
18.1799996607006 2257
18.1999996602535 2372
18.2199996598065 2463
18.2399996593595 2317
18.2599996589124 2371
18.2799996584654 2340
18.2999996580184 2391
18.3199996575713 2363
18.3399996571243 2494
18.3599996566772 2384
18.3799996562302 2476
18.3999996557832 2439
18.4199996553361 2450
18.4399996548891 2392
18.4599996544421 2464
18.479999653995 2395
18.499999653548 2420
18.519999653101 2558
18.5399996526539 2521
18.5599996522069 2539
18.5799996517599 2497
18.5999996513128 2433
18.6199996508658 2547
18.6399996504188 2598
18.6599996499717 2594
18.6799996495247 2463
18.6999996490777 2504
18.7199996486306 2526
18.7399996481836 2525
18.7599996477366 2575
18.7799996472895 2613
18.7999996468425 2567
18.8199996463954 2592
18.8399996459484 2574
18.8599996455014 2612
18.8799996450543 2641
18.8999996446073 2596
18.9199996441603 2548
18.9399996437132 2667
18.9599996432662 2625
18.9799996428192 2685
18.9999996423721 2663
19.0199996419251 2645
19.0399996414781 2642
19.059999641031 2662
19.079999640584 2681
19.099999640137 2641
19.1199996396899 2724
19.1399996392429 2759
19.1599996387959 2716
19.1799996383488 2692
19.1999996379018 2752
19.2199996374547 2734
19.2399996370077 2730
19.2599996365607 2734
19.2799996361136 2721
19.2999996356666 2739
19.3199996352196 2712
19.3399996347725 2718
19.3599996343255 2777
19.3799996338785 2747
19.3999996334314 2784
19.4199996329844 2866
19.4399996325374 2875
19.4599996320903 2777
19.4799996316433 2872
19.4999996311963 2940
19.5199996307492 2909
19.5399996303022 2980
19.5599996298552 3064
19.5799996294081 3241
19.5999996289611 3367
19.6199996285141 3660
19.639999628067 3661
19.65999962762 3608
19.6799996271729 3457
19.6999996267259 3295
19.7199996262789 3090
19.7399996258318 3091
19.7599996253848 3079
19.7799996249378 3114
19.7999996244907 3077
19.8199996240437 3238
19.8399996235967 3488
19.8599996231496 3606
19.8799996227026 3899
19.8999996222556 4053
19.9199996218085 4018
19.9399996213615 3906
19.9599996209145 3654
19.9799996204674 3364
19.9999996200204 3078
20.0199996195734 2947
20.0399996191263 2957
20.0599996186793 2904
20.0799996182322 2916
20.0999996177852 3019
20.1199996173382 2908
20.1399996168911 2868
20.1599996164441 2882
20.1799996159971 2870
20.19999961555 2915
20.219999615103 2989
20.239999614656 2979
20.2599996142089 2945
20.2799996137619 3055
20.2999996133149 2908
20.3199996128678 2964
20.3399996124208 2955
20.3599996119738 2903
20.3799996115267 2942
20.3999996110797 2861
20.4199996106327 2976
20.4399996101856 2902
20.4599996097386 2892
20.4799996092916 3035
20.4999996088445 2877
20.5199996083975 2938
20.5399996079504 2918
20.5599996075034 2931
20.5799996070564 2807
20.5999996066093 2962
20.6199996061623 2912
20.6399996057153 2916
20.6599996052682 2960
20.6799996048212 2928
20.6999996043742 2842
20.7199996039271 2974
20.7399996034801 2961
20.7599996030331 2938
20.779999602586 2911
20.799999602139 2960
20.819999601692 2928
20.8399996012449 3012
20.8599996007979 2938
20.8799996003509 2945
20.8999995999038 2908
20.9199995994568 3003
20.9399995990098 2912
20.9599995985627 3033
20.9799995981157 3024
20.9999995976686 3031
21.0199995972216 2897
21.0399995967746 2970
21.0599995963275 2938
21.0799995958805 2969
21.0999995954335 3013
21.1199995949864 2982
21.1399995945394 2999
21.1599995940924 2999
21.1799995936453 2990
21.1999995931983 2951
21.2199995927513 2892
21.2399995923042 3016
21.2599995918572 2853
21.2799995914102 2894
21.2999995909631 2997
21.3199995905161 2926
21.3399995900691 2952
21.359999589622 2924
21.379999589175 2963
21.399999588728 2948
21.4199995882809 2908
21.4399995878339 2928
21.4599995873868 2909
21.4799995869398 2969
21.4999995864928 3029
21.5199995860457 2968
21.5399995855987 2893
21.5599995851517 2916
21.5799995847046 2947
21.5999995842576 2952
21.6199995838106 3055
21.6399995833635 2974
21.6599995829165 3010
21.6799995824695 3038
21.6999995820224 3125
21.7199995815754 3135
21.7399995811284 3244
21.7599995806813 3333
21.7799995802343 3349
21.7999995797873 3227
21.8199995793402 3176
21.8399995788932 3090
21.8599995784462 2948
21.8799995779991 2969
21.8999995775521 2794
21.919999577105 2854
21.939999576658 2834
21.959999576211 2746
21.9799995757639 2853
21.9999995753169 2826
22.0199995748699 2840
22.0399995744228 2833
22.0599995739758 2845
22.0799995735288 2859
22.0999995730817 2754
22.1199995726347 2758
22.1399995721877 2850
22.1599995717406 2791
22.1799995712936 2915
22.1999995708466 2822
22.2199995703995 2861
22.2399995699525 2765
22.2599995695055 2779
22.2799995690584 2752
22.2999995686114 2751
22.3199995681643 2858
22.3399995677173 2820
22.3599995672703 2715
22.3799995668232 2773
22.3999995663762 2796
22.4199995659292 2778
22.4399995654821 2772
22.4599995650351 2743
22.4799995645881 2826
22.499999564141 2694
22.519999563694 2775
22.539999563247 2695
22.5599995627999 2724
22.5799995623529 2732
22.5999995619059 2743
22.6199995614588 2751
22.6399995610118 2662
22.6599995605648 2728
22.6799995601177 2695
22.6999995596707 2688
22.7199995592237 2699
22.7399995587766 2728
22.7599995583296 2659
22.7799995578825 2709
22.7999995574355 2662
22.8199995569885 2687
22.8399995565414 2668
22.8599995560944 2620
22.8799995556474 2753
22.8999995552003 2700
22.9199995547533 2685
22.9399995543063 2694
22.9599995538592 2692
22.9799995534122 2857
22.9999995529652 2841
23.0199995525181 2832
23.0399995520711 2869
23.0599995516241 2840
23.079999551177 2686
23.09999955073 2640
23.119999550283 2652
23.1399995498359 2610
23.1599995493889 2627
23.1799995489418 2576
23.1999995484948 2591
23.2199995480478 2582
23.2399995476007 2526
23.2599995471537 2644
23.2799995467067 2615
23.2999995462596 2547
23.3199995458126 2533
23.3399995453656 2477
23.3599995449185 2520
23.3799995444715 2526
23.3999995440245 2504
23.4199995435774 2587
23.4399995431304 2475
23.4599995426834 2477
23.4799995422363 2545
23.4999995417893 2589
23.5199995413423 2573
23.5399995408952 2575
23.5599995404482 2643
23.5799995400012 2687
23.5999995395541 2675
23.6199995391071 2725
23.63999953866 2741
23.659999538213 2988
23.679999537766 3116
23.6999995373189 3458
23.7199995368719 3583
23.7399995364249 3508
23.7599995359778 3382
23.7799995355308 3199
23.7999995350838 2995
23.8199995346367 2738
23.8399995341897 2607
23.8599995337427 2597
23.8799995332956 2593
23.8999995328486 2516
23.9199995324016 2576
23.9399995319545 2613
23.9599995315075 2622
23.9799995310605 2598
23.9999995306134 2541
24.0199995301664 2515
24.0399995297194 2496
24.0599995292723 2584
24.0799995288253 2429
24.0999995283782 2370
24.1199995279312 2402
24.1399995274842 2377
24.1599995270371 2414
24.1799995265901 2305
24.1999995261431 2398
24.219999525696 2414
24.239999525249 2357
24.259999524802 2287
24.2799995243549 2417
24.2999995239079 2329
24.3199995234609 2286
24.3399995230138 2374
24.3599995225668 2318
24.3799995221198 2287
24.3999995216727 2272
24.4199995212257 2307
24.4399995207787 2398
24.4599995203316 2355
24.4799995198846 2266
24.4999995194376 2239
24.5199995189905 2202
24.5399995185435 2287
24.5599995180964 2383
24.5799995176494 2289
24.5999995172024 2302
24.6199995167553 2351
24.6399995163083 2290
24.6599995158613 2329
24.6799995154142 2306
24.6999995149672 2276
24.7199995145202 2308
24.7399995140731 2395
24.7599995136261 2357
24.7799995131791 2324
24.799999512732 2552
24.819999512285 2615
24.839999511838 2937
24.8599995113909 3006
24.8799995109439 2942
24.8999995104969 2941
24.9199995100498 2732
24.9399995096028 2676
24.9599995091558 2427
24.9799995087087 2300
24.9999995082617 2281
25.0199995078146 2208
25.0399995073676 2239
25.0599995069206 2240
25.0799995064735 2204
25.0999995060265 2260
25.1199995055795 2227
25.1399995051324 2275
25.1599995046854 2197
25.1799995042384 2194
25.1999995037913 2200
25.2199995033443 2149
25.2399995028973 2214
25.2599995024502 2289
25.2799995020032 2274
25.2999995015562 2237
25.3199995011091 2267
25.3399995006621 2191
25.3599995002151 2211
25.379999499768 2212
25.399999499321 2319
25.4199994988739 2257
25.4399994984269 2424
25.4599994979799 2477
25.4799994975328 2604
25.4999994970858 2785
25.5199994966388 3123
25.5399994961917 3294
25.5599994957447 3237
25.5799994952977 3117
25.5999994948506 2818
25.6199994944036 2496
25.6399994939566 2320
25.6599994935095 2227
25.6799994930625 2143
25.6999994926155 2063
25.7199994921684 2129
25.7399994917214 2071
25.7599994912744 2075
25.7799994908273 2149
25.7999994903803 2144
25.8199994899333 2101
25.8399994894862 2159
25.8599994890392 2012
25.8799994885921 2084
25.8999994881451 2052
25.9199994876981 2006
25.939999487251 2001
25.959999486804 1993
25.979999486357 1958
25.9999994859099 1984
26.0199994854629 2053
26.0399994850159 1959
26.0599994845688 2015
26.0799994841218 2048
26.0999994836748 2006
26.1199994832277 1962
26.1399994827807 1980
26.1599994823337 2015
26.1799994818866 1914
26.1999994814396 1938
26.2199994809926 1986
26.2399994805455 1968
26.2599994800985 1920
26.2799994796514 1915
26.2999994792044 1912
26.3199994787574 1902
26.3399994783103 1872
26.3599994778633 1909
26.3799994774163 1941
26.3999994769692 1957
26.4199994765222 1962
26.4399994760752 2032
26.4599994756281 1992
26.4799994751811 1988
26.4999994747341 2063
26.519999474287 2000
26.53999947384 2153
26.559999473393 2207
26.5799994729459 2321
26.5999994724989 2580
26.6199994720519 2633
26.6399994716048 2569
26.6599994711578 2474
26.6799994707108 2316
26.6999994702637 2154
26.7199994698167 2051
26.7399994693697 2103
26.7599994689226 1992
26.7799994684756 1908
26.7999994680285 1950
26.8199994675815 1943
26.8399994671345 1981
26.8599994666874 1961
26.8799994662404 1885
26.8999994657934 1908
26.9199994653463 1825
26.9399994648993 1864
26.9599994644523 1915
26.9799994640052 1846
26.9999994635582 1881
27.0199994631112 1881
27.0399994626641 1910
27.0599994622171 1777
27.0799994617701 1879
27.099999461323 1771
27.119999460876 1870
27.139999460429 1839
27.1599994599819 1835
27.1799994595349 1852
27.1999994590878 1811
27.2199994586408 1788
27.2399994581938 1822
27.2599994577467 1834
27.2799994572997 1932
27.2999994568527 1865
27.3199994564056 1957
27.3399994559586 1955
27.3599994555116 2011
27.3799994550645 2186
27.3999994546175 2220
27.4199994541705 2495
27.4399994537234 2719
27.4599994532764 2681
27.4799994528294 2541
27.4999994523823 2466
27.5199994519353 2237
27.5399994514883 2081
27.5599994510412 1945
27.5799994505942 1853
27.5999994501472 1755
27.6199994497001 1833
27.6399994492531 1815
27.659999448806 1787
27.679999448359 1715
27.699999447912 1752
27.7199994474649 1736
27.7399994470179 1773
27.7599994465709 1779
27.7799994461238 1821
27.7999994456768 1757
27.8199994452298 1692
27.8399994447827 1750
27.8599994443357 1708
27.8799994438887 1702
27.8999994434416 1703
27.9199994429946 1741
27.9399994425476 1778
27.9599994421005 1668
27.9799994416535 1691
27.9999994412065 1709
28.0199994407594 1708
28.0399994403124 1733
28.0599994398654 1698
28.0799994394183 1660
28.0999994389713 1764
28.1199994385242 1726
28.1399994380772 1686
28.1599994376302 1716
28.1799994371831 1795
28.1999994367361 1807
28.2199994362891 1874
28.239999435842 2010
28.259999435395 1918
28.279999434948 1903
28.2999994345009 1957
28.3199994340539 1826
28.3399994336069 1822
28.3599994331598 1740
28.3799994327128 1715
28.3999994322658 1692
28.4199994318187 1678
28.4399994313717 1660
28.4599994309247 1625
28.4799994304776 1691
28.4999994300306 1659
28.5199994295835 1673
28.5399994291365 1672
28.5599994286895 1597
28.5799994282424 1590
28.5999994277954 1643
28.6199994273484 1584
28.6399994269013 1585
28.6599994264543 1644
28.6799994260073 1624
28.6999994255602 1703
28.7199994251132 1648
28.7399994246662 1665
28.7599994242191 1751
28.7799994237721 1858
28.7999994233251 1988
28.819999422878 2133
28.839999422431 2390
28.859999421984 2348
28.8799994215369 2236
28.8999994210899 2113
28.9199994206429 2166
28.9399994201958 1956
28.9599994197488 2001
28.9799994193017 1951
28.9999994188547 1986
29.0199994184077 2106
29.0399994179606 2195
29.0599994175136 2227
29.0799994170666 2162
29.0999994166195 1999
29.1199994161725 1918
29.1399994157255 1816
29.1599994152784 1744
29.1799994148314 1693
29.1999994143844 1640
29.2199994139373 1600
29.2399994134903 1598
29.2599994130433 1552
29.2799994125962 1566
29.2999994121492 1533
29.3199994117022 1539
29.3399994112551 1472
29.3599994108081 1472
29.379999410361 1563
29.399999409914 1503
29.419999409467 1548
29.4399994090199 1476
29.4599994085729 1470
29.4799994081259 1608
29.4999994076788 1487
29.5199994072318 1469
29.5399994067848 1482
29.5599994063377 1485
29.5799994058907 1504
29.5999994054437 1465
29.6199994049966 1485
29.6399994045496 1445
29.6599994041026 1486
29.6799994036555 1467
29.6999994032085 1471
29.7199994027615 1462
29.7399994023144 1465
29.7599994018674 1476
29.7799994014204 1496
29.7999994009733 1460
29.8199994005263 1431
29.8399994000793 1523
29.8599993996322 1493
29.8799993991852 1521
29.8999993987381 1423
29.9199993982911 1505
29.9399993978441 1428
29.959999397397 1426
29.97999939695 1472
29.999999396503 1504
