3 2157
3.01999999955297 2055
3.03999999910593 1933
3.0599999986589 1873
3.07999999821186 1804
3.09999999776483 1733
3.11999999731779 1733
3.13999999687076 1647
3.15999999642372 1682
3.17999999597669 1695
3.19999999552965 1542
3.21999999508262 1626
3.23999999463558 1636
3.25999999418855 1678
3.27999999374151 1572
3.29999999329448 1519
3.31999999284744 1506
3.33999999240041 1439
3.35999999195337 1583
3.37999999150634 1550
3.3999999910593 1542
3.41999999061227 1499
3.43999999016523 1528
3.4599999897182 1494
3.47999998927116 1505
3.49999998882413 1453
3.51999998837709 1416
3.53999998793006 1381
3.55999998748302 1421
3.57999998703599 1424
3.59999998658895 1417
3.61999998614192 1370
3.63999998569489 1360
3.65999998524785 1343
3.67999998480082 1374
3.69999998435378 1369
3.71999998390675 1298
3.73999998345971 1322
3.75999998301268 1227
3.77999998256564 1278
3.79999998211861 1287
3.81999998167157 1261
3.83999998122454 1208
3.8599999807775 1218
3.87999998033047 1240
3.89999997988343 1226
3.9199999794364 1270
3.93999997898936 1223
3.95999997854233 1187
3.97999997809529 1217
3.99999997764826 1227
4.01999997720122 1143
4.03999997675419 1133
4.05999997630715 1138
4.07999997586012 1198
4.09999997541308 1181
4.11999997496605 1141
4.13999997451901 1180
4.15999997407198 1125
4.17999997362494 1151
4.19999997317791 1118
4.21999997273087 1099
4.23999997228384 1179
4.25999997183681 1054
4.27999997138977 1082
4.29999997094274 1075
4.3199999704957 1058
4.33999997004867 1070
4.35999996960163 1078
4.3799999691546 1099
4.39999996870756 1110
4.41999996826053 1044
4.43999996781349 1119
4.45999996736646 1062
4.47999996691942 1009
4.49999996647239 1031
4.51999996602535 1015
4.53999996557832 1061
4.55999996513128 1006
4.57999996468425 1050
4.59999996423721 1040
4.61999996379018 957
4.63999996334314 956
4.65999996289611 996
4.67999996244907 1040
4.69999996200204 1002
4.719999961555 993
4.73999996110797 958
4.75999996066093 1048
4.7799999602139 1007
4.79999995976686 1052
4.81999995931983 960
4.83999995887279 1028
4.85999995842576 995
4.87999995797873 986
4.89999995753169 1011
4.91999995708466 1023
4.93999995663762 909
4.95999995619059 1008
4.97999995574355 1017
4.99999995529652 1019
5.01999995484948 993
5.03999995440245 940
5.05999995395541 1009
5.07999995350838 990
5.09999995306134 973
5.11999995261431 975
5.13999995216727 983
5.15999995172024 887
5.1799999512732 957
5.19999995082617 988
5.21999995037913 917
5.2399999499321 954
5.25999994948506 946
5.27999994903803 978
5.29999994859099 964
5.31999994814396 945
5.33999994769692 968
5.35999994724989 990
5.37999994680285 992
5.39999994635582 970
5.41999994590878 974
5.43999994546175 961
5.45999994501471 1001
5.47999994456768 978
5.49999994412065 987
5.51999994367361 940
5.53999994322658 964
5.55999994277954 952
5.57999994233251 951
5.59999994188547 977
5.61999994143844 1000
5.6399999409914 953
5.65999994054437 988
5.67999994009733 1018
5.6999999396503 1047
5.71999993920326 1041
5.73999993875623 1097
5.75999993830919 1078
5.77999993786216 1058
5.79999993741512 1031
5.81999993696809 966
5.83999993652105 983
5.85999993607402 1007
5.87999993562698 978
5.89999993517995 930
5.91999993473291 1007
5.93999993428588 955
5.95999993383884 935
5.97999993339181 1027
5.99999993294477 990
6.01999993249774 919
6.0399999320507 1047
6.05999993160367 967
6.07999993115663 945
6.0999999307096 992
6.11999993026257 942
6.13999992981553 921
6.1599999293685 995
6.17999992892146 972
6.19999992847443 1009
6.21999992802739 1007
6.23999992758036 935
6.25999992713332 1010
6.27999992668629 974
6.29999992623925 985
6.31999992579222 1011
6.33999992534518 1021
6.35999992489815 973
6.37999992445111 998
6.39999992400408 986
6.41999992355704 961
6.43999992311001 965
6.45999992266297 971
6.47999992221594 995
6.4999999217689 1004
6.51999992132187 1033
6.53999992087483 1037
6.5599999204278 1019
6.57999991998076 1011
6.59999991953373 954
6.61999991908669 1046
6.63999991863966 930
6.65999991819262 1033
6.67999991774559 1040
6.69999991729855 1026
6.71999991685152 1000
6.73999991640449 1006
6.75999991595745 1016
6.77999991551042 1078
6.79999991506338 1007
6.81999991461635 985
6.83999991416931 1033
6.85999991372228 1043
6.87999991327524 936
6.89999991282821 978
6.91999991238117 999
6.93999991193414 992
6.9599999114871 964
6.97999991104007 1033
6.99999991059303 941
7.019999910146 979
7.03999990969896 1008
7.05999990925193 1032
7.07999990880489 1020
7.09999990835786 978
7.11999990791082 976
7.13999990746379 1038
7.15999990701675 991
7.17999990656972 1058
7.19999990612268 973
7.21999990567565 973
7.23999990522861 979
7.25999990478158 1046
7.27999990433454 1032
7.29999990388751 1016
7.31999990344047 998
7.33999990299344 945
7.35999990254641 968
7.37999990209937 1019
7.39999990165234 1042
7.4199999012053 990
7.43999990075827 1043
7.45999990031123 1065
7.4799998998642 967
7.49999989941716 980
7.51999989897013 991
7.53999989852309 999
7.55999989807606 1006
7.57999989762902 975
7.59999989718199 1016
7.61999989673495 966
7.63999989628792 960
7.65999989584088 966
7.67999989539385 987
7.69999989494681 990
7.71999989449978 962
7.73999989405274 990
7.75999989360571 1042
7.77999989315867 980
7.79999989271164 987
7.8199998922646 976
7.83999989181757 971
7.85999989137053 950
7.8799998909235 1008
7.89999989047646 972
7.91999989002943 958
7.9399998895824 948
7.95999988913536 965
7.97999988868833 1008
7.99999988824129 945
8.01999988779426 1018
8.03999988734722 994
8.05999988690019 972
8.07999988645315 1022
8.09999988600612 993
8.11999988555908 1029
8.13999988511205 979
8.15999988466501 987
8.17999988421798 1025
8.19999988377094 993
8.21999988332391 961
8.23999988287687 966
8.25999988242984 949
8.2799998819828 951
8.29999988153577 1005
8.31999988108873 990
8.3399998806417 971
8.35999988019466 989
8.37999987974763 998
8.39999987930059 1018
8.41999987885356 1007
8.43999987840652 974
8.45999987795949 993
8.47999987751245 967
8.49999987706542 963
8.51999987661839 949
8.53999987617135 983
8.55999987572432 1014
8.57999987527728 979
8.59999987483025 981
8.61999987438321 1025
8.63999987393618 998
8.65999987348914 993
8.67999987304211 1001
8.69999987259507 969
8.71999987214804 989
8.739999871701 984
8.75999987125397 951
8.77999987080693 1001
8.7999998703599 1001
8.81999986991286 975
8.83999986946583 1046
8.85999986901879 1003
8.87999986857176 990
8.89999986812472 931
8.91999986767769 926
8.93999986723065 969
8.95999986678362 1021
8.97999986633658 920
8.99999986588955 983
9.01999986544251 963
9.03999986499548 1005
9.05999986454844 948
9.07999986410141 944
9.09999986365438 1010
9.11999986320734 993
9.13999986276031 1013
9.15999986231327 1031
9.17999986186624 954
9.1999998614192 954
9.21999986097217 1006
9.23999986052513 1027
9.2599998600781 966
9.27999985963106 992
9.29999985918403 976
9.31999985873699 1064
9.33999985828996 982
9.35999985784292 1001
9.37999985739589 989
9.39999985694885 994
9.41999985650182 1009
9.43999985605478 993
9.45999985560775 925
9.47999985516071 1000
9.49999985471368 1025
9.51999985426664 972
9.53999985381961 963
9.55999985337257 980
9.57999985292554 975
9.5999998524785 933
9.61999985203147 976
9.63999985158443 959
9.6599998511374 937
9.67999985069037 988
9.69999985024333 992
9.7199998497963 980
9.73999984934926 1032
9.75999984890223 932
9.77999984845519 964
9.79999984800816 984
9.81999984756112 992
9.83999984711409 936
9.85999984666705 987
9.87999984622002 989
9.89999984577298 960
9.91999984532595 954
9.93999984487891 964
9.95999984443188 970
9.97999984398484 948
9.99999984353781 926
10.0199998430908 966
10.0399998426437 1005
10.0599998421967 952
10.0799998417497 1004
10.0999998413026 1007
10.1199998408556 974
10.1399998404086 1015
10.1599998399615 948
10.1799998395145 997
10.1999998390675 973
10.2199998386204 931
10.2399998381734 963
10.2599998377264 1016
10.2799998372793 917
10.2999998368323 1016
10.3199998363853 936
10.3399998359382 987
10.3599998354912 970
10.3799998350441 977
10.3999998345971 950
10.4199998341501 1035
10.439999833703 959
10.459999833256 907
10.479999832809 969
10.4999998323619 956
10.5199998319149 949
10.5399998314679 966
10.5599998310208 937
10.5799998305738 965
10.5999998301268 986
10.6199998296797 980
10.6399998292327 939
10.6599998287857 985
10.6799998283386 959
10.6999998278916 1025
10.7199998274446 984
10.7399998269975 981
10.7599998265505 931
10.7799998261034 989
10.7999998256564 914
10.8199998252094 943
10.8399998247623 993
10.8599998243153 914
10.8799998238683 988
10.8999998234212 957
10.9199998229742 997
10.9399998225272 1067
10.9599998220801 921
10.9799998216331 975
10.9999998211861 946
11.019999820739 1020
11.039999820292 960
11.059999819845 972
11.0799998193979 1001
11.0999998189509 1007
11.1199998185039 1035
11.1399998180568 984
11.1599998176098 1011
11.1799998171628 1031
11.1999998167157 995
11.2199998162687 1041
11.2399998158216 965
11.2599998153746 952
11.2799998149276 974
11.2999998144805 1008
11.3199998140335 970
11.3399998135865 951
11.3599998131394 995
11.3799998126924 969
11.3999998122454 1016
11.4199998117983 1032
11.4399998113513 978
11.4599998109043 1003
11.4799998104572 1030
11.4999998100102 1002
11.5199998095632 948
11.5399998091161 978
11.5599998086691 1002
11.5799998082221 995
11.599999807775 1061
11.619999807328 1025
11.639999806881 937
11.6599998064339 1040
11.6799998059869 985
11.6999998055398 941
11.7199998050928 994
11.7399998046458 939
11.7599998041987 1016
11.7799998037517 1000
11.7999998033047 971
11.8199998028576 995
11.8399998024106 992
11.8599998019636 998
11.8799998015165 1041
11.8999998010695 1007
11.9199998006225 1053
11.9399998001754 1004
11.9599997997284 1039
11.9799997992814 969
11.9999997988343 1077
12.0199997983873 1016
12.0399997979403 996
12.0599997974932 1049
12.0799997970462 985
12.0999997965992 1029
12.1199997961521 1007
12.1399997957051 978
12.159999795258 1050
12.179999794811 1048
12.199999794364 1047
12.2199997939169 1013
12.2399997934699 1008
12.2599997930229 1043
12.2799997925758 1025
12.2999997921288 1004
12.3199997916818 1037
12.3399997912347 1012
12.3599997907877 1087
12.3799997903407 955
12.3999997898936 1030
12.4199997894466 997
12.4399997889996 982
12.4599997885525 1035
12.4799997881055 979
12.4999997876585 1051
12.5199997872114 1036
12.5399997867644 1042
12.5599997863173 1049
12.5799997858703 1034
12.5999997854233 1034
12.6199997849762 1018
12.6399997845292 1063
12.6599997840822 1088
12.6799997836351 1059
12.6999997831881 1088
12.7199997827411 1075
12.739999782294 1078
12.759999781847 1066
12.7799997814 1050
12.7999997809529 1017
12.8199997805059 1076
12.8399997800589 1068
12.8599997796118 1073
12.8799997791648 1047
12.8999997787178 1055
12.9199997782707 1070
12.9399997778237 1064
12.9599997773767 1081
12.9799997769296 1068
12.9999997764826 1094
13.0199997760355 1060
13.0399997755885 1120
13.0599997751415 1101
13.0799997746944 1069
13.0999997742474 1071
13.1199997738004 1059
13.1399997733533 1080
13.1599997729063 1085
13.1799997724593 1146
13.1999997720122 1146
13.2199997715652 1189
13.2399997711182 1168
13.2599997706711 1211
13.2799997702241 1175
13.2999997697771 1206
13.31999976933 1154
13.339999768883 1130
13.359999768436 1118
13.3799997679889 1068
13.3999997675419 1113
13.4199997670949 1120
13.4399997666478 1078
13.4599997662008 1076
13.4799997657537 1085
13.4999997653067 1090
13.5199997648597 1102
13.5399997644126 1055
13.5599997639656 1088
13.5799997635186 1022
13.5999997630715 1129
13.6199997626245 1007
13.6399997621775 1091
13.6599997617304 1111
13.6799997612834 1094
13.6999997608364 1134
13.7199997603893 1114
13.7399997599423 1071
13.7599997594953 1132
13.7799997590482 1144
13.7999997586012 1133
13.8199997581542 1109
13.8399997577071 1145
13.8599997572601 1100
13.879999756813 1095
13.899999756366 1110
13.919999755919 1105
13.9399997554719 1157
13.9599997550249 1161
13.9799997545779 1105
13.9999997541308 1129
14.0199997536838 1167
14.0399997532368 1116
14.0599997527897 1136
14.0799997523427 1055
14.0999997518957 1066
14.1199997514486 1124
14.1399997510016 1142
14.1599997505546 1116
14.1799997501075 1135
14.1999997496605 1111
14.2199997492135 1152
14.2399997487664 1112
14.2599997483194 1156
14.2799997478724 1145
14.2999997474253 1172
14.3199997469783 1155
14.3399997465312 1084
14.3599997460842 1087
14.3799997456372 1159
14.3999997451901 1177
14.4199997447431 1230
14.4399997442961 1199
14.459999743849 1149
14.479999743402 1187
14.499999742955 1127
14.5199997425079 1135
14.5399997420609 1143
14.5599997416139 1158
14.5799997411668 1156
14.5999997407198 1135
14.6199997402728 1144
14.6399997398257 1138
14.6599997393787 1171
14.6799997389317 1208
14.6999997384846 1125
14.7199997380376 1230
14.7399997375906 1197
14.7599997371435 1199
14.7799997366965 1149
14.7999997362494 1224
14.8199997358024 1222
14.8399997353554 1191
14.8599997349083 1169
14.8799997344613 1222
14.8999997340143 1184
14.9199997335672 1244
14.9399997331202 1238
14.9599997326732 1176
14.9799997322261 1219
14.9999997317791 1242
15.0199997313321 1184
15.039999730885 1266
15.059999730438 1192
15.079999729991 1247
15.0999997295439 1289
15.1199997290969 1271
15.1399997286499 1210
15.1599997282028 1193
15.1799997277558 1287
15.1999997273088 1274
15.2199997268617 1245
15.2399997264147 1216
15.2599997259676 1261
15.2799997255206 1306
15.2999997250736 1299
15.3199997246265 1288
15.3399997241795 1295
15.3599997237325 1273
15.3799997232854 1349
15.3999997228384 1287
15.4199997223914 1315
15.4399997219443 1301
15.4599997214973 1305
15.4799997210503 1289
15.4999997206032 1330
15.5199997201562 1253
15.5399997197092 1301
15.5599997192621 1255
15.5799997188151 1315
15.5999997183681 1345
15.619999717921 1308
15.639999717474 1276
15.659999717027 1333
15.6799997165799 1354
15.6999997161329 1292
15.7199997156858 1277
15.7399997152388 1335
15.7599997147918 1283
15.7799997143447 1354
15.7999997138977 1330
15.8199997134507 1358
15.8399997130036 1341
15.8599997125566 1365
15.8799997121096 1358
15.8999997116625 1343
15.9199997112155 1365
15.9399997107685 1366
15.9599997103214 1382
15.9799997098744 1380
15.9999997094274 1370
16.0199997089803 1367
16.0399997085333 1391
16.0599997080863 1420
16.0799997076392 1420
16.0999997071922 1372
16.1199997067451 1379
16.1399997062981 1443
16.1599997058511 1405
16.179999705404 1388
16.199999704957 1467
16.21999970451 1384
16.2399997040629 1370
16.2599997036159 1480
16.2799997031689 1390
16.2999997027218 1511
16.3199997022748 1434
16.3399997018278 1485
16.3599997013807 1420
16.3799997009337 1541
16.3999997004867 1509
16.4199997000396 1525
16.4399996995926 1523
16.4599996991456 1477
16.4799996986985 1494
16.4999996982515 1508
16.5199996978045 1553
16.5399996973574 1524
16.5599996969104 1536
16.5799996964633 1554
16.5999996960163 1599
16.6199996955693 1638
16.6399996951222 1608
16.6599996946752 1653
16.6799996942282 1638
16.6999996937811 1713
16.7199996933341 1800
16.7399996928871 1898
16.75999969244 2011
16.779999691993 2053
16.799999691546 2185
16.8199996910989 2363
16.8399996906519 2583
16.8599996902049 2779
16.8799996897578 3194
16.8999996893108 3577
16.9199996888638 4139
16.9399996884167 4968
16.9599996879697 5916
16.9799996875226 6898
16.9999996870756 7559
17.0199996866286 7467
17.0399996861815 6490
17.0599996857345 5205
17.0799996852875 3844
17.0999996848404 2757
17.1199996843934 2241
17.1399996839464 1913
17.1599996834993 1783
17.1799996830523 1861
17.1999996826053 1769
17.2199996821582 1744
17.2399996817112 1671
17.2599996812642 1689
17.2799996808171 1721
17.2999996803701 1722
17.3199996799231 1707
17.339999679476 1698
17.359999679029 1793
17.379999678582 1695
17.3999996781349 1778
17.4199996776879 1668
17.4399996772408 1674
17.4599996767938 1683
17.4799996763468 1719
17.4999996758997 1745
17.5199996754527 1691
17.5399996750057 1779
17.5599996745586 1752
17.5799996741116 1742
17.5999996736646 1799
17.6199996732175 1794
17.6399996727705 1777
17.6599996723235 1704
17.6799996718764 1846
17.6999996714294 1803
17.7199996709824 1824
17.7399996705353 1783
17.7599996700883 1769
17.7799996696413 1801
17.7999996691942 1799
17.8199996687472 1715
17.8399996683002 1722
17.8599996678531 1811
17.8799996674061 1764
17.899999666959 1843
17.919999666512 1914
17.939999666065 1885
17.9599996656179 1848
17.9799996651709 1845
17.9999996647239 1834
18.0199996642768 1876
18.0399996638298 1817
18.0599996633828 1838
18.0799996629357 1749
18.0999996624887 1921
18.1199996620417 1967
18.1399996615946 1888
18.1599996611476 1870
18.1799996607006 1909
18.1999996602535 1902
18.2199996598065 1959
18.2399996593595 1896
18.2599996589124 1809
18.2799996584654 1940
18.2999996580184 1975
18.3199996575713 1923
18.3399996571243 1933
18.3599996566772 1920
18.3799996562302 1973
18.3999996557832 2002
18.4199996553361 1906
18.4399996548891 1970
18.4599996544421 2003
18.479999653995 1992
18.499999653548 1888
18.519999653101 2035
18.5399996526539 2004
18.5599996522069 2065
18.5799996517599 1968
18.5999996513128 2024
18.6199996508658 2011
18.6399996504188 2073
18.6599996499717 2005
18.6799996495247 2010
18.6999996490777 2001
18.7199996486306 2094
18.7399996481836 2069
18.7599996477366 2003
18.7799996472895 2016
18.7999996468425 2106
18.8199996463954 2118
18.8399996459484 1997
18.8599996455014 2174
18.8799996450543 2056
18.8999996446073 2066
18.9199996441603 2045
18.9399996437132 2091
18.9599996432662 2172
18.9799996428192 2028
18.9999996423721 2108
19.0199996419251 2187
19.0399996414781 2104
19.059999641031 2161
19.079999640584 2097
19.099999640137 2141
19.1199996396899 2236
19.1399996392429 2119
19.1599996387959 2088
19.1799996383488 2175
19.1999996379018 2233
19.2199996374547 2178
19.2399996370077 2232
19.2599996365607 2146
19.2799996361136 2144
19.2999996356666 2168
19.3199996352196 2295
19.3399996347725 2227
19.3599996343255 2221
19.3799996338785 2239
19.3999996334314 2239
19.4199996329844 2222
19.4399996325374 2195
19.4599996320903 2267
19.4799996316433 2286
19.4999996311963 2235
19.5199996307492 2224
19.5399996303022 2278
19.5599996298552 2277
19.5799996294081 2270
19.5999996289611 2229
19.6199996285141 2282
19.639999628067 2274
19.65999962762 2296
19.6799996271729 2296
19.6999996267259 2295
19.7199996262789 2359
19.7399996258318 2293
19.7599996253848 2362
19.7799996249378 2438
19.7999996244907 2314
19.8199996240437 2308
19.8399996235967 2282
19.8599996231496 2332
19.8799996227026 2388
19.8999996222556 2355
19.9199996218085 2344
19.9399996213615 2436
19.9599996209145 2381
19.9799996204674 2352
19.9999996200204 2362
20.0199996195734 2274
20.0399996191263 2311
20.0599996186793 2385
20.0799996182322 2292
20.0999996177852 2351
20.1199996173382 2374
20.1399996168911 2398
20.1599996164441 2322
20.1799996159971 2452
20.19999961555 2377
20.219999615103 2374
20.239999614656 2397
20.2599996142089 2467
20.2799996137619 2387
20.2999996133149 2312
20.3199996128678 2410
20.3399996124208 2381
20.3599996119738 2401
20.3799996115267 2464
20.3999996110797 2341
20.4199996106327 2417
20.4399996101856 2458
20.4599996097386 2396
20.4799996092916 2489
20.4999996088445 2421
20.5199996083975 2404
20.5399996079504 2442
20.5599996075034 2409
20.5799996070564 2374
20.5999996066093 2388
20.6199996061623 2396
20.6399996057153 2384
20.6599996052682 2421
20.6799996048212 2521
20.6999996043742 2417
20.7199996039271 2477
20.7399996034801 2454
20.7599996030331 2475
20.779999602586 2441
20.799999602139 2442
20.819999601692 2495
20.8399996012449 2509
20.8599996007979 2569
20.8799996003509 2451
20.8999995999038 2481
20.9199995994568 2460
20.9399995990098 2487
20.9599995985627 2392
20.9799995981157 2532
20.9999995976686 2449
21.0199995972216 2486
21.0399995967746 2513
21.0599995963275 2495
21.0799995958805 2447
21.0999995954335 2506
21.1199995949864 2480
21.1399995945394 2490
21.1599995940924 2521
21.1799995936453 2434
21.1999995931983 2476
21.2199995927513 2372
21.2399995923042 2425
21.2599995918572 2525
21.2799995914102 2474
21.2999995909631 2471
21.3199995905161 2500
21.3399995900691 2427
21.359999589622 2395
21.379999589175 2467
21.399999588728 2414
21.4199995882809 2455
21.4399995878339 2395
21.4599995873868 2433
21.4799995869398 2366
21.4999995864928 2480
21.5199995860457 2430
21.5399995855987 2444
21.5599995851517 2398
21.5799995847046 2373
21.5999995842576 2448
21.6199995838106 2447
21.6399995833635 2448
21.6599995829165 2484
21.6799995824695 2489
21.6999995820224 2425
21.7199995815754 2417
21.7399995811284 2524
21.7599995806813 2476
21.7799995802343 2449
21.7999995797873 2427
21.8199995793402 2424
21.8399995788932 2437
21.8599995784462 2407
21.8799995779991 2478
21.8999995775521 2348
21.919999577105 2411
21.939999576658 2449
21.959999576211 2349
21.9799995757639 2459
21.9999995753169 2419
22.0199995748699 2409
22.0399995744228 2370
22.0599995739758 2385
22.0799995735288 2404
22.0999995730817 2476
22.1199995726347 2435
22.1399995721877 2358
22.1599995717406 2458
22.1799995712936 2426
22.1999995708466 2402
22.2199995703995 2356
22.2399995699525 2401
22.2599995695055 2443
22.2799995690584 2381
22.2999995686114 2356
22.3199995681643 2391
22.3399995677173 2399
22.3599995672703 2343
22.3799995668232 2293
22.3999995663762 2448
22.4199995659292 2364
22.4399995654821 2394
22.4599995650351 2384
22.4799995645881 2410
22.499999564141 2285
22.519999563694 2334
22.539999563247 2369
22.5599995627999 2372
22.5799995623529 2370
22.5999995619059 2409
22.6199995614588 2344
22.6399995610118 2399
22.6599995605648 2308
22.6799995601177 2343
22.6999995596707 2346
22.7199995592237 2324
22.7399995587766 2261
22.7599995583296 2332
22.7799995578825 2317
22.7999995574355 2359
22.8199995569885 2329
22.8399995565414 2301
22.8599995560944 2348
22.8799995556474 2292
22.8999995552003 2282
22.9199995547533 2340
22.9399995543063 2271
22.9599995538592 2236
22.9799995534122 2333
22.9999995529652 2320
23.0199995525181 2313
23.0399995520711 2271
23.0599995516241 2354
23.079999551177 2228
23.09999955073 2307
23.119999550283 2275
23.1399995498359 2321
23.1599995493889 2295
23.1799995489418 2373
23.1999995484948 2181
23.2199995480478 2307
23.2399995476007 2267
23.2599995471537 2192
23.2799995467067 2145
23.2999995462596 2288
23.3199995458126 2277
23.3399995453656 2225
23.3599995449185 2255
23.3799995444715 2322
23.3999995440245 2316
23.4199995435774 2294
23.4399995431304 2234
23.4599995426834 2181
23.4799995422363 2324
23.4999995417893 2260
23.5199995413423 2193
23.5399995408952 2185
23.5599995404482 2180
23.5799995400012 2241
23.5999995395541 2176
23.6199995391071 2191
23.63999953866 2199
23.659999538213 2188
23.679999537766 2223
23.6999995373189 2129
23.7199995368719 2129
23.7399995364249 2143
23.7599995359778 2014
23.7799995355308 2129
23.7999995350838 2190
23.8199995346367 2152
23.8399995341897 2168
23.8599995337427 2106
23.8799995332956 2116
23.8999995328486 2167
23.9199995324016 2209
23.9399995319545 2142
23.9599995315075 2086
23.9799995310605 2156
23.9999995306134 2143
24.0199995301664 2093
24.0399995297194 2107
24.0599995292723 2238
24.0799995288253 2154
24.0999995283782 2102
24.1199995279312 2063
24.1399995274842 2135
24.1599995270371 2144
24.1799995265901 2157
24.1999995261431 2168
24.219999525696 2161
24.239999525249 2163
24.259999524802 2121
24.2799995243549 2227
24.2999995239079 2290
24.3199995234609 2329
24.3399995230138 2372
24.3599995225668 2322
24.3799995221198 2565
24.3999995216727 2576
24.4199995212257 2609
24.4399995207787 2783
24.4599995203316 2909
24.4799995198846 3053
24.4999995194376 3094
24.5199995189905 3231
24.5399995185435 3234
24.5599995180964 3273
24.5799995176494 3129
24.5999995172024 2900
24.6199995167553 2803
24.6399995163083 2657
24.6599995158613 2552
24.6799995154142 2483
24.6999995149672 2313
24.7199995145202 2232
24.7399995140731 2175
24.7599995136261 2118
24.7799995131791 2203
24.799999512732 2180
24.819999512285 2049
24.839999511838 1990
24.8599995113909 2044
24.8799995109439 2012
24.8999995104969 2054
24.9199995100498 2049
24.9399995096028 2030
24.9599995091558 2069
24.9799995087087 2047
24.9999995082617 2082
25.0199995078146 2107
25.0399995073676 2135
25.0599995069206 2224
25.0799995064735 2211
25.0999995060265 2355
25.1199995055795 2452
25.1399995051324 2483
25.1599995046854 2756
25.1799995042384 3085
25.1999995037913 3385
25.2199995033443 3944
25.2399995028973 4485
25.2599995024502 4820
25.2799995020032 5056
25.2999995015562 5046
25.3199995011091 4761
25.3399995006621 4354
25.3599995002151 3800
25.379999499768 3292
25.399999499321 2850
25.4199994988739 2528
25.4399994984269 2317
25.4599994979799 2171
25.4799994975328 2044
25.4999994970858 1973
25.5199994966388 2048
25.5399994961917 1937
25.5599994957447 1922
25.5799994952977 1879
25.5999994948506 1806
25.6199994944036 1878
25.6399994939566 1880
25.6599994935095 1872
25.6799994930625 1809
25.6999994926155 1887
25.7199994921684 1826
25.7399994917214 1793
25.7599994912744 1749
25.7799994908273 1786
25.7999994903803 1804
25.8199994899333 1774
25.8399994894862 1884
25.8599994890392 1838
25.8799994885921 1834
25.8999994881451 1784
25.9199994876981 1793
25.939999487251 1744
25.959999486804 1764
25.979999486357 1811
25.9999994859099 1824
26.0199994854629 1732
26.0399994850159 1682
26.0599994845688 1816
26.0799994841218 1760
26.0999994836748 1774
26.1199994832277 1815
26.1399994827807 1674
26.1599994823337 1765
26.1799994818866 1695
26.1999994814396 1700
26.2199994809926 1778
26.2399994805455 1707
26.2599994800985 1692
26.2799994796514 1764
26.2999994792044 1730
26.3199994787574 1769
26.3399994783103 1802
26.3599994778633 1740
26.3799994774163 1775
26.3999994769692 1770
26.4199994765222 1774
26.4399994760752 1800
26.4599994756281 1822
26.4799994751811 1819
26.4999994747341 1821
26.519999474287 1811
26.53999947384 1857
26.559999473393 1861
26.5799994729459 2056
26.5999994724989 2076
26.6199994720519 2168
26.6399994716048 2240
26.6599994711578 2275
26.6799994707108 2283
26.6999994702637 2319
26.7199994698167 2459
26.7399994693697 2494
26.7599994689226 2615
26.7799994684756 2821
26.7999994680285 3038
26.8199994675815 3197
26.8399994671345 3548
26.8599994666874 3794
26.8799994662404 4016
26.8999994657934 4075
26.9199994653463 3784
26.9399994648993 3638
26.9599994644523 3297
26.9799994640052 3005
26.9999994635582 2778
27.0199994631112 2461
27.0399994626641 2235
27.0599994622171 2024
27.0799994617701 1919
27.099999461323 1883
27.119999460876 1772
27.139999460429 1778
27.1599994599819 1662
27.1799994595349 1599
27.1999994590878 1701
27.2199994586408 1602
27.2399994581938 1580
27.2599994577467 1627
27.2799994572997 1614
27.2999994568527 1686
27.3199994564056 1592
27.3399994559586 1594
27.3599994555116 1573
27.3799994550645 1598
27.3999994546175 1550
27.4199994541705 1577
27.4399994537234 1632
27.4599994532764 1578
27.4799994528294 1554
27.4999994523823 1538
27.5199994519353 1587
27.5399994514883 1601
27.5599994510412 1574
27.5799994505942 1624
27.5999994501472 1580
27.6199994497001 1562
27.6399994492531 1537
27.659999448806 1554
27.679999448359 1566
27.699999447912 1531
27.7199994474649 1578
27.7399994470179 1526
27.7599994465709 1570
27.7799994461238 1556
27.7999994456768 1552
27.8199994452298 1496
27.8399994447827 1507
27.8599994443357 1533
27.8799994438887 1509
27.8999994434416 1572
27.9199994429946 1522
27.9399994425476 1528
27.9599994421005 1491
27.9799994416535 1548
27.9999994412065 1554
28.0199994407594 1476
28.0399994403124 1528
28.0599994398654 1526
28.0799994394183 1597
28.0999994389713 1657
28.1199994385242 1648
28.1399994380772 1622
28.1599994376302 1673
28.1799994371831 1632
28.1999994367361 1650
28.2199994362891 1574
28.239999435842 1574
28.259999435395 1509
28.279999434948 1495
28.2999994345009 1524
28.3199994340539 1474
28.3399994336069 1495
28.3599994331598 1475
28.3799994327128 1445
28.3999994322658 1395
28.4199994318187 1485
28.4399994313717 1516
28.4599994309247 1433
28.4799994304776 1500
28.4999994300306 1489
28.5199994295835 1507
28.5399994291365 1502
28.5599994286895 1556
28.5799994282424 1501
28.5999994277954 1525
28.6199994273484 1574
28.6399994269013 1573
28.6599994264543 1509
28.6799994260073 1567
28.6999994255602 1470
28.7199994251132 1500
28.7399994246662 1378
28.7599994242191 1467
28.7799994237721 1466
28.7999994233251 1397
28.819999422878 1425
28.839999422431 1480
28.859999421984 1406
28.8799994215369 1475
28.8999994210899 1423
28.9199994206429 1456
28.9399994201958 1485
28.9599994197488 1464
28.9799994193017 1463
28.9999994188547 1470
29.0199994184077 1503
29.0399994179606 1538
29.0599994175136 1598
29.0799994170666 1626
29.0999994166195 1683
29.1199994161725 1655
29.1399994157255 1691
29.1599994152784 1793
29.1799994148314 1798
29.1999994143844 1819
29.2199994139373 1824
29.2399994134903 1953
29.2599994130433 1921
29.2799994125962 1798
29.2999994121492 1730
29.3199994117022 1724
29.3399994112551 1645
29.3599994108081 1578
29.379999410361 1531
29.399999409914 1526
29.419999409467 1427
29.4399994090199 1437
29.4599994085729 1402
29.4799994081259 1384
29.4999994076788 1370
29.5199994072318 1362
29.5399994067848 1389
29.5599994063377 1287
29.5799994058907 1345
29.5999994054437 1375
29.6199994049966 1344
29.6399994045496 1312
29.6599994041026 1281
29.6799994036555 1274
29.6999994032085 1277
29.7199994027615 1310
29.7399994023144 1293
29.7599994018674 1289
29.7799994014204 1352
29.7999994009733 1321
29.8199994005263 1304
29.8399994000793 1353
29.8599993996322 1285
29.8799993991852 1280
29.8999993987381 1282
29.9199993982911 1249
29.9399993978441 1250
29.959999397397 1361
29.97999939695 1329
29.999999396503 1294
