3 1983
3.01999999955297 1937
3.03999999910593 1818
3.0599999986589 1755
3.07999999821186 1638
3.09999999776483 1622
3.11999999731779 1567
3.13999999687076 1509
3.15999999642372 1535
3.17999999597669 1487
3.19999999552965 1483
3.21999999508262 1432
3.23999999463558 1433
3.25999999418855 1427
3.27999999374151 1395
3.29999999329448 1386
3.31999999284744 1368
3.33999999240041 1364
3.35999999195337 1365
3.37999999150634 1345
3.3999999910593 1288
3.41999999061227 1363
3.43999999016523 1289
3.4599999897182 1292
3.47999998927116 1285
3.49999998882413 1260
3.51999998837709 1301
3.53999998793006 1245
3.55999998748302 1178
3.57999998703599 1249
3.59999998658895 1222
3.61999998614192 1219
3.63999998569489 1162
3.65999998524785 1177
3.67999998480082 1178
3.69999998435378 1166
3.71999998390675 1108
3.73999998345971 1161
3.75999998301268 1160
3.77999998256564 1165
3.79999998211861 1089
3.81999998167157 1129
3.83999998122454 1045
3.8599999807775 1020
3.87999998033047 1047
3.89999997988343 1067
3.9199999794364 1005
3.93999997898936 1015
3.95999997854233 1031
3.97999997809529 1026
3.99999997764826 1038
4.01999997720122 986
4.03999997675419 1041
4.05999997630715 946
4.07999997586012 923
4.09999997541308 953
4.11999997496605 929
4.13999997451901 956
4.15999997407198 965
4.17999997362494 860
4.19999997317791 878
4.21999997273087 946
4.23999997228384 920
4.25999997183681 872
4.27999997138977 908
4.29999997094274 906
4.3199999704957 865
4.33999997004867 872
4.35999996960163 867
4.3799999691546 862
4.39999996870756 845
4.41999996826053 872
4.43999996781349 831
4.45999996736646 802
4.47999996691942 853
4.49999996647239 863
4.51999996602535 845
4.53999996557832 826
4.55999996513128 828
4.57999996468425 796
4.59999996423721 764
4.61999996379018 785
4.63999996334314 791
4.65999996289611 807
4.67999996244907 758
4.69999996200204 799
4.719999961555 805
4.73999996110797 804
4.75999996066093 775
4.7799999602139 790
4.79999995976686 756
4.81999995931983 776
4.83999995887279 759
4.85999995842576 785
4.87999995797873 739
4.89999995753169 808
4.91999995708466 751
4.93999995663762 764
4.95999995619059 670
4.97999995574355 747
4.99999995529652 766
5.01999995484948 706
5.03999995440245 705
5.05999995395541 747
5.07999995350838 783
5.09999995306134 734
5.11999995261431 693
5.13999995216727 732
5.15999995172024 715
5.1799999512732 679
5.19999995082617 719
5.21999995037913 748
5.2399999499321 718
5.25999994948506 697
5.27999994903803 737
5.29999994859099 702
5.31999994814396 719
5.33999994769692 688
5.35999994724989 684
5.37999994680285 731
5.39999994635582 681
5.41999994590878 683
5.43999994546175 726
5.45999994501471 732
5.47999994456768 675
5.49999994412065 721
5.51999994367361 691
5.53999994322658 670
5.55999994277954 701
5.57999994233251 706
5.59999994188547 699
5.61999994143844 698
5.6399999409914 678
5.65999994054437 692
5.67999994009733 671
5.6999999396503 660
5.71999993920326 718
5.73999993875623 721
5.75999993830919 696
5.77999993786216 679
5.79999993741512 709
5.81999993696809 690
5.83999993652105 714
5.85999993607402 711
5.87999993562698 712
5.89999993517995 693
5.91999993473291 726
5.93999993428588 708
5.95999993383884 721
5.97999993339181 750
5.99999993294477 693
6.01999993249774 761
6.0399999320507 725
6.05999993160367 666
6.07999993115663 744
6.0999999307096 682
6.11999993026257 704
6.13999992981553 671
6.1599999293685 702
6.17999992892146 708
6.19999992847443 709
6.21999992802739 699
6.23999992758036 700
6.25999992713332 728
6.27999992668629 653
6.29999992623925 672
6.31999992579222 677
6.33999992534518 675
6.35999992489815 679
6.37999992445111 673
6.39999992400408 693
6.41999992355704 679
6.43999992311001 751
6.45999992266297 716
6.47999992221594 695
6.4999999217689 659
6.51999992132187 663
6.53999992087483 744
6.5599999204278 728
6.57999991998076 699
6.59999991953373 723
6.61999991908669 713
6.63999991863966 726
6.65999991819262 682
6.67999991774559 674
6.69999991729855 709
6.71999991685152 759
6.73999991640449 708
6.75999991595745 704
6.77999991551042 738
6.79999991506338 737
6.81999991461635 711
6.83999991416931 768
6.85999991372228 728
6.87999991327524 688
6.89999991282821 747
6.91999991238117 700
6.93999991193414 737
6.9599999114871 714
6.97999991104007 726
6.99999991059303 704
7.019999910146 732
7.03999990969896 655
7.05999990925193 728
7.07999990880489 712
7.09999990835786 702
7.11999990791082 664
7.13999990746379 719
7.15999990701675 719
7.17999990656972 707
7.19999990612268 750
7.21999990567565 742
7.23999990522861 730
7.25999990478158 694
7.27999990433454 755
7.29999990388751 722
7.31999990344047 672
7.33999990299344 742
7.35999990254641 697
7.37999990209937 695
7.39999990165234 710
7.4199999012053 766
7.43999990075827 739
7.45999990031123 730
7.4799998998642 685
7.49999989941716 770
7.51999989897013 792
7.53999989852309 708
7.55999989807606 717
7.57999989762902 760
7.59999989718199 744
7.61999989673495 750
7.63999989628792 734
7.65999989584088 726
7.67999989539385 713
7.69999989494681 754
7.71999989449978 718
7.73999989405274 722
7.75999989360571 726
7.77999989315867 740
7.79999989271164 754
7.8199998922646 724
7.83999989181757 784
7.85999989137053 757
7.8799998909235 767
7.89999989047646 837
7.91999989002943 747
7.9399998895824 783
7.95999988913536 762
7.97999988868833 790
7.99999988824129 802
8.01999988779426 793
8.03999988734722 811
8.05999988690019 797
8.07999988645315 806
8.09999988600612 841
8.11999988555908 883
8.13999988511205 849
8.15999988466501 872
8.17999988421798 800
8.19999988377094 822
8.21999988332391 813
8.23999988287687 878
8.25999988242984 830
8.2799998819828 852
8.29999988153577 901
8.31999988108873 916
8.3399998806417 894
8.35999988019466 950
8.37999987974763 948
8.39999987930059 1051
8.41999987885356 964
8.43999987840652 1036
8.45999987795949 1116
8.47999987751245 1143
8.49999987706542 1273
8.51999987661839 1276
8.53999987617135 1378
8.55999987572432 1468
8.57999987527728 1543
8.59999987483025 1646
8.61999987438321 1822
8.63999987393618 1828
8.65999987348914 2065
8.67999987304211 2268
8.69999987259507 2493
8.71999987214804 2715
8.739999871701 2960
8.75999987125397 3393
8.77999987080693 3830
8.7999998703599 4573
8.81999986991286 5836
8.83999986946583 6809
8.85999986901879 7394
8.87999986857176 6714
8.89999986812472 5386
8.91999986767769 4449
8.93999986723065 4031
8.95999986678362 4311
8.97999986633658 4979
8.99999986588955 5855
9.01999986544251 5840
9.03999986499548 4398
9.05999986454844 2845
9.07999986410141 1742
9.09999986365438 1291
9.11999986320734 1210
9.13999986276031 1102
9.15999986231327 1050
9.17999986186624 976
9.1999998614192 1034
9.21999986097217 1010
9.23999986052513 970
9.2599998600781 1005
9.27999985963106 962
9.29999985918403 987
9.31999985873699 976
9.33999985828996 1020
9.35999985784292 949
9.37999985739589 1028
9.39999985694885 1026
9.41999985650182 1031
9.43999985605478 1095
9.45999985560775 1038
9.47999985516071 1061
9.49999985471368 1064
9.51999985426664 1120
9.53999985381961 1121
9.55999985337257 1221
9.57999985292554 1209
9.5999998524785 1283
9.61999985203147 1341
9.63999985158443 1470
9.6599998511374 1549
9.67999985069037 1623
9.69999985024333 1727
9.7199998497963 1895
9.73999984934926 2011
9.75999984890223 2188
9.77999984845519 2388
9.79999984800816 2708
9.81999984756112 3080
9.83999984711409 3521
9.85999984666705 4345
9.87999984622002 5377
9.89999984577298 6513
9.91999984532595 7354
9.93999984487891 6476
9.95999984443188 4687
9.97999984398484 3092
9.99999984353781 2019
10.0199998430908 1502
10.0399998426437 1248
10.0599998421967 1169
10.0799998417497 1097
10.0999998413026 1025
10.1199998408556 1017
10.1399998404086 984
10.1599998399615 944
10.1799998395145 942
10.1999998390675 885
10.2199998386204 905
10.2399998381734 889
10.2599998377264 852
10.2799998372793 898
10.2999998368323 899
10.3199998363853 901
10.3399998359382 901
10.3599998354912 817
10.3799998350441 888
10.3999998345971 908
10.4199998341501 800
10.439999833703 811
10.459999833256 874
10.479999832809 840
10.4999998323619 845
10.5199998319149 784
10.5399998314679 849
10.5599998310208 824
10.5799998305738 839
10.5999998301268 877
10.6199998296797 824
10.6399998292327 837
10.6599998287857 804
10.6799998283386 829
10.6999998278916 798
10.7199998274446 823
10.7399998269975 789
10.7599998265505 826
10.7799998261034 785
10.7999998256564 782
10.8199998252094 770
10.8399998247623 756
10.8599998243153 802
10.8799998238683 863
10.8999998234212 814
10.9199998229742 796
10.9399998225272 818
10.9599998220801 805
10.9799998216331 789
10.9999998211861 768
11.019999820739 831
11.039999820292 820
11.059999819845 754
11.0799998193979 779
11.0999998189509 838
11.1199998185039 769
11.1399998180568 793
11.1599998176098 843
11.1799998171628 846
11.1999998167157 819
11.2199998162687 831
11.2399998158216 824
11.2599998153746 814
11.2799998149276 780
11.2999998144805 788
11.3199998140335 801
11.3399998135865 815
11.3599998131394 845
11.3799998126924 846
11.3999998122454 826
11.4199998117983 779
11.4399998113513 830
11.4599998109043 782
11.4799998104572 787
11.4999998100102 790
11.5199998095632 848
11.5399998091161 802
11.5599998086691 817
11.5799998082221 787
11.599999807775 824
11.619999807328 804
11.639999806881 857
11.6599998064339 823
11.6799998059869 778
11.6999998055398 819
11.7199998050928 776
11.7399998046458 801
11.7599998041987 785
11.7799998037517 789
11.7999998033047 789
11.8199998028576 772
11.8399998024106 826
11.8599998019636 824
11.8799998015165 842
11.8999998010695 793
11.9199998006225 823
11.9399998001754 806
11.9599997997284 830
11.9799997992814 832
11.9999997988343 803
12.0199997983873 807
12.0399997979403 833
12.0599997974932 841
12.0799997970462 916
12.0999997965992 904
12.1199997961521 847
12.1399997957051 862
12.159999795258 829
12.179999794811 862
12.199999794364 832
12.2199997939169 889
12.2399997934699 873
12.2599997930229 905
12.2799997925758 844
12.2999997921288 938
12.3199997916818 921
12.3399997912347 921
12.3599997907877 965
12.3799997903407 982
12.3999997898936 1079
12.4199997894466 1095
12.4399997889996 1102
12.4599997885525 1155
12.4799997881055 1188
12.4999997876585 1296
12.5199997872114 1421
12.5399997867644 1553
12.5599997863173 1672
12.5799997858703 1858
12.5999997854233 2101
12.6199997849762 2083
12.6399997845292 1867
12.6599997840822 1730
12.6799997836351 1474
12.6999997831881 1261
12.7199997827411 1172
12.739999782294 1097
12.759999781847 973
12.7799997814 1018
12.7999997809529 993
12.8199997805059 994
12.8399997800589 935
12.8599997796118 932
12.8799997791648 975
12.8999997787178 949
12.9199997782707 972
12.9399997778237 923
12.9599997773767 913
12.9799997769296 909
12.9999997764826 987
13.0199997760355 1004
13.0399997755885 980
13.0599997751415 1037
13.0799997746944 1037
13.0999997742474 1063
13.1199997738004 1095
13.1399997733533 1160
13.1599997729063 1201
13.1799997724593 1305
13.1999997720122 1395
13.2199997715652 1455
13.2399997711182 1512
13.2599997706711 1727
13.2799997702241 1874
13.2999997697771 2169
13.31999976933 2358
13.339999768883 2967
13.359999768436 3457
13.3799997679889 3763
13.3999997675419 3488
13.4199997670949 2992
13.4399997666478 2313
13.4599997662008 1664
13.4799997657537 1320
13.4999997653067 1152
13.5199997648597 1076
13.5399997644126 1020
13.5599997639656 981
13.5799997635186 1001
13.5999997630715 940
13.6199997626245 962
13.6399997621775 952
13.6599997617304 1032
13.6799997612834 924
13.6999997608364 932
13.7199997603893 949
13.7399997599423 934
13.7599997594953 906
13.7799997590482 919
13.7999997586012 973
13.8199997581542 947
13.8399997577071 951
13.8599997572601 906
13.879999756813 936
13.899999756366 860
13.919999755919 929
13.9399997554719 947
13.9599997550249 968
13.9799997545779 913
13.9999997541308 922
14.0199997536838 968
14.0399997532368 977
14.0599997527897 964
14.0799997523427 894
14.0999997518957 963
14.1199997514486 928
14.1399997510016 986
14.1599997505546 945
14.1799997501075 921
14.1999997496605 941
14.2199997492135 966
14.2399997487664 909
14.2599997483194 942
14.2799997478724 941
14.2999997474253 1011
14.3199997469783 952
14.3399997465312 958
14.3599997460842 929
14.3799997456372 932
14.3999997451901 899
14.4199997447431 963
14.4399997442961 949
14.459999743849 1015
14.479999743402 971
14.499999742955 990
14.5199997425079 1018
14.5399997420609 957
14.5599997416139 939
14.5799997411668 1005
14.5999997407198 982
14.6199997402728 1007
14.6399997398257 1069
14.6599997393787 935
14.6799997389317 986
14.6999997384846 988
14.7199997380376 1033
14.7399997375906 1002
14.7599997371435 1065
14.7799997366965 1029
14.7999997362494 1013
14.8199997358024 973
14.8399997353554 936
14.8599997349083 960
14.8799997344613 1059
14.8999997340143 974
14.9199997335672 1035
14.9399997331202 1032
14.9599997326732 1023
14.9799997322261 1041
14.9999997317791 996
15.0199997313321 1032
15.039999730885 1053
15.059999730438 1031
15.079999729991 1058
15.0999997295439 1057
15.1199997290969 1028
15.1399997286499 1018
15.1599997282028 997
15.1799997277558 995
15.1999997273088 1022
15.2199997268617 1041
15.2399997264147 1060
15.2599997259676 1107
15.2799997255206 1059
15.2999997250736 1079
15.3199997246265 1034
15.3399997241795 1040
15.3599997237325 1072
15.3799997232854 1095
15.3999997228384 1057
15.4199997223914 1039
15.4399997219443 1035
15.4599997214973 1057
15.4799997210503 1066
15.4999997206032 1132
15.5199997201562 1076
15.5399997197092 1079
15.5599997192621 1067
15.5799997188151 1039
15.5999997183681 1078
15.619999717921 1032
15.639999717474 1112
15.659999717027 1042
15.6799997165799 1046
15.6999997161329 1097
15.7199997156858 1060
15.7399997152388 1016
15.7599997147918 1077
15.7799997143447 1061
15.7999997138977 1069
15.8199997134507 1089
15.8399997130036 1115
15.8599997125566 1165
15.8799997121096 1040
15.8999997116625 1132
15.9199997112155 1125
15.9399997107685 1074
15.9599997103214 1134
15.9799997098744 1121
15.9999997094274 1138
16.0199997089803 1157
16.0399997085333 1067
16.0599997080863 1117
16.0799997076392 1155
16.0999997071922 1106
16.1199997067451 1102
16.1399997062981 1139
16.1599997058511 1149
16.179999705404 1123
16.199999704957 1153
16.21999970451 1204
16.2399997040629 1186
16.2599997036159 1098
16.2799997031689 1148
16.2999997027218 1239
16.3199997022748 1176
16.3399997018278 1189
16.3599997013807 1113
16.3799997009337 1209
16.3999997004867 1211
16.4199997000396 1171
16.4399996995926 1149
16.4599996991456 1248
16.4799996986985 1259
16.4999996982515 1217
16.5199996978045 1222
16.5399996973574 1226
16.5599996969104 1177
16.5799996964633 1238
16.5999996960163 1277
16.6199996955693 1273
16.6399996951222 1301
16.6599996946752 1280
16.6799996942282 1293
16.6999996937811 1287
16.7199996933341 1294
16.7399996928871 1349
16.75999969244 1375
16.779999691993 1431
16.799999691546 1478
16.8199996910989 1476
16.8399996906519 1477
16.8599996902049 1597
16.8799996897578 1661
16.8999996893108 1810
16.9199996888638 1986
16.9399996884167 2077
16.9599996879697 2404
16.9799996875226 2894
16.9999996870756 3230
17.0199996866286 3314
17.0399996861815 3155
17.0599996857345 2601
17.0799996852875 2067
17.0999996848404 1738
17.1199996843934 1437
17.1399996839464 1402
17.1599996834993 1458
17.1799996830523 1292
17.1999996826053 1328
17.2199996821582 1356
17.2399996817112 1356
17.2599996812642 1321
17.2799996808171 1396
17.2999996803701 1288
17.3199996799231 1370
17.339999679476 1320
17.359999679029 1352
17.379999678582 1336
17.3999996781349 1367
17.4199996776879 1425
17.4399996772408 1349
17.4599996767938 1363
17.4799996763468 1382
17.4999996758997 1394
17.5199996754527 1423
17.5399996750057 1402
17.5599996745586 1456
17.5799996741116 1441
17.5999996736646 1443
17.6199996732175 1429
17.6399996727705 1490
17.6599996723235 1570
17.6799996718764 1617
17.6999996714294 1582
17.7199996709824 1543
17.7399996705353 1612
17.7599996700883 1490
17.7799996696413 1499
17.7999996691942 1554
17.8199996687472 1507
17.8399996683002 1450
17.8599996678531 1478
17.8799996674061 1424
17.899999666959 1442
17.919999666512 1489
17.939999666065 1428
17.9599996656179 1457
17.9799996651709 1520
17.9999996647239 1589
18.0199996642768 1578
18.0399996638298 1510
18.0599996633828 1503
18.0799996629357 1521
18.0999996624887 1521
18.1199996620417 1528
18.1399996615946 1507
18.1599996611476 1550
18.1799996607006 1592
18.1999996602535 1607
18.2199996598065 1633
18.2399996593595 1608
18.2599996589124 1681
18.2799996584654 1696
18.2999996580184 1659
18.3199996575713 1633
18.3399996571243 1664
18.3599996566772 1685
18.3799996562302 1715
18.3999996557832 1663
18.4199996553361 1510
18.4399996548891 1634
18.4599996544421 1626
18.479999653995 1555
18.499999653548 1544
18.519999653101 1596
18.5399996526539 1552
18.5599996522069 1583
18.5799996517599 1610
18.5999996513128 1580
18.6199996508658 1596
18.6399996504188 1660
18.6599996499717 1516
18.6799996495247 1553
18.6999996490777 1525
18.7199996486306 1628
18.7399996481836 1640
18.7599996477366 1574
18.7799996472895 1583
18.7999996468425 1531
18.8199996463954 1591
18.8399996459484 1571
18.8599996455014 1620
18.8799996450543 1616
18.8999996446073 1628
18.9199996441603 1531
18.9399996437132 1608
18.9599996432662 1606
18.9799996428192 1613
18.9999996423721 1655
19.0199996419251 1598
19.0399996414781 1682
19.059999641031 1646
19.079999640584 1693
19.099999640137 1648
19.1199996396899 1660
19.1399996392429 1666
19.1599996387959 1631
19.1799996383488 1638
19.1999996379018 1659
19.2199996374547 1644
19.2399996370077 1587
19.2599996365607 1657
19.2799996361136 1729
19.2999996356666 1634
19.3199996352196 1683
19.3399996347725 1626
19.3599996343255 1694
19.3799996338785 1688
19.3999996334314 1689
19.4199996329844 1712
19.4399996325374 1791
19.4599996320903 1761
19.4799996316433 1675
19.4999996311963 1731
19.5199996307492 1790
19.5399996303022 1670
19.5599996298552 1722
19.5799996294081 1745
19.5999996289611 1796
19.6199996285141 1735
19.639999628067 1806
19.65999962762 1843
19.6799996271729 1838
19.6999996267259 1881
19.7199996262789 1977
19.7399996258318 2041
19.7599996253848 2136
19.7799996249378 2237
19.7999996244907 2471
19.8199996240437 2692
19.8399996235967 2925
19.8599996231496 2862
19.8799996227026 2631
19.8999996222556 2530
19.9199996218085 2411
19.9399996213615 2272
19.9599996209145 2237
19.9799996204674 2266
19.9999996200204 2373
20.0199996195734 2548
20.0399996191263 2677
20.0599996186793 2693
20.0799996182322 2724
20.0999996177852 2573
20.1199996173382 2487
20.1399996168911 2257
20.1599996164441 2178
20.1799996159971 2049
20.19999961555 1963
20.219999615103 1892
20.239999614656 1868
20.2599996142089 1936
20.2799996137619 1971
20.2999996133149 1955
20.3199996128678 1892
20.3399996124208 1977
20.3599996119738 1919
20.3799996115267 1870
20.3999996110797 1909
20.4199996106327 1840
20.4399996101856 1828
20.4599996097386 1887
20.4799996092916 1781
20.4999996088445 1830
20.5199996083975 1849
20.5399996079504 1856
20.5599996075034 1808
20.5799996070564 1927
20.5999996066093 1878
20.6199996061623 1830
20.6399996057153 1841
20.6599996052682 1839
20.6799996048212 1857
20.6999996043742 1794
20.7199996039271 1755
20.7399996034801 1766
20.7599996030331 1811
20.779999602586 1849
20.799999602139 1876
20.819999601692 1828
20.8399996012449 1896
20.8599996007979 1820
20.8799996003509 1831
20.8999995999038 1919
20.9199995994568 1859
20.9399995990098 1890
20.9599995985627 1967
20.9799995981157 1874
20.9999995976686 1854
21.0199995972216 1797
21.0399995967746 1833
21.0599995963275 1871
21.0799995958805 1754
21.0999995954335 1900
21.1199995949864 1851
21.1399995945394 1840
21.1599995940924 1836
21.1799995936453 1885
21.1999995931983 1881
21.2199995927513 1831
21.2399995923042 1830
21.2599995918572 1784
21.2799995914102 1920
21.2999995909631 1894
21.3199995905161 1876
21.3399995900691 1734
21.359999589622 1792
21.379999589175 1867
21.399999588728 1818
21.4199995882809 1823
21.4399995878339 1846
21.4599995873868 1878
21.4799995869398 1836
21.4999995864928 1869
21.5199995860457 1843
21.5399995855987 1810
21.5599995851517 1903
21.5799995847046 1815
21.5999995842576 1899
21.6199995838106 1817
21.6399995833635 1758
21.6599995829165 1835
21.6799995824695 1885
21.6999995820224 1842
21.7199995815754 1863
21.7399995811284 1903
21.7599995806813 1808
21.7799995802343 1926
21.7999995797873 1813
21.8199995793402 1907
21.8399995788932 1836
21.8599995784462 1866
21.8799995779991 1882
21.8999995775521 1767
21.919999577105 1803
21.939999576658 1863
21.959999576211 1891
21.9799995757639 1820
21.9999995753169 1817
22.0199995748699 1828
22.0399995744228 1883
22.0599995739758 1873
22.0799995735288 1882
22.0999995730817 1882
22.1199995726347 1817
22.1399995721877 1824
22.1599995717406 1853
22.1799995712936 1872
22.1999995708466 1921
22.2199995703995 1906
22.2399995699525 2059
22.2599995695055 2088
22.2799995690584 2070
22.2999995686114 2110
22.3199995681643 2081
22.3399995677173 1995
22.3599995672703 1916
22.3799995668232 1907
22.3999995663762 2016
22.4199995659292 1878
22.4399995654821 1834
22.4599995650351 1852
22.4799995645881 1781
22.499999564141 1743
22.519999563694 1804
22.539999563247 1822
22.5599995627999 1839
22.5799995623529 1813
22.5999995619059 1783
22.6199995614588 1777
22.6399995610118 1837
22.6599995605648 1739
22.6799995601177 1740
22.6999995596707 1802
22.7199995592237 1804
22.7399995587766 1809
22.7599995583296 1771
22.7799995578825 1752
22.7999995574355 1714
22.8199995569885 1755
22.8399995565414 1729
22.8599995560944 1754
22.8799995556474 1795
22.8999995552003 1684
22.9199995547533 1714
22.9399995543063 1701
22.9599995538592 1768
22.9799995534122 1729
22.9999995529652 1761
23.0199995525181 1729
23.0399995520711 1669
23.0599995516241 1628
23.079999551177 1686
23.09999955073 1677
23.119999550283 1730
23.1399995498359 1700
23.1599995493889 1645
23.1799995489418 1663
23.1999995484948 1664
23.2199995480478 1743
23.2399995476007 1709
23.2599995471537 1639
23.2799995467067 1647
23.2999995462596 1701
23.3199995458126 1693
23.3399995453656 1675
23.3599995449185 1649
23.3799995444715 1739
23.3999995440245 1579
23.4199995435774 1665
23.4399995431304 1678
23.4599995426834 1665
23.4799995422363 1748
23.4999995417893 1692
23.5199995413423 1633
23.5399995408952 1637
23.5599995404482 1630
23.5799995400012 1591
23.5999995395541 1592
23.6199995391071 1621
23.63999953866 1715
23.659999538213 1634
23.679999537766 1632
23.6999995373189 1667
23.7199995368719 1642
23.7399995364249 1601
23.7599995359778 1652
23.7799995355308 1633
23.7999995350838 1632
23.8199995346367 1678
23.8399995341897 1715
23.8599995337427 1756
23.8799995332956 1745
23.8999995328486 1726
23.9199995324016 1715
23.9399995319545 1820
23.9599995315075 1865
23.9799995310605 2000
23.9999995306134 2123
24.0199995301664 2126
24.0399995297194 2204
24.0599995292723 2238
24.0799995288253 2282
24.0999995283782 2192
24.1199995279312 2219
24.1399995274842 2184
24.1599995270371 1976
24.1799995265901 1892
24.1999995261431 1871
24.219999525696 1807
24.239999525249 1801
24.259999524802 1746
24.2799995243549 1811
24.2999995239079 1850
24.3199995234609 1827
24.3399995230138 1806
24.3599995225668 1802
24.3799995221198 1809
24.3999995216727 1844
24.4199995212257 1772
24.4399995207787 1910
24.4599995203316 1930
24.4799995198846 1943
24.4999995194376 2007
24.5199995189905 2036
24.5399995185435 2045
24.5599995180964 1981
24.5799995176494 1907
24.5999995172024 1929
24.6199995167553 1866
24.6399995163083 1801
24.6599995158613 1808
24.6799995154142 1725
24.6999995149672 1629
24.7199995145202 1622
24.7399995140731 1592
24.7599995136261 1577
24.7799995131791 1592
24.799999512732 1556
24.819999512285 1610
24.839999511838 1579
24.8599995113909 1595
24.8799995109439 1555
24.8999995104969 1558
24.9199995100498 1593
24.9399995096028 1615
24.9599995091558 1635
24.9799995087087 1664
24.9999995082617 1766
25.0199995078146 1784
25.0399995073676 2006
25.0599995069206 2087
25.0799995064735 2313
25.0999995060265 2531
25.1199995055795 2717
25.1399995051324 2770
25.1599995046854 2865
25.1799995042384 2946
25.1999995037913 2936
25.2199995033443 3104
25.2399995028973 3250
25.2599995024502 3508
25.2799995020032 3865
25.2999995015562 4032
25.3199995011091 4295
25.3399995006621 4220
25.3599995002151 3795
25.379999499768 3504
25.399999499321 3123
25.4199994988739 2585
25.4399994984269 2342
25.4599994979799 2028
25.4799994975328 1931
25.4999994970858 1887
25.5199994966388 1837
25.5399994961917 1839
25.5599994957447 1775
25.5799994952977 1721
25.5999994948506 1689
25.6199994944036 1636
25.6399994939566 1604
25.6599994935095 1629
25.6799994930625 1554
25.6999994926155 1533
25.7199994921684 1509
25.7399994917214 1514
25.7599994912744 1552
25.7799994908273 1491
25.7999994903803 1443
25.8199994899333 1403
25.8399994894862 1424
25.8599994890392 1407
25.8799994885921 1466
25.8999994881451 1440
25.9199994876981 1442
25.939999487251 1376
25.959999486804 1420
25.979999486357 1462
25.9999994859099 1454
26.0199994854629 1334
26.0399994850159 1387
26.0599994845688 1372
26.0799994841218 1377
26.0999994836748 1290
26.1199994832277 1420
26.1399994827807 1431
26.1599994823337 1379
26.1799994818866 1401
26.1999994814396 1377
26.2199994809926 1363
26.2399994805455 1352
26.2599994800985 1308
26.2799994796514 1367
26.2999994792044 1338
26.3199994787574 1382
26.3399994783103 1334
26.3599994778633 1429
26.3799994774163 1337
26.3999994769692 1350
26.4199994765222 1406
26.4399994760752 1500
26.4599994756281 1514
26.4799994751811 1450
26.4999994747341 1509
26.519999474287 1621
26.53999947384 1592
26.559999473393 1741
26.5799994729459 1842
26.5999994724989 2013
26.6199994720519 2168
26.6399994716048 2238
26.6599994711578 2424
26.6799994707108 2511
26.6999994702637 2500
26.7199994698167 2615
26.7399994693697 2481
26.7599994689226 2591
26.7799994684756 2597
26.7999994680285 2503
26.8199994675815 2541
26.8399994671345 2589
26.8599994666874 2595
26.8799994662404 2792
26.8999994657934 2796
26.9199994653463 2647
26.9399994648993 2615
26.9599994644523 2664
26.9799994640052 2586
26.9999994635582 2596
27.0199994631112 2743
27.0399994626641 2918
27.0599994622171 3107
27.0799994617701 3313
27.099999461323 3296
27.119999460876 3079
27.139999460429 2759
27.1599994599819 2363
27.1799994595349 2161
27.1999994590878 1890
27.2199994586408 1591
27.2399994581938 1532
27.2599994577467 1469
27.2799994572997 1427
27.2999994568527 1477
27.3199994564056 1452
27.3399994559586 1350
27.3599994555116 1413
27.3799994550645 1368
27.3999994546175 1412
27.4199994541705 1412
27.4399994537234 1441
27.4599994532764 1433
27.4799994528294 1451
27.4999994523823 1458
27.5199994519353 1366
27.5399994514883 1422
27.5599994510412 1396
27.5799994505942 1372
27.5999994501472 1353
27.6199994497001 1351
27.6399994492531 1365
27.659999448806 1359
27.679999448359 1365
27.699999447912 1353
27.7199994474649 1373
27.7399994470179 1304
27.7599994465709 1339
27.7799994461238 1324
27.7999994456768 1286
27.8199994452298 1294
27.8399994447827 1322
27.8599994443357 1267
27.8799994438887 1204
27.8999994434416 1273
27.9199994429946 1213
27.9399994425476 1247
27.9599994421005 1231
27.9799994416535 1260
27.9999994412065 1211
28.0199994407594 1227
28.0399994403124 1244
28.0599994398654 1231
28.0799994394183 1273
28.0999994389713 1350
28.1199994385242 1387
28.1399994380772 1338
28.1599994376302 1362
28.1799994371831 1341
28.1999994367361 1392
28.2199994362891 1274
28.239999435842 1287
28.259999435395 1268
28.279999434948 1285
28.2999994345009 1247
28.3199994340539 1267
28.3399994336069 1254
28.3599994331598 1242
28.3799994327128 1264
28.3999994322658 1319
28.4199994318187 1459
28.4399994313717 1430
28.4599994309247 1493
28.4799994304776 1557
28.4999994300306 1726
28.5199994295835 1828
28.5399994291365 1949
28.5599994286895 1900
28.5799994282424 1893
28.5999994277954 1782
28.6199994273484 1717
28.6399994269013 1574
28.6599994264543 1497
28.6799994260073 1392
28.6999994255602 1292
28.7199994251132 1253
28.7399994246662 1171
28.7599994242191 1263
28.7799994237721 1172
28.7999994233251 1172
28.819999422878 1226
28.839999422431 1177
28.859999421984 1219
28.8799994215369 1159
28.8999994210899 1181
28.9199994206429 1242
28.9399994201958 1174
28.9599994197488 1250
28.9799994193017 1140
28.9999994188547 1163
29.0199994184077 1131
29.0399994179606 1173
29.0599994175136 1173
29.0799994170666 1159
29.0999994166195 1244
29.1199994161725 1223
29.1399994157255 1268
29.1599994152784 1319
29.1799994148314 1315
29.1999994143844 1291
29.2199994139373 1213
29.2399994134903 1279
29.2599994130433 1288
29.2799994125962 1250
29.2999994121492 1239
29.3199994117022 1224
29.3399994112551 1148
29.3599994108081 1187
29.379999410361 1149
29.399999409914 1118
29.419999409467 1110
29.4399994090199 1096
29.4599994085729 1103
29.4799994081259 1119
29.4999994076788 1134
29.5199994072318 1081
29.5399994067848 1091
29.5599994063377 1147
29.5799994058907 1069
29.5999994054437 1102
29.6199994049966 1138
29.6399994045496 1130
29.6599994041026 1074
29.6799994036555 1131
29.6999994032085 1158
29.7199994027615 1217
29.7399994023144 1193
29.7599994018674 1210
29.7799994014204 1289
29.7999994009733 1298
29.8199994005263 1441
29.8399994000793 1585
29.8599993996322 1882
29.8799993991852 2138
29.8999993987381 2422
29.9199993982911 2424
29.9399993978441 2497
29.959999397397 2352
29.97999939695 2399
29.999999396503 2199
