3 2166
3.01999999955297 2108
3.03999999910593 1873
3.0599999986589 1799
3.07999999821186 1731
3.09999999776483 1678
3.11999999731779 1716
3.13999999687076 1642
3.15999999642372 1608
3.17999999597669 1588
3.19999999552965 1550
3.21999999508262 1524
3.23999999463558 1483
3.25999999418855 1495
3.27999999374151 1568
3.29999999329448 1453
3.31999999284744 1468
3.33999999240041 1453
3.35999999195337 1504
3.37999999150634 1379
3.3999999910593 1354
3.41999999061227 1360
3.43999999016523 1382
3.4599999897182 1416
3.47999998927116 1357
3.49999998882413 1374
3.51999998837709 1274
3.53999998793006 1318
3.55999998748302 1233
3.57999998703599 1235
3.59999998658895 1277
3.61999998614192 1195
3.63999998569489 1231
3.65999998524785 1210
3.67999998480082 1280
3.69999998435378 1247
3.71999998390675 1241
3.73999998345971 1208
3.75999998301268 1140
3.77999998256564 1142
3.79999998211861 1171
3.81999998167157 1092
3.83999998122454 1145
3.8599999807775 1142
3.87999998033047 1127
3.89999997988343 1082
3.9199999794364 1083
3.93999997898936 1055
3.95999997854233 1071
3.97999997809529 1045
3.99999997764826 1033
4.01999997720122 1044
4.03999997675419 1022
4.05999997630715 1000
4.07999997586012 1043
4.09999997541308 1051
4.11999997496605 1012
4.13999997451901 1010
4.15999997407198 934
4.17999997362494 951
4.19999997317791 979
4.21999997273087 938
4.23999997228384 888
4.25999997183681 917
4.27999997138977 897
4.29999997094274 911
4.3199999704957 918
4.33999997004867 877
4.35999996960163 851
4.3799999691546 878
4.39999996870756 825
4.41999996826053 855
4.43999996781349 883
4.45999996736646 837
4.47999996691942 809
4.49999996647239 823
4.51999996602535 799
4.53999996557832 846
4.55999996513128 825
4.57999996468425 846
4.59999996423721 824
4.61999996379018 822
4.63999996334314 778
4.65999996289611 786
4.67999996244907 776
4.69999996200204 749
4.719999961555 790
4.73999996110797 755
4.75999996066093 770
4.7799999602139 713
4.79999995976686 793
4.81999995931983 773
4.83999995887279 729
4.85999995842576 715
4.87999995797873 719
4.89999995753169 735
4.91999995708466 721
4.93999995663762 691
4.95999995619059 740
4.97999995574355 684
4.99999995529652 751
5.01999995484948 713
5.03999995440245 722
5.05999995395541 731
5.07999995350838 724
5.09999995306134 741
5.11999995261431 694
5.13999995216727 754
5.15999995172024 717
5.1799999512732 697
5.19999995082617 671
5.21999995037913 722
5.2399999499321 684
5.25999994948506 715
5.27999994903803 732
5.29999994859099 702
5.31999994814396 710
5.33999994769692 722
5.35999994724989 687
5.37999994680285 696
5.39999994635582 709
5.41999994590878 717
5.43999994546175 761
5.45999994501471 713
5.47999994456768 720
5.49999994412065 726
5.51999994367361 700
5.53999994322658 665
5.55999994277954 658
5.57999994233251 686
5.59999994188547 726
5.61999994143844 726
5.6399999409914 736
5.65999994054437 727
5.67999994009733 743
5.6999999396503 715
5.71999993920326 703
5.73999993875623 703
5.75999993830919 680
5.77999993786216 749
5.79999993741512 718
5.81999993696809 722
5.83999993652105 699
5.85999993607402 699
5.87999993562698 657
5.89999993517995 705
5.91999993473291 722
5.93999993428588 714
5.95999993383884 661
5.97999993339181 640
5.99999993294477 702
6.01999993249774 713
6.0399999320507 721
6.05999993160367 677
6.07999993115663 730
6.0999999307096 743
6.11999993026257 689
6.13999992981553 718
6.1599999293685 715
6.17999992892146 738
6.19999992847443 772
6.21999992802739 751
6.23999992758036 706
6.25999992713332 728
6.27999992668629 720
6.29999992623925 720
6.31999992579222 715
6.33999992534518 753
6.35999992489815 720
6.37999992445111 713
6.39999992400408 692
6.41999992355704 727
6.43999992311001 743
6.45999992266297 723
6.47999992221594 762
6.4999999217689 740
6.51999992132187 769
6.53999992087483 742
6.5599999204278 697
6.57999991998076 749
6.59999991953373 729
6.61999991908669 775
6.63999991863966 729
6.65999991819262 734
6.67999991774559 722
6.69999991729855 729
6.71999991685152 781
6.73999991640449 716
6.75999991595745 728
6.77999991551042 732
6.79999991506338 738
6.81999991461635 789
6.83999991416931 748
6.85999991372228 757
6.87999991327524 746
6.89999991282821 740
6.91999991238117 724
6.93999991193414 784
6.9599999114871 745
6.97999991104007 752
6.99999991059303 733
7.019999910146 777
7.03999990969896 740
7.05999990925193 798
7.07999990880489 780
7.09999990835786 743
7.11999990791082 750
7.13999990746379 781
7.15999990701675 797
7.17999990656972 756
7.19999990612268 770
7.21999990567565 776
7.23999990522861 719
7.25999990478158 750
7.27999990433454 794
7.29999990388751 732
7.31999990344047 683
7.33999990299344 785
7.35999990254641 738
7.37999990209937 773
7.39999990165234 732
7.4199999012053 715
7.43999990075827 706
7.45999990031123 752
7.4799998998642 752
7.49999989941716 762
7.51999989897013 808
7.53999989852309 715
7.55999989807606 722
7.57999989762902 725
7.59999989718199 765
7.61999989673495 680
7.63999989628792 750
7.65999989584088 699
7.67999989539385 722
7.69999989494681 729
7.71999989449978 744
7.73999989405274 757
7.75999989360571 729
7.77999989315867 741
7.79999989271164 686
7.8199998922646 674
7.83999989181757 716
7.85999989137053 687
7.8799998909235 712
7.89999989047646 662
7.91999989002943 678
7.9399998895824 684
7.95999988913536 665
7.97999988868833 670
7.99999988824129 687
8.01999988779426 690
8.03999988734722 653
8.05999988690019 721
8.07999988645315 693
8.09999988600612 662
8.11999988555908 688
8.13999988511205 689
8.15999988466501 677
8.17999988421798 684
8.19999988377094 631
8.21999988332391 657
8.23999988287687 670
8.25999988242984 690
8.2799998819828 669
8.29999988153577 671
8.31999988108873 680
8.3399998806417 641
8.35999988019466 652
8.37999987974763 636
8.39999987930059 602
8.41999987885356 632
8.43999987840652 640
8.45999987795949 608
8.47999987751245 639
8.49999987706542 666
8.51999987661839 671
8.53999987617135 605
8.55999987572432 595
8.57999987527728 611
8.59999987483025 611
8.61999987438321 632
8.63999987393618 632
8.65999987348914 596
8.67999987304211 614
8.69999987259507 605
8.71999987214804 546
8.739999871701 606
8.75999987125397 615
8.77999987080693 606
8.7999998703599 595
8.81999986991286 621
8.83999986946583 576
8.85999986901879 585
8.87999986857176 596
8.89999986812472 611
8.91999986767769 584
8.93999986723065 607
8.95999986678362 601
8.97999986633658 528
8.99999986588955 596
9.01999986544251 561
9.03999986499548 590
9.05999986454844 565
9.07999986410141 590
9.09999986365438 568
9.11999986320734 603
9.13999986276031 580
9.15999986231327 599
9.17999986186624 541
9.1999998614192 607
9.21999986097217 575
9.23999986052513 558
9.2599998600781 561
9.27999985963106 541
9.29999985918403 550
9.31999985873699 561
9.33999985828996 580
9.35999985784292 579
9.37999985739589 554
9.39999985694885 588
9.41999985650182 577
9.43999985605478 587
9.45999985560775 550
9.47999985516071 545
9.49999985471368 553
9.51999985426664 580
9.53999985381961 554
9.55999985337257 557
9.57999985292554 541
9.5999998524785 556
9.61999985203147 542
9.63999985158443 545
9.6599998511374 504
9.67999985069037 499
9.69999985024333 552
9.7199998497963 538
9.73999984934926 539
9.75999984890223 494
9.77999984845519 545
9.79999984800816 596
9.81999984756112 553
9.83999984711409 526
9.85999984666705 537
9.87999984622002 531
9.89999984577298 560
9.91999984532595 559
9.93999984487891 589
9.95999984443188 506
9.97999984398484 519
9.99999984353781 524
10.0199998430908 525
10.0399998426437 506
10.0599998421967 497
10.0799998417497 518
10.0999998413026 521
10.1199998408556 605
10.1399998404086 504
10.1599998399615 540
10.1799998395145 547
10.1999998390675 499
10.2199998386204 511
10.2399998381734 518
10.2599998377264 521
10.2799998372793 513
10.2999998368323 518
10.3199998363853 527
10.3399998359382 530
10.3599998354912 554
10.3799998350441 539
10.3999998345971 554
10.4199998341501 509
10.439999833703 478
10.459999833256 518
10.479999832809 543
10.4999998323619 526
10.5199998319149 557
10.5399998314679 519
10.5599998310208 529
10.5799998305738 539
10.5999998301268 516
10.6199998296797 495
10.6399998292327 550
10.6599998287857 536
10.6799998283386 496
10.6999998278916 497
10.7199998274446 532
10.7399998269975 518
10.7599998265505 522
10.7799998261034 552
10.7999998256564 506
10.8199998252094 481
10.8399998247623 479
10.8599998243153 508
10.8799998238683 485
10.8999998234212 515
10.9199998229742 489
10.9399998225272 499
10.9599998220801 493
10.9799998216331 537
10.9999998211861 490
11.019999820739 516
11.039999820292 509
11.059999819845 492
11.0799998193979 501
11.0999998189509 502
11.1199998185039 538
11.1399998180568 500
11.1599998176098 533
11.1799998171628 499
11.1999998167157 556
11.2199998162687 532
11.2399998158216 554
11.2599998153746 539
11.2799998149276 574
11.2999998144805 511
11.3199998140335 533
11.3399998135865 544
11.3599998131394 510
11.3799998126924 494
11.3999998122454 519
11.4199998117983 543
11.4399998113513 537
11.4599998109043 523
11.4799998104572 505
11.4999998100102 506
11.5199998095632 509
11.5399998091161 561
11.5599998086691 515
11.5799998082221 498
11.599999807775 506
11.619999807328 521
11.639999806881 508
11.6599998064339 544
11.6799998059869 500
11.6999998055398 521
11.7199998050928 545
11.7399998046458 520
11.7599998041987 554
11.7799998037517 531
11.7999998033047 558
11.8199998028576 498
11.8399998024106 561
11.8599998019636 550
11.8799998015165 498
11.8999998010695 525
11.9199998006225 538
11.9399998001754 555
11.9599997997284 504
11.9799997992814 541
11.9999997988343 535
12.0199997983873 524
12.0399997979403 540
12.0599997974932 540
12.0799997970462 533
12.0999997965992 533
12.1199997961521 560
12.1399997957051 557
12.159999795258 541
12.179999794811 538
12.199999794364 526
12.2199997939169 544
12.2399997934699 539
12.2599997930229 564
12.2799997925758 601
12.2999997921288 571
12.3199997916818 559
12.3399997912347 502
12.3599997907877 548
12.3799997903407 535
12.3999997898936 485
12.4199997894466 534
12.4399997889996 545
12.4599997885525 497
12.4799997881055 529
12.4999997876585 513
12.5199997872114 530
12.5399997867644 557
12.5599997863173 540
12.5799997858703 561
12.5999997854233 583
12.6199997849762 550
12.6399997845292 574
12.6599997840822 572
12.6799997836351 542
12.6999997831881 528
12.7199997827411 535
12.739999782294 560
12.759999781847 522
12.7799997814 588
12.7999997809529 564
12.8199997805059 561
12.8399997800589 534
12.8599997796118 567
12.8799997791648 554
12.8999997787178 542
12.9199997782707 584
12.9399997778237 514
12.9599997773767 563
12.9799997769296 534
12.9999997764826 509
13.0199997760355 542
13.0399997755885 567
13.0599997751415 563
13.0799997746944 550
13.0999997742474 532
13.1199997738004 562
13.1399997733533 553
13.1599997729063 538
13.1799997724593 549
13.1999997720122 541
13.2199997715652 562
13.2399997711182 571
13.2599997706711 582
13.2799997702241 565
13.2999997697771 582
13.31999976933 560
13.339999768883 573
13.359999768436 591
13.3799997679889 617
13.3999997675419 579
13.4199997670949 564
13.4399997666478 544
13.4599997662008 517
13.4799997657537 511
13.4999997653067 545
13.5199997648597 587
13.5399997644126 542
13.5599997639656 566
13.5799997635186 529
13.5999997630715 533
13.6199997626245 570
13.6399997621775 553
13.6599997617304 591
13.6799997612834 522
13.6999997608364 587
13.7199997603893 540
13.7399997599423 558
13.7599997594953 535
13.7799997590482 550
13.7999997586012 576
13.8199997581542 568
13.8399997577071 529
13.8599997572601 588
13.879999756813 556
13.899999756366 579
13.919999755919 563
13.9399997554719 605
13.9599997550249 573
13.9799997545779 617
13.9999997541308 542
14.0199997536838 513
14.0399997532368 564
14.0599997527897 549
14.0799997523427 560
14.0999997518957 568
14.1199997514486 557
14.1399997510016 573
14.1599997505546 569
14.1799997501075 615
14.1999997496605 548
14.2199997492135 587
14.2399997487664 597
14.2599997483194 584
14.2799997478724 559
14.2999997474253 534
14.3199997469783 569
14.3399997465312 565
14.3599997460842 599
14.3799997456372 544
14.3999997451901 553
14.4199997447431 577
14.4399997442961 577
14.459999743849 572
14.479999743402 579
14.499999742955 581
14.5199997425079 573
14.5399997420609 598
14.5599997416139 546
14.5799997411668 580
14.5999997407198 582
14.6199997402728 627
14.6399997398257 586
14.6599997393787 615
14.6799997389317 614
14.6999997384846 580
14.7199997380376 589
14.7399997375906 577
14.7599997371435 591
14.7799997366965 603
14.7999997362494 568
14.8199997358024 601
14.8399997353554 606
14.8599997349083 628
14.8799997344613 592
14.8999997340143 577
14.9199997335672 649
14.9399997331202 581
14.9599997326732 596
14.9799997322261 570
14.9999997317791 565
15.0199997313321 615
15.039999730885 591
15.059999730438 593
15.079999729991 592
15.0999997295439 637
15.1199997290969 614
15.1399997286499 610
15.1599997282028 616
15.1799997277558 619
15.1999997273088 628
15.2199997268617 604
15.2399997264147 625
15.2599997259676 594
15.2799997255206 578
15.2999997250736 631
15.3199997246265 660
15.3399997241795 662
15.3599997237325 649
15.3799997232854 666
15.3999997228384 622
15.4199997223914 661
15.4399997219443 600
15.4599997214973 599
15.4799997210503 606
15.4999997206032 644
15.5199997201562 688
15.5399997197092 615
15.5599997192621 638
15.5799997188151 642
15.5999997183681 621
15.619999717921 663
15.639999717474 692
15.659999717027 639
15.6799997165799 657
15.6999997161329 647
15.7199997156858 653
15.7399997152388 654
15.7599997147918 644
15.7799997143447 654
15.7999997138977 623
15.8199997134507 683
15.8399997130036 695
15.8599997125566 673
15.8799997121096 680
15.8999997116625 616
15.9199997112155 668
15.9399997107685 640
15.9599997103214 699
15.9799997098744 699
15.9999997094274 701
16.0199997089803 667
16.0399997085333 651
16.0599997080863 670
16.0799997076392 643
16.0999997071922 678
16.1199997067451 673
16.1399997062981 677
16.1599997058511 722
16.179999705404 650
16.199999704957 709
16.21999970451 716
16.2399997040629 697
16.2599997036159 696
16.2799997031689 704
16.2999997027218 704
16.3199997022748 723
16.3399997018278 707
16.3599997013807 684
16.3799997009337 733
16.3999997004867 710
16.4199997000396 684
16.4399996995926 725
16.4599996991456 686
16.4799996986985 704
16.4999996982515 746
16.5199996978045 733
16.5399996973574 780
16.5599996969104 743
16.5799996964633 746
16.5999996960163 783
16.6199996955693 723
16.6399996951222 744
16.6599996946752 773
16.6799996942282 764
16.6999996937811 764
16.7199996933341 839
16.7399996928871 784
16.75999969244 864
16.779999691993 879
16.799999691546 942
16.8199996910989 936
16.8399996906519 1014
16.8599996902049 1015
16.8799996897578 1099
16.8999996893108 1199
16.9199996888638 1340
16.9399996884167 1447
16.9599996879697 1691
16.9799996875226 1926
16.9999996870756 2114
17.0199996866286 2401
17.0399996861815 2612
17.0599996857345 2615
17.0799996852875 2609
17.0999996848404 2337
17.1199996843934 1937
17.1399996839464 1503
17.1599996834993 1270
17.1799996830523 1023
17.1999996826053 862
17.2199996821582 919
17.2399996817112 868
17.2599996812642 812
17.2799996808171 836
17.2999996803701 825
17.3199996799231 884
17.339999679476 828
17.359999679029 817
17.379999678582 868
17.3999996781349 858
17.4199996776879 828
17.4399996772408 792
17.4599996767938 864
17.4799996763468 797
17.4999996758997 850
17.5199996754527 832
17.5399996750057 830
17.5599996745586 791
17.5799996741116 822
17.5999996736646 860
17.6199996732175 830
17.6399996727705 842
17.6599996723235 816
17.6799996718764 804
17.6999996714294 825
17.7199996709824 839
17.7399996705353 785
17.7599996700883 833
17.7799996696413 852
17.7999996691942 839
17.8199996687472 893
17.8399996683002 796
17.8599996678531 804
17.8799996674061 838
17.899999666959 879
17.919999666512 849
17.939999666065 893
17.9599996656179 859
17.9799996651709 853
17.9999996647239 867
18.0199996642768 871
18.0399996638298 884
18.0599996633828 856
18.0799996629357 883
18.0999996624887 931
18.1199996620417 920
18.1399996615946 873
18.1599996611476 958
18.1799996607006 883
18.1999996602535 824
18.2199996598065 872
18.2399996593595 898
18.2599996589124 913
18.2799996584654 921
18.2999996580184 881
18.3199996575713 929
18.3399996571243 922
18.3599996566772 899
18.3799996562302 896
18.3999996557832 931
18.4199996553361 952
18.4399996548891 902
18.4599996544421 935
18.479999653995 931
18.499999653548 920
18.519999653101 938
18.5399996526539 924
18.5599996522069 921
18.5799996517599 942
18.5999996513128 909
18.6199996508658 911
18.6399996504188 981
18.6599996499717 985
18.6799996495247 971
18.6999996490777 969
18.7199996486306 913
18.7399996481836 948
18.7599996477366 946
18.7799996472895 980
18.7999996468425 1001
18.8199996463954 1021
18.8399996459484 970
18.8599996455014 986
18.8799996450543 1002
18.8999996446073 1036
18.9199996441603 980
18.9399996437132 987
18.9599996432662 978
18.9799996428192 974
18.9999996423721 971
19.0199996419251 997
19.0399996414781 960
19.059999641031 988
19.079999640584 1003
19.099999640137 1012
19.1199996396899 963
19.1399996392429 980
19.1599996387959 950
19.1799996383488 1025
19.1999996379018 1048
19.2199996374547 1019
19.2399996370077 1048
19.2599996365607 969
19.2799996361136 1047
19.2999996356666 1048
19.3199996352196 1078
19.3399996347725 1040
19.3599996343255 1047
19.3799996338785 1039
19.3999996334314 1054
19.4199996329844 1030
19.4399996325374 1046
19.4599996320903 1066
19.4799996316433 1038
19.4999996311963 1000
19.5199996307492 1100
19.5399996303022 1012
19.5599996298552 1038
19.5799996294081 1055
19.5999996289611 1040
19.6199996285141 1054
19.639999628067 1098
19.65999962762 1073
19.6799996271729 1142
19.6999996267259 1092
19.7199996262789 1095
19.7399996258318 1099
19.7599996253848 1131
19.7799996249378 1072
19.7999996244907 1061
19.8199996240437 1109
19.8399996235967 1127
19.8599996231496 1119
19.8799996227026 1056
19.8999996222556 1118
19.9199996218085 1062
19.9399996213615 1106
19.9599996209145 1080
19.9799996204674 1108
19.9999996200204 1075
20.0199996195734 1080
20.0399996191263 1097
20.0599996186793 1129
20.0799996182322 1122
20.0999996177852 1099
20.1199996173382 1108
20.1399996168911 1120
20.1599996164441 1108
20.1799996159971 1128
20.19999961555 1122
20.219999615103 1174
20.239999614656 1134
20.2599996142089 1182
20.2799996137619 1166
20.2999996133149 1128
20.3199996128678 1159
20.3399996124208 1197
20.3599996119738 1104
20.3799996115267 1113
20.3999996110797 1153
20.4199996106327 1185
20.4399996101856 1156
20.4599996097386 1194
20.4799996092916 1090
20.4999996088445 1177
20.5199996083975 1139
20.5399996079504 1157
20.5599996075034 1135
20.5799996070564 1160
20.5999996066093 1194
20.6199996061623 1258
20.6399996057153 1174
20.6599996052682 1157
20.6799996048212 1162
20.6999996043742 1176
20.7199996039271 1186
20.7399996034801 1211
20.7599996030331 1199
20.779999602586 1171
20.799999602139 1151
20.819999601692 1222
20.8399996012449 1189
20.8599996007979 1234
20.8799996003509 1234
20.8999995999038 1227
20.9199995994568 1244
20.9399995990098 1231
20.9599995985627 1257
20.9799995981157 1220
20.9999995976686 1235
21.0199995972216 1165
21.0399995967746 1209
21.0599995963275 1237
21.0799995958805 1208
21.0999995954335 1255
21.1199995949864 1252
21.1399995945394 1255
21.1599995940924 1278
21.1799995936453 1286
21.1999995931983 1232
21.2199995927513 1237
21.2399995923042 1242
21.2599995918572 1238
21.2799995914102 1274
21.2999995909631 1230
21.3199995905161 1259
21.3399995900691 1262
21.359999589622 1241
21.379999589175 1252
21.399999588728 1218
21.4199995882809 1245
21.4399995878339 1235
21.4599995873868 1278
21.4799995869398 1231
21.4999995864928 1145
21.5199995860457 1322
21.5399995855987 1325
21.5599995851517 1251
21.5799995847046 1267
21.5999995842576 1300
21.6199995838106 1279
21.6399995833635 1228
21.6599995829165 1234
21.6799995824695 1297
21.6999995820224 1275
21.7199995815754 1305
21.7399995811284 1275
21.7599995806813 1352
21.7799995802343 1212
21.7999995797873 1304
21.8199995793402 1264
21.8399995788932 1229
21.8599995784462 1284
21.8799995779991 1282
21.8999995775521 1329
21.919999577105 1305
21.939999576658 1307
21.959999576211 1343
21.9799995757639 1284
21.9999995753169 1256
22.0199995748699 1253
22.0399995744228 1302
22.0599995739758 1322
22.0799995735288 1284
22.0999995730817 1256
22.1199995726347 1297
22.1399995721877 1396
22.1599995717406 1293
22.1799995712936 1266
22.1999995708466 1336
22.2199995703995 1348
22.2399995699525 1243
22.2599995695055 1325
22.2799995690584 1352
22.2999995686114 1353
22.3199995681643 1318
22.3399995677173 1347
22.3599995672703 1308
22.3799995668232 1289
22.3999995663762 1271
22.4199995659292 1345
22.4399995654821 1292
22.4599995650351 1253
22.4799995645881 1307
22.499999564141 1320
22.519999563694 1285
22.539999563247 1306
22.5599995627999 1343
22.5799995623529 1345
22.5999995619059 1348
22.6199995614588 1330
22.6399995610118 1359
22.6599995605648 1302
22.6799995601177 1294
22.6999995596707 1279
22.7199995592237 1338
22.7399995587766 1354
22.7599995583296 1309
22.7799995578825 1331
22.7999995574355 1334
22.8199995569885 1326
22.8399995565414 1336
22.8599995560944 1309
22.8799995556474 1358
22.8999995552003 1282
22.9199995547533 1397
22.9399995543063 1330
22.9599995538592 1322
22.9799995534122 1289
22.9999995529652 1296
23.0199995525181 1276
23.0399995520711 1348
23.0599995516241 1362
23.079999551177 1340
23.09999955073 1283
23.119999550283 1274
23.1399995498359 1331
23.1599995493889 1389
23.1799995489418 1317
23.1999995484948 1317
23.2199995480478 1304
23.2399995476007 1241
23.2599995471537 1328
23.2799995467067 1360
23.2999995462596 1297
23.3199995458126 1379
23.3399995453656 1365
23.3599995449185 1321
23.3799995444715 1246
23.3999995440245 1419
23.4199995435774 1327
23.4399995431304 1294
23.4599995426834 1297
23.4799995422363 1353
23.4999995417893 1323
23.5199995413423 1399
23.5399995408952 1408
23.5599995404482 1291
23.5799995400012 1331
23.5999995395541 1323
23.6199995391071 1335
23.63999953866 1383
23.659999538213 1314
23.679999537766 1335
23.6999995373189 1313
23.7199995368719 1322
23.7399995364249 1371
23.7599995359778 1328
23.7799995355308 1292
23.7999995350838 1344
23.8199995346367 1300
23.8399995341897 1322
23.8599995337427 1359
23.8799995332956 1316
23.8999995328486 1328
23.9199995324016 1323
23.9399995319545 1306
23.9599995315075 1412
23.9799995310605 1325
23.9999995306134 1363
24.0199995301664 1372
24.0399995297194 1383
24.0599995292723 1364
24.0799995288253 1339
24.0999995283782 1322
24.1199995279312 1401
24.1399995274842 1383
24.1599995270371 1356
24.1799995265901 1347
24.1999995261431 1353
24.219999525696 1429
24.239999525249 1399
24.259999524802 1418
24.2799995243549 1359
24.2999995239079 1444
24.3199995234609 1403
24.3399995230138 1453
24.3599995225668 1449
24.3799995221198 1436
24.3999995216727 1489
24.4199995212257 1525
24.4399995207787 1537
24.4599995203316 1590
24.4799995198846 1650
24.4999995194376 1698
24.5199995189905 1767
24.5399995185435 1793
24.5599995180964 1863
24.5799995176494 1907
24.5999995172024 1783
24.6199995167553 1772
24.6399995163083 1796
24.6599995158613 1770
24.6799995154142 1717
24.6999995149672 1579
24.7199995145202 1555
24.7399995140731 1520
24.7599995136261 1496
24.7799995131791 1509
24.799999512732 1462
24.819999512285 1482
24.839999511838 1410
24.8599995113909 1426
24.8799995109439 1437
24.8999995104969 1468
24.9199995100498 1410
24.9399995096028 1394
24.9599995091558 1345
24.9799995087087 1401
24.9999995082617 1371
25.0199995078146 1486
25.0399995073676 1371
25.0599995069206 1349
25.0799995064735 1415
25.0999995060265 1481
25.1199995055795 1498
25.1399995051324 1543
25.1599995046854 1589
25.1799995042384 1655
25.1999995037913 1703
25.2199995033443 1863
25.2399995028973 1962
25.2599995024502 2177
25.2799995020032 2258
25.2999995015562 2366
25.3199995011091 2583
25.3399995006621 2533
25.3599995002151 2560
25.379999499768 2493
25.399999499321 2396
25.4199994988739 2098
25.4399994984269 1964
25.4599994979799 1705
25.4799994975328 1727
25.4999994970858 1496
25.5199994966388 1456
25.5399994961917 1369
25.5599994957447 1478
25.5799994952977 1387
25.5999994948506 1344
25.6199994944036 1410
25.6399994939566 1319
25.6599994935095 1402
25.6799994930625 1373
25.6999994926155 1334
25.7199994921684 1393
25.7399994917214 1356
25.7599994912744 1366
25.7799994908273 1335
25.7999994903803 1318
25.8199994899333 1379
25.8399994894862 1371
25.8599994890392 1347
25.8799994885921 1312
25.8999994881451 1320
25.9199994876981 1355
25.939999487251 1446
25.959999486804 1349
25.979999486357 1376
25.9999994859099 1314
26.0199994854629 1363
26.0399994850159 1327
26.0599994845688 1295
26.0799994841218 1370
26.0999994836748 1310
26.1199994832277 1292
26.1399994827807 1325
26.1599994823337 1340
26.1799994818866 1319
26.1999994814396 1378
26.2199994809926 1309
26.2399994805455 1252
26.2599994800985 1332
26.2799994796514 1340
26.2999994792044 1259
26.3199994787574 1290
26.3399994783103 1342
26.3599994778633 1256
26.3799994774163 1281
26.3999994769692 1319
26.4199994765222 1349
26.4399994760752 1327
26.4599994756281 1366
26.4799994751811 1283
26.4999994747341 1321
26.519999474287 1299
26.53999947384 1386
26.559999473393 1398
26.5799994729459 1402
26.5999994724989 1423
26.6199994720519 1361
26.6399994716048 1484
26.6599994711578 1544
26.6799994707108 1584
26.6999994702637 1692
26.7199994698167 1704
26.7399994693697 1727
26.7599994689226 1747
26.7799994684756 1732
26.7999994680285 1765
26.8199994675815 1805
26.8399994671345 1975
26.8599994666874 2015
26.8799994662404 2125
26.8999994657934 2221
26.9199994653463 2239
26.9399994648993 2259
26.9599994644523 2175
26.9799994640052 2147
26.9999994635582 1993
27.0199994631112 1961
27.0399994626641 1897
27.0599994622171 1704
27.0799994617701 1610
27.099999461323 1532
27.119999460876 1453
27.139999460429 1416
27.1599994599819 1419
27.1799994595349 1338
27.1999994590878 1396
27.2199994586408 1276
27.2399994581938 1367
27.2599994577467 1298
27.2799994572997 1322
27.2999994568527 1291
27.3199994564056 1339
27.3399994559586 1279
27.3599994555116 1310
27.3799994550645 1278
27.3999994546175 1322
27.4199994541705 1172
27.4399994537234 1242
27.4599994532764 1253
27.4799994528294 1183
27.4999994523823 1212
27.5199994519353 1281
27.5399994514883 1279
27.5599994510412 1255
27.5799994505942 1340
27.5999994501472 1247
27.6199994497001 1252
27.6399994492531 1256
27.659999448806 1227
27.679999448359 1264
27.699999447912 1269
27.7199994474649 1219
27.7399994470179 1233
27.7599994465709 1263
27.7799994461238 1352
27.7999994456768 1267
27.8199994452298 1272
27.8399994447827 1230
27.8599994443357 1259
27.8799994438887 1248
27.8999994434416 1252
27.9199994429946 1273
27.9399994425476 1245
27.9599994421005 1303
27.9799994416535 1200
27.9999994412065 1287
28.0199994407594 1277
28.0399994403124 1224
28.0599994398654 1316
28.0799994394183 1308
28.0999994389713 1278
28.1199994385242 1186
28.1399994380772 1289
28.1599994376302 1318
28.1799994371831 1333
28.1999994367361 1296
28.2199994362891 1309
28.239999435842 1338
28.259999435395 1358
28.279999434948 1319
28.2999994345009 1187
28.3199994340539 1278
28.3399994336069 1170
28.3599994331598 1210
28.3799994327128 1192
28.3999994322658 1258
28.4199994318187 1195
28.4399994313717 1187
28.4599994309247 1192
28.4799994304776 1242
28.4999994300306 1189
28.5199994295835 1293
28.5399994291365 1201
28.5599994286895 1286
28.5799994282424 1224
28.5999994277954 1239
28.6199994273484 1243
28.6399994269013 1312
28.6599994264543 1287
28.6799994260073 1304
28.6999994255602 1236
28.7199994251132 1257
28.7399994246662 1245
28.7599994242191 1235
28.7799994237721 1186
28.7999994233251 1173
28.819999422878 1247
28.839999422431 1161
28.859999421984 1228
28.8799994215369 1157
28.8999994210899 1206
28.9199994206429 1157
28.9399994201958 1193
28.9599994197488 1211
28.9799994193017 1214
28.9999994188547 1235
29.0199994184077 1224
29.0399994179606 1211
29.0599994175136 1270
29.0799994170666 1233
29.0999994166195 1264
29.1199994161725 1296
29.1399994157255 1254
29.1599994152784 1369
29.1799994148314 1376
29.1999994143844 1346
29.2199994139373 1406
29.2399994134903 1368
29.2599994130433 1397
29.2799994125962 1367
29.2999994121492 1386
29.3199994117022 1387
29.3399994112551 1309
29.3599994108081 1359
29.379999410361 1342
29.399999409914 1290
29.419999409467 1236
29.4399994090199 1180
29.4599994085729 1254
29.4799994081259 1177
29.4999994076788 1206
29.5199994072318 1180
29.5399994067848 1184
29.5599994063377 1183
29.5799994058907 1177
29.5999994054437 1067
29.6199994049966 1225
29.6399994045496 1125
29.6599994041026 1090
29.6799994036555 1103
29.6999994032085 1148
29.7199994027615 1136
29.7399994023144 1141
29.7599994018674 1084
29.7799994014204 1162
29.7999994009733 1157
29.8199994005263 1120
29.8399994000793 1143
29.8599993996322 1110
29.8799993991852 1105
29.8999993987381 1156
29.9199993982911 1121
29.9399993978441 1152
29.959999397397 1136
29.97999939695 1135
29.999999396503 1073
