3 5730
3.01999999955297 5521
3.03999999910593 5125
3.0599999986589 4789
3.07999999821186 4379
3.09999999776483 4059
3.11999999731779 3671
3.13999999687076 3546
3.15999999642372 3162
3.17999999597669 2913
3.19999999552965 2778
3.21999999508262 2503
3.23999999463558 2360
3.25999999418855 2170
3.27999999374151 1922
3.29999999329448 1757
3.31999999284744 1663
3.33999999240041 1510
3.35999999195337 1456
3.37999999150634 1406
3.3999999910593 1336
3.41999999061227 1305
3.43999999016523 1274
3.4599999897182 1224
3.47999998927116 1251
3.49999998882413 1157
3.51999998837709 1187
3.53999998793006 1140
3.55999998748302 1209
3.57999998703599 1123
3.59999998658895 1166
3.61999998614192 1126
3.63999998569489 1136
3.65999998524785 1125
3.67999998480082 1090
3.69999998435378 1113
3.71999998390675 1083
3.73999998345971 1057
3.75999998301268 1027
3.77999998256564 1059
3.79999998211861 1016
3.81999998167157 1060
3.83999998122454 960
3.8599999807775 1018
3.87999998033047 960
3.89999997988343 1004
3.9199999794364 1039
3.93999997898936 1029
3.95999997854233 1025
3.97999997809529 956
3.99999997764826 923
4.01999997720122 970
4.03999997675419 965
4.05999997630715 947
4.07999997586012 911
4.09999997541308 897
4.11999997496605 857
4.13999997451901 884
4.15999997407198 877
4.17999997362494 848
4.19999997317791 906
4.21999997273087 903
4.23999997228384 858
4.25999997183681 854
4.27999997138977 844
4.29999997094274 879
4.3199999704957 807
4.33999997004867 821
4.35999996960163 820
4.3799999691546 784
4.39999996870756 785
4.41999996826053 809
4.43999996781349 821
4.45999996736646 792
4.47999996691942 810
4.49999996647239 775
4.51999996602535 801
4.53999996557832 812
4.55999996513128 776
4.57999996468425 741
4.59999996423721 750
4.61999996379018 759
4.63999996334314 776
4.65999996289611 753
4.67999996244907 786
4.69999996200204 722
4.719999961555 765
4.73999996110797 729
4.75999996066093 780
4.7799999602139 741
4.79999995976686 783
4.81999995931983 767
4.83999995887279 735
4.85999995842576 760
4.87999995797873 700
4.89999995753169 731
4.91999995708466 736
4.93999995663762 739
4.95999995619059 672
4.97999995574355 705
4.99999995529652 678
5.01999995484948 766
5.03999995440245 720
5.05999995395541 717
5.07999995350838 723
5.09999995306134 748
5.11999995261431 725
5.13999995216727 708
5.15999995172024 720
5.1799999512732 716
5.19999995082617 690
5.21999995037913 731
5.2399999499321 704
5.25999994948506 716
5.27999994903803 732
5.29999994859099 716
5.31999994814396 740
5.33999994769692 676
5.35999994724989 731
5.37999994680285 774
5.39999994635582 725
5.41999994590878 747
5.43999994546175 748
5.45999994501471 750
5.47999994456768 756
5.49999994412065 732
5.51999994367361 725
5.53999994322658 820
5.55999994277954 756
5.57999994233251 751
5.59999994188547 766
5.61999994143844 718
5.6399999409914 701
5.65999994054437 720
5.67999994009733 728
5.6999999396503 735
5.71999993920326 691
5.73999993875623 676
5.75999993830919 675
5.77999993786216 671
5.79999993741512 669
5.81999993696809 676
5.83999993652105 681
5.85999993607402 657
5.87999993562698 642
5.89999993517995 636
5.91999993473291 614
5.93999993428588 654
5.95999993383884 664
5.97999993339181 634
5.99999993294477 630
6.01999993249774 634
6.0399999320507 616
6.05999993160367 628
6.07999993115663 626
6.0999999307096 621
6.11999993026257 626
6.13999992981553 618
6.1599999293685 640
6.17999992892146 588
6.19999992847443 596
6.21999992802739 666
6.23999992758036 585
6.25999992713332 583
6.27999992668629 596
6.29999992623925 620
6.31999992579222 616
6.33999992534518 600
6.35999992489815 639
6.37999992445111 592
6.39999992400408 623
6.41999992355704 596
6.43999992311001 565
6.45999992266297 574
6.47999992221594 641
6.4999999217689 590
6.51999992132187 600
6.53999992087483 624
6.5599999204278 579
6.57999991998076 597
6.59999991953373 591
6.61999991908669 571
6.63999991863966 605
6.65999991819262 582
6.67999991774559 579
6.69999991729855 578
6.71999991685152 603
6.73999991640449 565
6.75999991595745 575
6.77999991551042 572
6.79999991506338 539
6.81999991461635 572
6.83999991416931 566
6.85999991372228 596
6.87999991327524 597
6.89999991282821 591
6.91999991238117 560
6.93999991193414 585
6.9599999114871 590
6.97999991104007 571
6.99999991059303 613
7.019999910146 569
7.03999990969896 591
7.05999990925193 588
7.07999990880489 560
7.09999990835786 607
7.11999990791082 606
7.13999990746379 580
7.15999990701675 559
7.17999990656972 534
7.19999990612268 531
7.21999990567565 574
7.23999990522861 604
7.25999990478158 586
7.27999990433454 572
7.29999990388751 593
7.31999990344047 572
7.33999990299344 554
7.35999990254641 563
7.37999990209937 565
7.39999990165234 621
7.4199999012053 533
7.43999990075827 584
7.45999990031123 538
7.4799998998642 584
7.49999989941716 575
7.51999989897013 543
7.53999989852309 558
7.55999989807606 588
7.57999989762902 519
7.59999989718199 517
7.61999989673495 525
7.63999989628792 561
7.65999989584088 528
7.67999989539385 584
7.69999989494681 544
7.71999989449978 569
7.73999989405274 567
7.75999989360571 539
7.77999989315867 518
7.79999989271164 545
7.8199998922646 525
7.83999989181757 557
7.85999989137053 496
7.8799998909235 578
7.89999989047646 531
7.91999989002943 551
7.9399998895824 564
7.95999988913536 561
7.97999988868833 569
7.99999988824129 575
8.01999988779426 562
8.03999988734722 527
8.05999988690019 551
8.07999988645315 528
8.09999988600612 561
8.11999988555908 557
8.13999988511205 491
8.15999988466501 529
8.17999988421798 552
8.19999988377094 567
8.21999988332391 559
8.23999988287687 539
8.25999988242984 532
8.2799998819828 545
8.29999988153577 563
8.31999988108873 546
8.3399998806417 554
8.35999988019466 482
8.37999987974763 518
8.39999987930059 537
8.41999987885356 567
8.43999987840652 568
8.45999987795949 529
8.47999987751245 512
8.49999987706542 534
8.51999987661839 523
8.53999987617135 557
8.55999987572432 523
8.57999987527728 522
8.59999987483025 522
8.61999987438321 518
8.63999987393618 531
8.65999987348914 532
8.67999987304211 542
8.69999987259507 531
8.71999987214804 547
8.739999871701 559
8.75999987125397 533
8.77999987080693 555
8.7999998703599 520
8.81999986991286 539
8.83999986946583 534
8.85999986901879 509
8.87999986857176 529
8.89999986812472 531
8.91999986767769 514
8.93999986723065 551
8.95999986678362 574
8.97999986633658 579
8.99999986588955 534
9.01999986544251 550
9.03999986499548 552
9.05999986454844 525
9.07999986410141 507
9.09999986365438 548
9.11999986320734 534
9.13999986276031 536
9.15999986231327 572
9.17999986186624 561
9.1999998614192 548
9.21999986097217 571
9.23999986052513 531
9.2599998600781 548
9.27999985963106 538
9.29999985918403 560
9.31999985873699 571
9.33999985828996 546
9.35999985784292 517
9.37999985739589 564
9.39999985694885 566
9.41999985650182 561
9.43999985605478 571
9.45999985560775 572
9.47999985516071 605
9.49999985471368 579
9.51999985426664 598
9.53999985381961 614
9.55999985337257 623
9.57999985292554 569
9.5999998524785 584
9.61999985203147 536
9.63999985158443 537
9.6599998511374 512
9.67999985069037 557
9.69999985024333 559
9.7199998497963 559
9.73999984934926 550
9.75999984890223 547
9.77999984845519 574
9.79999984800816 567
9.81999984756112 552
9.83999984711409 541
9.85999984666705 551
9.87999984622002 507
9.89999984577298 548
9.91999984532595 543
9.93999984487891 542
9.95999984443188 533
9.97999984398484 513
9.99999984353781 538
10.0199998430908 515
10.0399998426437 543
10.0599998421967 538
10.0799998417497 528
10.0999998413026 506
10.1199998408556 517
10.1399998404086 556
10.1599998399615 566
10.1799998395145 520
10.1999998390675 486
10.2199998386204 498
10.2399998381734 539
10.2599998377264 537
10.2799998372793 519
10.2999998368323 497
10.3199998363853 534
10.3399998359382 548
10.3599998354912 524
10.3799998350441 506
10.3999998345971 493
10.4199998341501 526
10.439999833703 518
10.459999833256 487
10.479999832809 544
10.4999998323619 530
10.5199998319149 535
10.5399998314679 482
10.5599998310208 537
10.5799998305738 543
10.5999998301268 530
10.6199998296797 528
10.6399998292327 511
10.6599998287857 499
10.6799998283386 528
10.6999998278916 506
10.7199998274446 508
10.7399998269975 534
10.7599998265505 544
10.7799998261034 554
10.7999998256564 513
10.8199998252094 535
10.8399998247623 543
10.8599998243153 529
10.8799998238683 539
10.8999998234212 557
10.9199998229742 528
10.9399998225272 539
10.9599998220801 543
10.9799998216331 511
10.9999998211861 557
11.019999820739 559
11.039999820292 530
11.059999819845 509
11.0799998193979 485
11.0999998189509 536
11.1199998185039 533
11.1399998180568 495
11.1599998176098 571
11.1799998171628 530
11.1999998167157 562
11.2199998162687 518
11.2399998158216 485
11.2599998153746 507
11.2799998149276 539
11.2999998144805 585
11.3199998140335 539
11.3399998135865 526
11.3599998131394 535
11.3799998126924 516
11.3999998122454 507
11.4199998117983 517
11.4399998113513 519
11.4599998109043 518
11.4799998104572 517
11.4999998100102 513
11.5199998095632 522
11.5399998091161 519
11.5599998086691 517
11.5799998082221 537
11.599999807775 520
11.619999807328 494
11.639999806881 539
11.6599998064339 533
11.6799998059869 558
11.6999998055398 500
11.7199998050928 531
11.7399998046458 509
11.7599998041987 500
11.7799998037517 516
11.7999998033047 529
11.8199998028576 522
11.8399998024106 519
11.8599998019636 529
11.8799998015165 541
11.8999998010695 507
11.9199998006225 526
11.9399998001754 527
11.9599997997284 550
11.9799997992814 544
11.9999997988343 568
12.0199997983873 539
12.0399997979403 519
12.0599997974932 526
12.0799997970462 518
12.0999997965992 556
12.1199997961521 562
12.1399997957051 546
12.159999795258 532
12.179999794811 507
12.199999794364 533
12.2199997939169 514
12.2399997934699 572
12.2599997930229 567
12.2799997925758 556
12.2999997921288 528
12.3199997916818 580
12.3399997912347 519
12.3599997907877 555
12.3799997903407 558
12.3999997898936 556
12.4199997894466 531
12.4399997889996 526
12.4599997885525 532
12.4799997881055 496
12.4999997876585 562
12.5199997872114 540
12.5399997867644 521
12.5599997863173 580
12.5799997858703 531
12.5999997854233 499
12.6199997849762 554
12.6399997845292 524
12.6599997840822 561
12.6799997836351 509
12.6999997831881 573
12.7199997827411 564
12.739999782294 561
12.759999781847 539
12.7799997814 558
12.7999997809529 566
12.8199997805059 551
12.8399997800589 542
12.8599997796118 530
12.8799997791648 562
12.8999997787178 532
12.9199997782707 575
12.9399997778237 551
12.9599997773767 540
12.9799997769296 575
12.9999997764826 585
13.0199997760355 566
13.0399997755885 602
13.0599997751415 548
13.0799997746944 574
13.0999997742474 582
13.1199997738004 535
13.1399997733533 555
13.1599997729063 544
13.1799997724593 558
13.1999997720122 546
13.2199997715652 575
13.2399997711182 556
13.2599997706711 593
13.2799997702241 570
13.2999997697771 549
13.31999976933 554
13.339999768883 568
13.359999768436 558
13.3799997679889 558
13.3999997675419 580
13.4199997670949 596
13.4399997666478 598
13.4599997662008 596
13.4799997657537 545
13.4999997653067 598
13.5199997648597 597
13.5399997644126 595
13.5599997639656 568
13.5799997635186 574
13.5999997630715 580
13.6199997626245 598
13.6399997621775 596
13.6599997617304 595
13.6799997612834 588
13.6999997608364 587
13.7199997603893 626
13.7399997599423 631
13.7599997594953 617
13.7799997590482 589
13.7999997586012 570
13.8199997581542 570
13.8399997577071 584
13.8599997572601 592
13.879999756813 593
13.899999756366 599
13.919999755919 563
13.9399997554719 570
13.9599997550249 616
13.9799997545779 576
13.9999997541308 580
14.0199997536838 622
14.0399997532368 627
14.0599997527897 609
14.0799997523427 621
14.0999997518957 598
14.1199997514486 578
14.1399997510016 594
14.1599997505546 611
14.1799997501075 605
14.1999997496605 607
14.2199997492135 574
14.2399997487664 560
14.2599997483194 626
14.2799997478724 614
14.2999997474253 615
14.3199997469783 614
14.3399997465312 647
14.3599997460842 616
14.3799997456372 613
14.3999997451901 674
14.4199997447431 593
14.4399997442961 611
14.459999743849 615
14.479999743402 621
14.499999742955 624
14.5199997425079 661
14.5399997420609 598
14.5599997416139 621
14.5799997411668 643
14.5999997407198 654
14.6199997402728 661
14.6399997398257 593
14.6599997393787 622
14.6799997389317 689
14.6999997384846 660
14.7199997380376 619
14.7399997375906 636
14.7599997371435 660
14.7799997366965 663
14.7999997362494 660
14.8199997358024 661
14.8399997353554 654
14.8599997349083 663
14.8799997344613 661
14.8999997340143 694
14.9199997335672 642
14.9399997331202 647
14.9599997326732 664
14.9799997322261 659
14.9999997317791 647
15.0199997313321 658
15.039999730885 625
15.059999730438 622
15.079999729991 637
15.0999997295439 672
15.1199997290969 652
15.1399997286499 684
15.1599997282028 674
15.1799997277558 634
15.1999997273088 681
15.2199997268617 722
15.2399997264147 606
15.2599997259676 696
15.2799997255206 688
15.2999997250736 686
15.3199997246265 699
15.3399997241795 684
15.3599997237325 679
15.3799997232854 706
15.3999997228384 734
15.4199997223914 689
15.4399997219443 727
15.4599997214973 702
15.4799997210503 721
15.4999997206032 636
15.5199997201562 706
15.5399997197092 741
15.5599997192621 718
15.5799997188151 779
15.5999997183681 713
15.619999717921 697
15.639999717474 718
15.659999717027 721
15.6799997165799 704
15.6999997161329 722
15.7199997156858 716
15.7399997152388 732
15.7599997147918 758
15.7799997143447 712
15.7999997138977 735
15.8199997134507 744
15.8399997130036 740
15.8599997125566 759
15.8799997121096 735
15.8999997116625 713
15.9199997112155 722
15.9399997107685 800
15.9599997103214 724
15.9799997098744 764
15.9999997094274 768
16.0199997089803 798
16.0399997085333 718
16.0599997080863 740
16.0799997076392 690
16.0999997071922 667
16.1199997067451 715
16.1399997062981 769
16.1599997058511 768
16.179999705404 733
16.199999704957 796
16.21999970451 730
16.2399997040629 792
16.2599997036159 794
16.2799997031689 781
16.2999997027218 786
16.3199997022748 738
16.3399997018278 793
16.3599997013807 734
16.3799997009337 850
16.3999997004867 803
16.4199997000396 816
16.4399996995926 817
16.4599996991456 799
16.4799996986985 828
16.4999996982515 781
16.5199996978045 806
16.5399996973574 766
16.5599996969104 777
16.5799996964633 845
16.5999996960163 772
16.6199996955693 809
16.6399996951222 804
16.6599996946752 854
16.6799996942282 777
16.6999996937811 836
16.7199996933341 839
16.7399996928871 792
16.75999969244 884
16.779999691993 859
16.799999691546 840
16.8199996910989 856
16.8399996906519 822
16.8599996902049 910
16.8799996897578 871
16.8999996893108 916
16.9199996888638 966
16.9399996884167 1000
16.9599996879697 967
16.9799996875226 970
16.9999996870756 1052
17.0199996866286 1210
17.0399996861815 1229
17.0599996857345 1210
17.0799996852875 1220
17.0999996848404 1271
17.1199996843934 1215
17.1399996839464 1245
17.1599996834993 1104
17.1799996830523 1076
17.1999996826053 979
17.2199996821582 959
17.2399996817112 916
17.2599996812642 932
17.2799996808171 904
17.2999996803701 880
17.3199996799231 915
17.339999679476 926
17.359999679029 869
17.379999678582 863
17.3999996781349 910
17.4199996776879 907
17.4399996772408 953
17.4599996767938 942
17.4799996763468 922
17.4999996758997 889
17.5199996754527 946
17.5399996750057 930
17.5599996745586 935
17.5799996741116 916
17.5999996736646 906
17.6199996732175 936
17.6399996727705 903
17.6599996723235 895
17.6799996718764 914
17.6999996714294 1008
17.7199996709824 907
17.7399996705353 924
17.7599996700883 928
17.7799996696413 924
17.7999996691942 952
17.8199996687472 936
17.8399996683002 947
17.8599996678531 974
17.8799996674061 989
17.899999666959 993
17.919999666512 936
17.939999666065 982
17.9599996656179 936
17.9799996651709 1022
17.9999996647239 956
18.0199996642768 964
18.0399996638298 973
18.0599996633828 1032
18.0799996629357 989
18.0999996624887 966
18.1199996620417 993
18.1399996615946 1020
18.1599996611476 971
18.1799996607006 1002
18.1999996602535 1011
18.2199996598065 1014
18.2399996593595 1054
18.2599996589124 1061
18.2799996584654 1049
18.2999996580184 1062
18.3199996575713 1003
18.3399996571243 1089
18.3599996566772 1070
18.3799996562302 1038
18.3999996557832 1060
18.4199996553361 969
18.4399996548891 1069
18.4599996544421 1101
18.479999653995 976
18.499999653548 1037
18.519999653101 1049
18.5399996526539 1073
18.5599996522069 1062
18.5799996517599 1079
18.5999996513128 1025
18.6199996508658 1081
18.6399996504188 1080
18.6599996499717 1092
18.6799996495247 1132
18.6999996490777 1074
18.7199996486306 1071
18.7399996481836 1087
18.7599996477366 1086
18.7799996472895 1095
18.7999996468425 1103
18.8199996463954 1105
18.8399996459484 1081
18.8599996455014 1116
18.8799996450543 1075
18.8999996446073 1114
18.9199996441603 1177
18.9399996437132 1098
18.9599996432662 1114
18.9799996428192 1108
18.9999996423721 1106
19.0199996419251 1175
19.0399996414781 1138
19.059999641031 1119
19.079999640584 1183
19.099999640137 1137
19.1199996396899 1115
19.1399996392429 1163
19.1599996387959 1163
19.1799996383488 1140
19.1999996379018 1171
19.2199996374547 1193
19.2399996370077 1159
19.2599996365607 1136
19.2799996361136 1192
19.2999996356666 1222
19.3199996352196 1190
19.3399996347725 1201
19.3599996343255 1210
19.3799996338785 1189
19.3999996334314 1230
19.4199996329844 1167
19.4399996325374 1177
19.4599996320903 1231
19.4799996316433 1228
19.4999996311963 1149
19.5199996307492 1220
19.5399996303022 1264
19.5599996298552 1191
19.5799996294081 1257
19.5999996289611 1244
19.6199996285141 1248
19.639999628067 1246
19.65999962762 1288
19.6799996271729 1270
19.6999996267259 1245
19.7199996262789 1244
19.7399996258318 1213
19.7599996253848 1217
19.7799996249378 1240
19.7999996244907 1284
19.8199996240437 1286
19.8399996235967 1279
19.8599996231496 1276
19.8799996227026 1222
19.8999996222556 1279
19.9199996218085 1273
19.9399996213615 1281
19.9599996209145 1349
19.9799996204674 1281
19.9999996200204 1267
20.0199996195734 1281
20.0399996191263 1270
20.0599996186793 1228
20.0799996182322 1292
20.0999996177852 1312
20.1199996173382 1307
20.1399996168911 1267
20.1599996164441 1333
20.1799996159971 1292
20.19999961555 1321
20.219999615103 1295
20.239999614656 1308
20.2599996142089 1306
20.2799996137619 1346
20.2999996133149 1318
20.3199996128678 1374
20.3399996124208 1348
20.3599996119738 1345
20.3799996115267 1318
20.3999996110797 1334
20.4199996106327 1352
20.4399996101856 1333
20.4599996097386 1327
20.4799996092916 1391
20.4999996088445 1410
20.5199996083975 1399
20.5399996079504 1402
20.5599996075034 1412
20.5799996070564 1480
20.5999996066093 1435
20.6199996061623 1430
20.6399996057153 1353
20.6599996052682 1368
20.6799996048212 1417
20.6999996043742 1450
20.7199996039271 1422
20.7399996034801 1410
20.7599996030331 1377
20.779999602586 1450
20.799999602139 1397
20.819999601692 1416
20.8399996012449 1381
20.8599996007979 1418
20.8799996003509 1402
20.8999995999038 1439
20.9199995994568 1487
20.9399995990098 1433
20.9599995985627 1406
20.9799995981157 1439
20.9999995976686 1461
21.0199995972216 1421
21.0399995967746 1451
21.0599995963275 1441
21.0799995958805 1469
21.0999995954335 1450
21.1199995949864 1417
21.1399995945394 1440
21.1599995940924 1432
21.1799995936453 1469
21.1999995931983 1460
21.2199995927513 1457
21.2399995923042 1492
21.2599995918572 1484
21.2799995914102 1427
21.2999995909631 1469
21.3199995905161 1438
21.3399995900691 1425
21.359999589622 1446
21.379999589175 1481
21.399999588728 1498
21.4199995882809 1477
21.4399995878339 1439
21.4599995873868 1480
21.4799995869398 1463
21.4999995864928 1477
21.5199995860457 1502
21.5399995855987 1468
21.5599995851517 1505
21.5799995847046 1549
21.5999995842576 1516
21.6199995838106 1449
21.6399995833635 1501
21.6599995829165 1460
21.6799995824695 1530
21.6999995820224 1531
21.7199995815754 1373
21.7399995811284 1437
21.7599995806813 1517
21.7799995802343 1463
21.7999995797873 1506
21.8199995793402 1483
21.8399995788932 1486
21.8599995784462 1464
21.8799995779991 1514
21.8999995775521 1494
21.919999577105 1550
21.939999576658 1536
21.959999576211 1560
21.9799995757639 1522
21.9999995753169 1500
22.0199995748699 1464
22.0399995744228 1522
22.0599995739758 1549
22.0799995735288 1524
22.0999995730817 1527
22.1199995726347 1580
22.1399995721877 1489
22.1599995717406 1554
22.1799995712936 1509
22.1999995708466 1568
22.2199995703995 1481
22.2399995699525 1570
22.2599995695055 1535
22.2799995690584 1493
22.2999995686114 1568
22.3199995681643 1485
22.3399995677173 1495
22.3599995672703 1506
22.3799995668232 1535
22.3999995663762 1521
22.4199995659292 1552
22.4399995654821 1559
22.4599995650351 1557
22.4799995645881 1510
22.499999564141 1549
22.519999563694 1485
22.539999563247 1601
22.5599995627999 1485
22.5799995623529 1510
22.5999995619059 1507
22.6199995614588 1507
22.6399995610118 1563
22.6599995605648 1544
22.6799995601177 1486
22.6999995596707 1498
22.7199995592237 1573
22.7399995587766 1590
22.7599995583296 1552
22.7799995578825 1496
22.7999995574355 1527
22.8199995569885 1549
22.8399995565414 1481
22.8599995560944 1550
22.8799995556474 1504
22.8999995552003 1530
22.9199995547533 1532
22.9399995543063 1565
22.9599995538592 1466
22.9799995534122 1526
22.9999995529652 1554
23.0199995525181 1482
23.0399995520711 1487
23.0599995516241 1532
23.079999551177 1473
23.09999955073 1541
23.119999550283 1504
23.1399995498359 1495
23.1599995493889 1514
23.1799995489418 1545
23.1999995484948 1479
23.2199995480478 1521
23.2399995476007 1481
23.2599995471537 1553
23.2799995467067 1553
23.2999995462596 1614
23.3199995458126 1529
23.3399995453656 1512
23.3599995449185 1490
23.3799995444715 1573
23.3999995440245 1547
23.4199995435774 1506
23.4399995431304 1551
23.4599995426834 1560
23.4799995422363 1559
23.4999995417893 1499
23.5199995413423 1525
23.5399995408952 1596
23.5599995404482 1546
23.5799995400012 1504
23.5999995395541 1509
23.6199995391071 1538
23.63999953866 1585
23.659999538213 1526
23.679999537766 1496
23.6999995373189 1533
23.7199995368719 1600
23.7399995364249 1535
23.7599995359778 1564
23.7799995355308 1531
23.7999995350838 1510
23.8199995346367 1480
23.8399995341897 1553
23.8599995337427 1536
23.8799995332956 1533
23.8999995328486 1569
23.9199995324016 1473
23.9399995319545 1548
23.9599995315075 1494
23.9799995310605 1536
23.9999995306134 1544
24.0199995301664 1508
24.0399995297194 1586
24.0599995292723 1452
24.0799995288253 1483
24.0999995283782 1520
24.1199995279312 1498
24.1399995274842 1453
24.1599995270371 1462
24.1799995265901 1464
24.1999995261431 1494
24.219999525696 1456
24.239999525249 1513
24.259999524802 1558
24.2799995243549 1551
24.2999995239079 1530
24.3199995234609 1494
24.3399995230138 1519
24.3599995225668 1507
24.3799995221198 1494
24.3999995216727 1517
24.4199995212257 1560
24.4399995207787 1588
24.4599995203316 1609
24.4799995198846 1572
24.4999995194376 1581
24.5199995189905 1545
24.5399995185435 1581
24.5599995180964 1559
24.5799995176494 1601
24.5999995172024 1625
24.6199995167553 1619
24.6399995163083 1615
24.6599995158613 1548
24.6799995154142 1620
24.6999995149672 1595
24.7199995145202 1578
24.7399995140731 1572
24.7599995136261 1573
24.7799995131791 1578
24.799999512732 1520
24.819999512285 1474
24.839999511838 1526
24.8599995113909 1544
24.8799995109439 1514
24.8999995104969 1589
24.9199995100498 1544
24.9399995096028 1532
24.9599995091558 1542
24.9799995087087 1550
24.9999995082617 1494
25.0199995078146 1514
25.0399995073676 1483
25.0599995069206 1553
25.0799995064735 1533
25.0999995060265 1512
25.1199995055795 1515
25.1399995051324 1511
25.1599995046854 1486
25.1799995042384 1550
25.1999995037913 1574
25.2199995033443 1563
25.2399995028973 1482
25.2599995024502 1614
25.2799995020032 1637
25.2999995015562 1676
25.3199995011091 1719
25.3399995006621 1749
25.3599995002151 1728
25.379999499768 1768
25.399999499321 1806
25.4199994988739 1686
25.4399994984269 1688
25.4599994979799 1593
25.4799994975328 1558
25.4999994970858 1571
25.5199994966388 1504
25.5399994961917 1510
25.5599994957447 1478
25.5799994952977 1542
25.5999994948506 1485
25.6199994944036 1474
25.6399994939566 1543
25.6599994935095 1423
25.6799994930625 1520
25.6999994926155 1472
25.7199994921684 1512
25.7399994917214 1438
25.7599994912744 1422
25.7799994908273 1456
25.7999994903803 1481
25.8199994899333 1421
25.8399994894862 1463
25.8599994890392 1439
25.8799994885921 1395
25.8999994881451 1388
25.9199994876981 1425
25.939999487251 1445
25.959999486804 1402
25.979999486357 1440
25.9999994859099 1420
26.0199994854629 1495
26.0399994850159 1374
26.0599994845688 1461
26.0799994841218 1449
26.0999994836748 1431
26.1199994832277 1496
26.1399994827807 1447
26.1599994823337 1486
26.1799994818866 1441
26.1999994814396 1477
26.2199994809926 1457
26.2399994805455 1420
26.2599994800985 1403
26.2799994796514 1407
26.2999994792044 1517
26.3199994787574 1474
26.3399994783103 1404
26.3599994778633 1445
26.3799994774163 1363
26.3999994769692 1430
26.4199994765222 1390
26.4399994760752 1483
26.4599994756281 1470
26.4799994751811 1404
26.4999994747341 1432
26.519999474287 1424
26.53999947384 1456
26.559999473393 1467
26.5799994729459 1477
26.5999994724989 1381
26.6199994720519 1427
26.6399994716048 1427
26.6599994711578 1417
26.6799994707108 1475
26.6999994702637 1524
26.7199994698167 1497
26.7399994693697 1450
26.7599994689226 1480
26.7799994684756 1519
26.7999994680285 1463
26.8199994675815 1506
26.8399994671345 1535
26.8599994666874 1553
26.8799994662404 1522
26.8999994657934 1643
26.9199994653463 1622
26.9399994648993 1659
26.9599994644523 1577
26.9799994640052 1581
26.9999994635582 1633
27.0199994631112 1651
27.0399994626641 1668
27.0599994622171 1577
27.0799994617701 1522
27.099999461323 1500
27.119999460876 1521
27.139999460429 1517
27.1599994599819 1401
27.1799994595349 1396
27.1999994590878 1369
27.2199994586408 1356
27.2399994581938 1398
27.2599994577467 1393
27.2799994572997 1370
27.2999994568527 1438
27.3199994564056 1331
27.3399994559586 1383
27.3599994555116 1424
27.3799994550645 1377
27.3999994546175 1365
27.4199994541705 1354
27.4399994537234 1392
27.4599994532764 1389
27.4799994528294 1388
27.4999994523823 1324
27.5199994519353 1332
27.5399994514883 1308
27.5599994510412 1376
27.5799994505942 1344
27.5999994501472 1382
27.6199994497001 1311
27.6399994492531 1418
27.659999448806 1366
27.679999448359 1340
27.699999447912 1342
27.7199994474649 1345
27.7399994470179 1388
27.7599994465709 1385
27.7799994461238 1349
27.7999994456768 1419
27.8199994452298 1340
27.8399994447827 1326
27.8599994443357 1330
27.8799994438887 1361
27.8999994434416 1364
27.9199994429946 1310
27.9399994425476 1328
27.9599994421005 1463
27.9799994416535 1401
27.9999994412065 1289
28.0199994407594 1301
28.0399994403124 1368
28.0599994398654 1399
28.0799994394183 1336
28.0999994389713 1365
28.1199994385242 1367
28.1399994380772 1355
28.1599994376302 1377
28.1799994371831 1335
28.1999994367361 1313
28.2199994362891 1393
28.239999435842 1415
28.259999435395 1386
28.279999434948 1403
28.2999994345009 1374
28.3199994340539 1339
28.3399994336069 1313
28.3599994331598 1274
28.3799994327128 1258
28.3999994322658 1311
28.4199994318187 1299
28.4399994313717 1354
28.4599994309247 1319
28.4799994304776 1312
28.4999994300306 1329
28.5199994295835 1357
28.5399994291365 1321
28.5599994286895 1348
28.5799994282424 1302
28.5999994277954 1298
28.6199994273484 1312
28.6399994269013 1301
28.6599994264543 1348
28.6799994260073 1301
28.6999994255602 1293
28.7199994251132 1262
28.7399994246662 1327
28.7599994242191 1284
28.7799994237721 1334
28.7999994233251 1323
28.819999422878 1271
28.839999422431 1242
28.859999421984 1299
28.8799994215369 1309
28.8999994210899 1293
28.9199994206429 1287
28.9399994201958 1360
28.9599994197488 1296
28.9799994193017 1304
28.9999994188547 1255
29.0199994184077 1333
29.0399994179606 1298
29.0599994175136 1247
29.0799994170666 1286
29.0999994166195 1310
29.1199994161725 1306
29.1399994157255 1292
29.1599994152784 1269
29.1799994148314 1306
29.1999994143844 1334
29.2199994139373 1221
29.2399994134903 1331
29.2599994130433 1296
29.2799994125962 1286
29.2999994121492 1290
29.3199994117022 1273
29.3399994112551 1279
29.3599994108081 1399
29.379999410361 1361
29.399999409914 1294
29.419999409467 1289
29.4399994090199 1329
29.4599994085729 1313
29.4799994081259 1262
29.4999994076788 1278
29.5199994072318 1289
29.5399994067848 1259
29.5599994063377 1284
29.5799994058907 1242
29.5999994054437 1245
29.6199994049966 1296
29.6399994045496 1261
29.6599994041026 1165
29.6799994036555 1229
29.6999994032085 1212
29.7199994027615 1233
29.7399994023144 1244
29.7599994018674 1162
29.7799994014204 1257
29.7999994009733 1205
29.8199994005263 1264
29.8399994000793 1265
29.8599993996322 1260
29.8799993991852 1203
29.8999993987381 1268
29.9199993982911 1253
29.9399993978441 1213
29.959999397397 1273
29.97999939695 1231
29.999999396503 1207
