3 6057
3.01999999955297 5672
3.03999999910593 5258
3.0599999986589 4836
3.07999999821186 4525
3.09999999776483 4135
3.11999999731779 3908
3.13999999687076 3713
3.15999999642372 3449
3.17999999597669 3133
3.19999999552965 3030
3.21999999508262 2923
3.23999999463558 2673
3.25999999418855 2536
3.27999999374151 2383
3.29999999329448 2169
3.31999999284744 2007
3.33999999240041 1862
3.35999999195337 1746
3.37999999150634 1699
3.3999999910593 1569
3.41999999061227 1579
3.43999999016523 1531
3.4599999897182 1483
3.47999998927116 1405
3.49999998882413 1429
3.51999998837709 1356
3.53999998793006 1357
3.55999998748302 1336
3.57999998703599 1365
3.59999998658895 1252
3.61999998614192 1288
3.63999998569489 1286
3.65999998524785 1312
3.67999998480082 1255
3.69999998435378 1277
3.71999998390675 1274
3.73999998345971 1212
3.75999998301268 1196
3.77999998256564 1176
3.79999998211861 1238
3.81999998167157 1266
3.83999998122454 1181
3.8599999807775 1197
3.87999998033047 1143
3.89999997988343 1154
3.9199999794364 1191
3.93999997898936 1169
3.95999997854233 1166
3.97999997809529 1106
3.99999997764826 1140
4.01999997720122 1056
4.03999997675419 1073
4.05999997630715 1077
4.07999997586012 1072
4.09999997541308 1075
4.11999997496605 1106
4.13999997451901 1105
4.15999997407198 1087
4.17999997362494 1077
4.19999997317791 1078
4.21999997273087 1035
4.23999997228384 1073
4.25999997183681 998
4.27999997138977 1012
4.29999997094274 979
4.3199999704957 1044
4.33999997004867 982
4.35999996960163 981
4.3799999691546 954
4.39999996870756 996
4.41999996826053 994
4.43999996781349 992
4.45999996736646 955
4.47999996691942 1019
4.49999996647239 983
4.51999996602535 971
4.53999996557832 959
4.55999996513128 1008
4.57999996468425 925
4.59999996423721 905
4.61999996379018 977
4.63999996334314 933
4.65999996289611 938
4.67999996244907 967
4.69999996200204 951
4.719999961555 939
4.73999996110797 962
4.75999996066093 912
4.7799999602139 953
4.79999995976686 1011
4.81999995931983 894
4.83999995887279 899
4.85999995842576 934
4.87999995797873 917
4.89999995753169 930
4.91999995708466 887
4.93999995663762 945
4.95999995619059 922
4.97999995574355 949
4.99999995529652 928
5.01999995484948 927
5.03999995440245 929
5.05999995395541 901
5.07999995350838 892
5.09999995306134 962
5.11999995261431 910
5.13999995216727 899
5.15999995172024 906
5.1799999512732 937
5.19999995082617 905
5.21999995037913 922
5.2399999499321 909
5.25999994948506 956
5.27999994903803 976
5.29999994859099 951
5.31999994814396 936
5.33999994769692 983
5.35999994724989 894
5.37999994680285 960
5.39999994635582 979
5.41999994590878 946
5.43999994546175 959
5.45999994501471 948
5.47999994456768 954
5.49999994412065 1005
5.51999994367361 964
5.53999994322658 911
5.55999994277954 854
5.57999994233251 905
5.59999994188547 906
5.61999994143844 917
5.6399999409914 863
5.65999994054437 885
5.67999994009733 882
5.6999999396503 853
5.71999993920326 830
5.73999993875623 871
5.75999993830919 873
5.77999993786216 849
5.79999993741512 851
5.81999993696809 784
5.83999993652105 881
5.85999993607402 844
5.87999993562698 800
5.89999993517995 829
5.91999993473291 850
5.93999993428588 833
5.95999993383884 832
5.97999993339181 860
5.99999993294477 768
6.01999993249774 909
6.0399999320507 804
6.05999993160367 806
6.07999993115663 884
6.0999999307096 814
6.11999993026257 818
6.13999992981553 839
6.1599999293685 774
6.17999992892146 807
6.19999992847443 810
6.21999992802739 839
6.23999992758036 807
6.25999992713332 843
6.27999992668629 786
6.29999992623925 806
6.31999992579222 838
6.33999992534518 837
6.35999992489815 767
6.37999992445111 822
6.39999992400408 777
6.41999992355704 789
6.43999992311001 760
6.45999992266297 783
6.47999992221594 797
6.4999999217689 785
6.51999992132187 762
6.53999992087483 813
6.5599999204278 800
6.57999991998076 744
6.59999991953373 813
6.61999991908669 797
6.63999991863966 794
6.65999991819262 813
6.67999991774559 766
6.69999991729855 779
6.71999991685152 764
6.73999991640449 784
6.75999991595745 814
6.77999991551042 749
6.79999991506338 803
6.81999991461635 791
6.83999991416931 801
6.85999991372228 784
6.87999991327524 816
6.89999991282821 755
6.91999991238117 802
6.93999991193414 774
6.9599999114871 746
6.97999991104007 763
6.99999991059303 728
7.019999910146 809
7.03999990969896 828
7.05999990925193 826
7.07999990880489 812
7.09999990835786 779
7.11999990791082 756
7.13999990746379 748
7.15999990701675 769
7.17999990656972 763
7.19999990612268 769
7.21999990567565 721
7.23999990522861 803
7.25999990478158 753
7.27999990433454 785
7.29999990388751 760
7.31999990344047 758
7.33999990299344 780
7.35999990254641 784
7.37999990209937 774
7.39999990165234 748
7.4199999012053 756
7.43999990075827 752
7.45999990031123 764
7.4799998998642 772
7.49999989941716 796
7.51999989897013 770
7.53999989852309 800
7.55999989807606 790
7.57999989762902 763
7.59999989718199 781
7.61999989673495 691
7.63999989628792 774
7.65999989584088 735
7.67999989539385 797
7.69999989494681 726
7.71999989449978 735
7.73999989405274 815
7.75999989360571 774
7.77999989315867 765
7.79999989271164 731
7.8199998922646 717
7.83999989181757 731
7.85999989137053 730
7.8799998909235 753
7.89999989047646 758
7.91999989002943 763
7.9399998895824 777
7.95999988913536 756
7.97999988868833 781
7.99999988824129 775
8.01999988779426 764
8.03999988734722 772
8.05999988690019 741
8.07999988645315 726
8.09999988600612 752
8.11999988555908 727
8.13999988511205 737
8.15999988466501 703
8.17999988421798 747
8.19999988377094 771
8.21999988332391 752
8.23999988287687 746
8.25999988242984 713
8.2799998819828 759
8.29999988153577 772
8.31999988108873 729
8.3399998806417 717
8.35999988019466 743
8.37999987974763 746
8.39999987930059 700
8.41999987885356 764
8.43999987840652 734
8.45999987795949 728
8.47999987751245 748
8.49999987706542 735
8.51999987661839 695
8.53999987617135 784
8.55999987572432 747
8.57999987527728 752
8.59999987483025 745
8.61999987438321 725
8.63999987393618 719
8.65999987348914 725
8.67999987304211 725
8.69999987259507 709
8.71999987214804 746
8.739999871701 732
8.75999987125397 766
8.77999987080693 742
8.7999998703599 739
8.81999986991286 707
8.83999986946583 696
8.85999986901879 753
8.87999986857176 695
8.89999986812472 755
8.91999986767769 737
8.93999986723065 729
8.95999986678362 773
8.97999986633658 749
8.99999986588955 707
9.01999986544251 751
9.03999986499548 751
9.05999986454844 710
9.07999986410141 715
9.09999986365438 758
9.11999986320734 738
9.13999986276031 789
9.15999986231327 748
9.17999986186624 727
9.1999998614192 702
9.21999986097217 753
9.23999986052513 790
9.2599998600781 749
9.27999985963106 795
9.29999985918403 732
9.31999985873699 766
9.33999985828996 751
9.35999985784292 750
9.37999985739589 717
9.39999985694885 729
9.41999985650182 740
9.43999985605478 788
9.45999985560775 777
9.47999985516071 738
9.49999985471368 748
9.51999985426664 758
9.53999985381961 716
9.55999985337257 740
9.57999985292554 763
9.5999998524785 721
9.61999985203147 776
9.63999985158443 696
9.6599998511374 735
9.67999985069037 705
9.69999985024333 732
9.7199998497963 729
9.73999984934926 705
9.75999984890223 707
9.77999984845519 715
9.79999984800816 722
9.81999984756112 762
9.83999984711409 721
9.85999984666705 742
9.87999984622002 729
9.89999984577298 768
9.91999984532595 775
9.93999984487891 742
9.95999984443188 693
9.97999984398484 727
9.99999984353781 711
10.0199998430908 722
10.0399998426437 734
10.0599998421967 751
10.0799998417497 686
10.0999998413026 702
10.1199998408556 711
10.1399998404086 744
10.1599998399615 739
10.1799998395145 708
10.1999998390675 715
10.2199998386204 714
10.2399998381734 732
10.2599998377264 728
10.2799998372793 660
10.2999998368323 743
10.3199998363853 731
10.3399998359382 721
10.3599998354912 719
10.3799998350441 753
10.3999998345971 727
10.4199998341501 739
10.439999833703 674
10.459999833256 728
10.479999832809 701
10.4999998323619 712
10.5199998319149 738
10.5399998314679 730
10.5599998310208 741
10.5799998305738 714
10.5999998301268 689
10.6199998296797 696
10.6399998292327 747
10.6599998287857 698
10.6799998283386 747
10.6999998278916 717
10.7199998274446 747
10.7399998269975 723
10.7599998265505 775
10.7799998261034 727
10.7999998256564 704
10.8199998252094 680
10.8399998247623 760
10.8599998243153 750
10.8799998238683 764
10.8999998234212 762
10.9199998229742 739
10.9399998225272 738
10.9599998220801 752
10.9799998216331 720
10.9999998211861 676
11.019999820739 775
11.039999820292 710
11.059999819845 745
11.0799998193979 726
11.0999998189509 723
11.1199998185039 724
11.1399998180568 738
11.1599998176098 748
11.1799998171628 735
11.1999998167157 731
11.2199998162687 691
11.2399998158216 688
11.2599998153746 714
11.2799998149276 769
11.2999998144805 735
11.3199998140335 748
11.3399998135865 751
11.3599998131394 707
11.3799998126924 744
11.3999998122454 723
11.4199998117983 700
11.4399998113513 740
11.4599998109043 734
11.4799998104572 728
11.4999998100102 756
11.5199998095632 763
11.5399998091161 768
11.5599998086691 762
11.5799998082221 730
11.599999807775 731
11.619999807328 725
11.639999806881 775
11.6599998064339 747
11.6799998059869 730
11.6999998055398 781
11.7199998050928 725
11.7399998046458 735
11.7599998041987 730
11.7799998037517 732
11.7999998033047 745
11.8199998028576 742
11.8399998024106 804
11.8599998019636 780
11.8799998015165 730
11.8999998010695 714
11.9199998006225 742
11.9399998001754 759
11.9599997997284 755
11.9799997992814 764
11.9999997988343 767
12.0199997983873 733
12.0399997979403 723
12.0599997974932 759
12.0799997970462 772
12.0999997965992 776
12.1199997961521 798
12.1399997957051 764
12.159999795258 790
12.179999794811 734
12.199999794364 760
12.2199997939169 744
12.2399997934699 735
12.2599997930229 740
12.2799997925758 711
12.2999997921288 731
12.3199997916818 779
12.3399997912347 758
12.3599997907877 736
12.3799997903407 757
12.3999997898936 728
12.4199997894466 766
12.4399997889996 788
12.4599997885525 818
12.4799997881055 763
12.4999997876585 770
12.5199997872114 753
12.5399997867644 818
12.5599997863173 755
12.5799997858703 758
12.5999997854233 829
12.6199997849762 775
12.6399997845292 830
12.6599997840822 813
12.6799997836351 791
12.6999997831881 767
12.7199997827411 820
12.739999782294 787
12.759999781847 763
12.7799997814 800
12.7999997809529 787
12.8199997805059 745
12.8399997800589 793
12.8599997796118 780
12.8799997791648 814
12.8999997787178 810
12.9199997782707 766
12.9399997778237 795
12.9599997773767 785
12.9799997769296 775
12.9999997764826 791
13.0199997760355 778
13.0399997755885 783
13.0599997751415 773
13.0799997746944 837
13.0999997742474 767
13.1199997738004 857
13.1399997733533 823
13.1599997729063 789
13.1799997724593 791
13.1999997720122 792
13.2199997715652 815
13.2399997711182 831
13.2599997706711 838
13.2799997702241 846
13.2999997697771 837
13.31999976933 832
13.339999768883 836
13.359999768436 840
13.3799997679889 815
13.3999997675419 796
13.4199997670949 861
13.4399997666478 834
13.4599997662008 864
13.4799997657537 856
13.4999997653067 788
13.5199997648597 824
13.5399997644126 843
13.5599997639656 808
13.5799997635186 866
13.5999997630715 833
13.6199997626245 880
13.6399997621775 809
13.6599997617304 820
13.6799997612834 832
13.6999997608364 823
13.7199997603893 906
13.7399997599423 846
13.7599997594953 850
13.7799997590482 871
13.7999997586012 880
13.8199997581542 841
13.8399997577071 843
13.8599997572601 870
13.879999756813 842
13.899999756366 864
13.919999755919 819
13.9399997554719 909
13.9599997550249 878
13.9799997545779 809
13.9999997541308 869
14.0199997536838 884
14.0399997532368 899
14.0599997527897 885
14.0799997523427 873
14.0999997518957 861
14.1199997514486 942
14.1399997510016 903
14.1599997505546 876
14.1799997501075 902
14.1999997496605 894
14.2199997492135 915
14.2399997487664 913
14.2599997483194 928
14.2799997478724 837
14.2999997474253 903
14.3199997469783 937
14.3399997465312 919
14.3599997460842 944
14.3799997456372 886
14.3999997451901 838
14.4199997447431 870
14.4399997442961 892
14.459999743849 872
14.479999743402 883
14.499999742955 933
14.5199997425079 906
14.5399997420609 975
14.5599997416139 947
14.5799997411668 924
14.5999997407198 990
14.6199997402728 952
14.6399997398257 940
14.6599997393787 965
14.6799997389317 975
14.6999997384846 976
14.7199997380376 946
14.7399997375906 935
14.7599997371435 979
14.7799997366965 944
14.7999997362494 940
14.8199997358024 978
14.8399997353554 995
14.8599997349083 970
14.8799997344613 961
14.8999997340143 935
14.9199997335672 968
14.9399997331202 942
14.9599997326732 956
14.9799997322261 941
14.9999997317791 936
15.0199997313321 945
15.039999730885 975
15.059999730438 913
15.079999729991 960
15.0999997295439 956
15.1199997290969 1025
15.1399997286499 1018
15.1599997282028 990
15.1799997277558 1016
15.1999997273088 977
15.2199997268617 992
15.2399997264147 986
15.2599997259676 1016
15.2799997255206 1001
15.2999997250736 1002
15.3199997246265 1015
15.3399997241795 1014
15.3599997237325 1043
15.3799997232854 954
15.3999997228384 1000
15.4199997223914 1032
15.4399997219443 1053
15.4599997214973 1079
15.4799997210503 1097
15.4999997206032 1057
15.5199997201562 1106
15.5399997197092 1075
15.5599997192621 1058
15.5799997188151 1066
15.5999997183681 1077
15.619999717921 1028
15.639999717474 1055
15.659999717027 1040
15.6799997165799 1078
15.6999997161329 1045
15.7199997156858 1059
15.7399997152388 1027
15.7599997147918 1105
15.7799997143447 1099
15.7999997138977 1117
15.8199997134507 1166
15.8399997130036 1111
15.8599997125566 1086
15.8799997121096 1086
15.8999997116625 1120
15.9199997112155 1046
15.9399997107685 1049
15.9599997103214 1129
15.9799997098744 1087
15.9999997094274 1122
16.0199997089803 1136
16.0399997085333 1142
16.0599997080863 1132
16.0799997076392 1103
16.0999997071922 1197
16.1199997067451 1137
16.1399997062981 1134
16.1599997058511 1137
16.179999705404 1121
16.199999704957 1094
16.21999970451 1110
16.2399997040629 1104
16.2599997036159 1150
16.2799997031689 1186
16.2999997027218 1173
16.3199997022748 1199
16.3399997018278 1191
16.3599997013807 1174
16.3799997009337 1174
16.3999997004867 1185
16.4199997000396 1245
16.4399996995926 1236
16.4599996991456 1186
16.4799996986985 1177
16.4999996982515 1174
16.5199996978045 1227
16.5399996973574 1264
16.5599996969104 1210
16.5799996964633 1218
16.5999996960163 1211
16.6199996955693 1183
16.6399996951222 1215
16.6599996946752 1275
16.6799996942282 1304
16.6999996937811 1261
16.7199996933341 1262
16.7399996928871 1245
16.75999969244 1326
16.779999691993 1321
16.799999691546 1364
16.8199996910989 1368
16.8399996906519 1354
16.8599996902049 1390
16.8799996897578 1458
16.8999996893108 1563
16.9199996888638 1587
16.9399996884167 1667
16.9599996879697 1786
16.9799996875226 1880
16.9999996870756 1864
17.0199996866286 1824
17.0399996861815 1771
17.0599996857345 1573
17.0799996852875 1532
17.0999996848404 1357
17.1199996843934 1367
17.1399996839464 1371
17.1599996834993 1350
17.1799996830523 1330
17.1999996826053 1404
17.2199996821582 1362
17.2399996817112 1369
17.2599996812642 1376
17.2799996808171 1352
17.2999996803701 1350
17.3199996799231 1336
17.339999679476 1318
17.359999679029 1373
17.379999678582 1386
17.3999996781349 1443
17.4199996776879 1378
17.4399996772408 1403
17.4599996767938 1346
17.4799996763468 1402
17.4999996758997 1384
17.5199996754527 1419
17.5399996750057 1389
17.5599996745586 1384
17.5799996741116 1417
17.5999996736646 1468
17.6199996732175 1380
17.6399996727705 1475
17.6599996723235 1446
17.6799996718764 1408
17.6999996714294 1481
17.7199996709824 1486
17.7399996705353 1462
17.7599996700883 1426
17.7799996696413 1494
17.7999996691942 1454
17.8199996687472 1383
17.8399996683002 1561
17.8599996678531 1506
17.8799996674061 1522
17.899999666959 1479
17.919999666512 1503
17.939999666065 1551
17.9599996656179 1452
17.9799996651709 1504
17.9999996647239 1532
18.0199996642768 1534
18.0399996638298 1542
18.0599996633828 1547
18.0799996629357 1597
18.0999996624887 1478
18.1199996620417 1571
18.1399996615946 1548
18.1599996611476 1512
18.1799996607006 1531
18.1999996602535 1550
18.2199996598065 1543
18.2399996593595 1517
18.2599996589124 1514
18.2799996584654 1612
18.2999996580184 1555
18.3199996575713 1507
18.3399996571243 1561
18.3599996566772 1688
18.3799996562302 1559
18.3999996557832 1647
18.4199996553361 1662
18.4399996548891 1591
18.4599996544421 1600
18.479999653995 1625
18.499999653548 1628
18.519999653101 1655
18.5399996526539 1673
18.5599996522069 1623
18.5799996517599 1641
18.5999996513128 1598
18.6199996508658 1659
18.6399996504188 1672
18.6599996499717 1644
18.6799996495247 1653
18.6999996490777 1675
18.7199996486306 1648
18.7399996481836 1676
18.7599996477366 1789
18.7799996472895 1672
18.7999996468425 1715
18.8199996463954 1706
18.8399996459484 1786
18.8599996455014 1645
18.8799996450543 1767
18.8999996446073 1729
18.9199996441603 1654
18.9399996437132 1668
18.9599996432662 1798
18.9799996428192 1744
18.9999996423721 1743
19.0199996419251 1758
19.0399996414781 1741
19.059999641031 1728
19.079999640584 1833
19.099999640137 1788
19.1199996396899 1779
19.1399996392429 1809
19.1599996387959 1788
19.1799996383488 1782
19.1999996379018 1796
19.2199996374547 1799
19.2399996370077 1764
19.2599996365607 1744
19.2799996361136 1871
19.2999996356666 1861
19.3199996352196 1754
19.3399996347725 1786
19.3599996343255 1838
19.3799996338785 1896
19.3999996334314 1819
19.4199996329844 1828
19.4399996325374 1822
19.4599996320903 1844
19.4799996316433 1915
19.4999996311963 1842
19.5199996307492 1878
19.5399996303022 1914
19.5599996298552 1807
19.5799996294081 1846
19.5999996289611 1877
19.6199996285141 1899
19.639999628067 2006
19.65999962762 1929
19.6799996271729 1949
19.6999996267259 1915
19.7199996262789 1915
19.7399996258318 1990
19.7599996253848 1973
19.7799996249378 1999
19.7999996244907 1980
19.8199996240437 1993
19.8399996235967 1929
19.8599996231496 1918
19.8799996227026 1919
19.8999996222556 1982
19.9199996218085 1938
19.9399996213615 1915
19.9599996209145 1878
19.9799996204674 1921
19.9999996200204 2018
