3 6615
3.01999999955297 6206
3.03999999910593 5745
3.0599999986589 5555
3.07999999821186 5171
3.09999999776483 4879
3.11999999731779 4487
3.13999999687076 4337
3.15999999642372 4000
3.17999999597669 3924
3.19999999552965 3792
3.21999999508262 3546
3.23999999463558 3277
3.25999999418855 2919
3.27999999374151 2784
3.29999999329448 2408
3.31999999284744 2184
3.33999999240041 2029
3.35999999195337 1861
3.37999999150634 1839
3.3999999910593 1682
3.41999999061227 1668
3.43999999016523 1709
3.4599999897182 1740
3.47999998927116 1578
3.49999998882413 1588
3.51999998837709 1578
3.53999998793006 1596
3.55999998748302 1671
3.57999998703599 1710
3.59999998658895 1719
3.61999998614192 1720
3.63999998569489 1799
3.65999998524785 1735
3.67999998480082 1828
3.69999998435378 1839
3.71999998390675 1776
3.73999998345971 1633
3.75999998301268 1572
3.77999998256564 1568
3.79999998211861 1462
3.81999998167157 1477
3.83999998122454 1401
3.8599999807775 1277
3.87999998033047 1311
3.89999997988343 1290
3.9199999794364 1244
3.93999997898936 1162
3.95999997854233 1183
3.97999997809529 1157
3.99999997764826 1177
4.01999997720122 1194
4.03999997675419 1152
4.05999997630715 1169
4.07999997586012 1122
4.09999997541308 1221
4.11999997496605 1133
4.13999997451901 1172
4.15999997407198 1061
4.17999997362494 1064
4.19999997317791 1111
4.21999997273087 1114
4.23999997228384 1097
4.25999997183681 1040
4.27999997138977 1078
4.29999997094274 1024
4.3199999704957 978
4.33999997004867 977
4.35999996960163 983
4.3799999691546 952
4.39999996870756 973
4.41999996826053 1003
4.43999996781349 943
4.45999996736646 996
4.47999996691942 977
4.49999996647239 936
4.51999996602535 907
4.53999996557832 980
4.55999996513128 971
4.57999996468425 948
4.59999996423721 980
4.61999996379018 912
4.63999996334314 875
4.65999996289611 925
4.67999996244907 945
4.69999996200204 939
4.719999961555 893
4.73999996110797 904
4.75999996066093 884
4.7799999602139 910
4.79999995976686 894
4.81999995931983 903
4.83999995887279 866
4.85999995842576 903
4.87999995797873 890
4.89999995753169 905
4.91999995708466 890
4.93999995663762 918
4.95999995619059 901
4.97999995574355 876
4.99999995529652 848
5.01999995484948 857
5.03999995440245 829
5.05999995395541 880
5.07999995350838 841
5.09999995306134 858
5.11999995261431 828
5.13999995216727 871
5.15999995172024 913
5.1799999512732 899
5.19999995082617 854
5.21999995037913 880
5.2399999499321 887
5.25999994948506 882
5.27999994903803 885
5.29999994859099 857
5.31999994814396 884
5.33999994769692 873
5.35999994724989 915
5.37999994680285 918
5.39999994635582 924
5.41999994590878 951
5.43999994546175 1023
5.45999994501471 912
5.47999994456768 985
5.49999994412065 941
5.51999994367361 932
5.53999994322658 889
5.55999994277954 922
5.57999994233251 899
5.59999994188547 865
5.61999994143844 876
5.6399999409914 824
5.65999994054437 837
5.67999994009733 849
5.6999999396503 834
5.71999993920326 856
5.73999993875623 776
5.75999993830919 839
5.77999993786216 871
5.79999993741512 831
5.81999993696809 827
5.83999993652105 786
5.85999993607402 790
5.87999993562698 790
5.89999993517995 816
5.91999993473291 787
5.93999993428588 852
5.95999993383884 795
5.97999993339181 763
5.99999993294477 804
6.01999993249774 846
6.0399999320507 820
6.05999993160367 789
6.07999993115663 726
6.0999999307096 770
6.11999993026257 754
6.13999992981553 766
6.1599999293685 689
6.17999992892146 760
6.19999992847443 760
6.21999992802739 749
6.23999992758036 761
6.25999992713332 746
6.27999992668629 758
6.29999992623925 762
6.31999992579222 779
6.33999992534518 732
6.35999992489815 782
6.37999992445111 733
6.39999992400408 732
6.41999992355704 710
6.43999992311001 743
6.45999992266297 707
6.47999992221594 724
6.4999999217689 732
6.51999992132187 730
6.53999992087483 730
6.5599999204278 761
6.57999991998076 776
6.59999991953373 712
6.61999991908669 779
6.63999991863966 743
6.65999991819262 707
6.67999991774559 708
6.69999991729855 740
6.71999991685152 702
6.73999991640449 720
6.75999991595745 760
6.77999991551042 687
6.79999991506338 729
6.81999991461635 751
6.83999991416931 712
6.85999991372228 738
6.87999991327524 685
6.89999991282821 736
6.91999991238117 680
6.93999991193414 710
6.9599999114871 678
6.97999991104007 694
6.99999991059303 684
7.019999910146 719
7.03999990969896 692
7.05999990925193 715
7.07999990880489 685
7.09999990835786 633
7.11999990791082 694
7.13999990746379 696
7.15999990701675 762
7.17999990656972 705
7.19999990612268 698
7.21999990567565 711
7.23999990522861 683
7.25999990478158 715
7.27999990433454 702
7.29999990388751 700
7.31999990344047 714
7.33999990299344 743
7.35999990254641 685
7.37999990209937 653
7.39999990165234 700
7.4199999012053 686
7.43999990075827 689
7.45999990031123 683
7.4799998998642 648
7.49999989941716 663
7.51999989897013 681
7.53999989852309 681
7.55999989807606 665
7.57999989762902 674
7.59999989718199 712
7.61999989673495 713
7.63999989628792 645
7.65999989584088 751
7.67999989539385 692
7.69999989494681 706
7.71999989449978 697
7.73999989405274 719
7.75999989360571 637
7.77999989315867 668
7.79999989271164 627
7.8199998922646 702
7.83999989181757 686
7.85999989137053 713
7.8799998909235 649
7.89999989047646 680
7.91999989002943 695
7.9399998895824 631
7.95999988913536 670
7.97999988868833 675
7.99999988824129 640
8.01999988779426 663
8.03999988734722 703
8.05999988690019 678
8.07999988645315 694
8.09999988600612 653
8.11999988555908 661
8.13999988511205 678
8.15999988466501 654
8.17999988421798 665
8.19999988377094 624
8.21999988332391 656
8.23999988287687 670
8.25999988242984 665
8.2799998819828 705
8.29999988153577 674
8.31999988108873 665
8.3399998806417 630
8.35999988019466 624
8.37999987974763 668
8.39999987930059 659
8.41999987885356 637
8.43999987840652 604
8.45999987795949 644
8.47999987751245 655
8.49999987706542 655
8.51999987661839 644
8.53999987617135 636
8.55999987572432 697
8.57999987527728 676
8.59999987483025 626
8.61999987438321 677
8.63999987393618 649
8.65999987348914 655
8.67999987304211 651
8.69999987259507 676
8.71999987214804 684
8.739999871701 637
8.75999987125397 673
8.77999987080693 640
8.7999998703599 666
8.81999986991286 584
8.83999986946583 710
8.85999986901879 671
8.87999986857176 677
8.89999986812472 700
8.91999986767769 670
8.93999986723065 665
8.95999986678362 647
8.97999986633658 641
8.99999986588955 677
9.01999986544251 616
9.03999986499548 699
9.05999986454844 661
9.07999986410141 680
9.09999986365438 636
9.11999986320734 686
9.13999986276031 687
9.15999986231327 730
9.17999986186624 716
9.1999998614192 686
9.21999986097217 682
9.23999986052513 687
9.2599998600781 647
9.27999985963106 674
9.29999985918403 653
9.31999985873699 684
9.33999985828996 679
9.35999985784292 720
9.37999985739589 684
9.39999985694885 720
9.41999985650182 785
9.43999985605478 743
9.45999985560775 679
9.47999985516071 707
9.49999985471368 719
9.51999985426664 739
9.53999985381961 716
9.55999985337257 701
9.57999985292554 695
9.5999998524785 641
9.61999985203147 687
9.63999985158443 713
9.6599998511374 655
9.67999985069037 667
9.69999985024333 667
9.7199998497963 667
9.73999984934926 658
9.75999984890223 672
9.77999984845519 639
9.79999984800816 648
9.81999984756112 660
9.83999984711409 643
9.85999984666705 698
9.87999984622002 668
9.89999984577298 661
9.91999984532595 651
9.93999984487891 599
9.95999984443188 638
9.97999984398484 649
9.99999984353781 655
10.0199998430908 618
10.0399998426437 654
10.0599998421967 667
10.0799998417497 633
10.0999998413026 636
10.1199998408556 604
10.1399998404086 626
10.1599998399615 675
10.1799998395145 636
10.1999998390675 645
10.2199998386204 649
10.2399998381734 622
10.2599998377264 631
10.2799998372793 615
10.2999998368323 634
10.3199998363853 655
10.3399998359382 645
10.3599998354912 640
10.3799998350441 641
10.3999998345971 643
10.4199998341501 601
10.439999833703 688
10.459999833256 646
10.479999832809 651
10.4999998323619 611
10.5199998319149 650
10.5399998314679 663
10.5599998310208 659
10.5799998305738 646
10.5999998301268 607
10.6199998296797 676
10.6399998292327 629
10.6599998287857 670
10.6799998283386 636
10.6999998278916 622
10.7199998274446 569
10.7399998269975 637
10.7599998265505 646
10.7799998261034 628
10.7999998256564 686
10.8199998252094 666
10.8399998247623 678
10.8599998243153 698
10.8799998238683 667
10.8999998234212 676
10.9199998229742 695
10.9399998225272 686
10.9599998220801 625
10.9799998216331 644
10.9999998211861 603
11.019999820739 661
11.039999820292 668
11.059999819845 640
11.0799998193979 610
11.0999998189509 612
11.1199998185039 601
11.1399998180568 606
11.1599998176098 639
11.1799998171628 658
11.1999998167157 618
11.2199998162687 664
11.2399998158216 635
11.2599998153746 614
11.2799998149276 632
11.2999998144805 605
11.3199998140335 634
11.3399998135865 646
11.3599998131394 650
11.3799998126924 625
11.3999998122454 604
11.4199998117983 606
11.4399998113513 627
11.4599998109043 645
11.4799998104572 621
11.4999998100102 629
11.5199998095632 643
11.5399998091161 612
11.5599998086691 640
11.5799998082221 643
11.599999807775 640
11.619999807328 639
11.639999806881 639
11.6599998064339 611
11.6799998059869 663
11.6999998055398 628
11.7199998050928 667
11.7399998046458 614
11.7599998041987 632
11.7799998037517 672
11.7999998033047 641
11.8199998028576 624
11.8399998024106 611
11.8599998019636 653
11.8799998015165 647
11.8999998010695 670
11.9199998006225 636
11.9399998001754 667
11.9599997997284 654
11.9799997992814 680
11.9999997988343 603
12.0199997983873 663
12.0399997979403 637
12.0599997974932 606
12.0799997970462 636
12.0999997965992 667
12.1199997961521 627
12.1399997957051 612
12.159999795258 606
12.179999794811 669
12.199999794364 627
12.2199997939169 676
12.2399997934699 656
12.2599997930229 684
12.2799997925758 608
12.2999997921288 674
12.3199997916818 629
12.3399997912347 678
12.3599997907877 657
12.3799997903407 676
12.3999997898936 627
12.4199997894466 631
12.4399997889996 664
12.4599997885525 616
12.4799997881055 605
12.4999997876585 665
12.5199997872114 640
12.5399997867644 656
12.5599997863173 655
12.5799997858703 708
12.5999997854233 662
12.6199997849762 638
12.6399997845292 603
12.6599997840822 679
12.6799997836351 658
12.6999997831881 655
12.7199997827411 670
12.739999782294 671
12.759999781847 657
12.7799997814 663
12.7999997809529 699
12.8199997805059 693
12.8399997800589 699
12.8599997796118 694
12.8799997791648 663
12.8999997787178 669
12.9199997782707 654
12.9399997778237 661
12.9599997773767 658
12.9799997769296 665
12.9999997764826 657
13.0199997760355 692
13.0399997755885 705
13.0599997751415 682
13.0799997746944 677
13.0999997742474 710
13.1199997738004 690
13.1399997733533 670
13.1599997729063 668
13.1799997724593 711
13.1999997720122 728
13.2199997715652 692
13.2399997711182 702
13.2599997706711 642
13.2799997702241 698
13.2999997697771 659
13.31999976933 717
13.339999768883 705
13.359999768436 679
13.3799997679889 681
13.3999997675419 675
13.4199997670949 695
13.4399997666478 683
13.4599997662008 667
13.4799997657537 678
13.4999997653067 675
13.5199997648597 700
13.5399997644126 704
13.5599997639656 691
13.5799997635186 729
13.5999997630715 686
13.6199997626245 694
13.6399997621775 725
13.6599997617304 697
13.6799997612834 701
13.6999997608364 655
13.7199997603893 770
13.7399997599423 743
13.7599997594953 712
13.7799997590482 771
13.7999997586012 713
13.8199997581542 705
13.8399997577071 715
13.8599997572601 751
13.879999756813 758
13.899999756366 712
13.919999755919 709
13.9399997554719 754
13.9599997550249 757
13.9799997545779 748
13.9999997541308 736
14.0199997536838 728
14.0399997532368 794
14.0599997527897 784
14.0799997523427 735
14.0999997518957 726
14.1199997514486 710
14.1399997510016 792
14.1599997505546 710
14.1799997501075 677
14.1999997496605 737
14.2199997492135 754
14.2399997487664 771
14.2599997483194 725
14.2799997478724 731
14.2999997474253 727
14.3199997469783 755
14.3399997465312 739
14.3599997460842 748
14.3799997456372 792
14.3999997451901 785
14.4199997447431 778
14.4399997442961 759
14.459999743849 768
14.479999743402 801
14.499999742955 749
14.5199997425079 745
14.5399997420609 736
14.5599997416139 812
14.5799997411668 800
14.5999997407198 753
14.6199997402728 750
14.6399997398257 792
14.6599997393787 763
14.6799997389317 754
14.6999997384846 840
14.7199997380376 768
14.7399997375906 808
14.7599997371435 767
14.7799997366965 810
14.7999997362494 800
14.8199997358024 806
14.8399997353554 790
14.8599997349083 833
14.8799997344613 748
14.8999997340143 806
14.9199997335672 784
14.9399997331202 809
14.9599997326732 807
14.9799997322261 767
14.9999997317791 797
15.0199997313321 817
15.039999730885 744
15.059999730438 783
15.079999729991 809
15.0999997295439 848
15.1199997290969 774
15.1399997286499 801
15.1599997282028 828
15.1799997277558 829
15.1999997273088 828
15.2199997268617 850
15.2399997264147 792
15.2599997259676 852
15.2799997255206 837
15.2999997250736 840
15.3199997246265 790
15.3399997241795 819
15.3599997237325 813
15.3799997232854 820
15.3999997228384 878
15.4199997223914 883
15.4399997219443 855
15.4599997214973 868
15.4799997210503 865
15.4999997206032 863
15.5199997201562 852
15.5399997197092 820
15.5599997192621 866
15.5799997188151 854
15.5999997183681 883
15.619999717921 844
15.639999717474 840
15.659999717027 921
15.6799997165799 905
15.6999997161329 894
15.7199997156858 884
15.7399997152388 880
15.7599997147918 867
15.7799997143447 866
15.7999997138977 875
15.8199997134507 863
15.8399997130036 884
15.8599997125566 890
15.8799997121096 922
15.8999997116625 921
15.9199997112155 896
15.9399997107685 875
15.9599997103214 895
15.9799997098744 897
15.9999997094274 867
16.0199997089803 936
16.0399997085333 891
16.0599997080863 926
16.0799997076392 915
16.0999997071922 895
16.1199997067451 928
16.1399997062981 913
16.1599997058511 952
16.179999705404 914
16.199999704957 892
16.21999970451 935
16.2399997040629 907
16.2599997036159 871
16.2799997031689 962
16.2999997027218 936
16.3199997022748 926
16.3399997018278 918
16.3599997013807 903
16.3799997009337 950
16.3999997004867 959
16.4199997000396 924
16.4399996995926 926
16.4599996991456 923
16.4799996986985 1017
16.4999996982515 997
16.5199996978045 938
16.5399996973574 969
16.5599996969104 996
16.5799996964633 996
16.5999996960163 1023
16.6199996955693 983
16.6399996951222 967
16.6599996946752 983
16.6799996942282 1009
16.6999996937811 1017
16.7199996933341 1025
16.7399996928871 1030
16.75999969244 976
16.779999691993 1062
16.799999691546 1071
16.8199996910989 1080
16.8399996906519 1068
16.8599996902049 1080
16.8799996897578 1096
16.8999996893108 1206
16.9199996888638 1245
16.9399996884167 1259
16.9599996879697 1378
16.9799996875226 1376
16.9999996870756 1387
17.0199996866286 1350
17.0399996861815 1369
17.0599996857345 1196
17.0799996852875 1224
17.0999996848404 1165
17.1199996843934 1044
17.1399996839464 1046
17.1599996834993 1122
17.1799996830523 1070
17.1999996826053 1104
17.2199996821582 1120
17.2399996817112 1089
17.2599996812642 1052
17.2799996808171 1078
17.2999996803701 1027
17.3199996799231 1080
17.339999679476 1104
17.359999679029 1070
17.379999678582 1101
17.3999996781349 1156
17.4199996776879 1086
17.4399996772408 1078
17.4599996767938 1090
17.4799996763468 1030
17.4999996758997 1127
17.5199996754527 1113
17.5399996750057 1086
17.5599996745586 1119
17.5799996741116 1074
17.5999996736646 1147
17.6199996732175 1120
17.6399996727705 1137
17.6599996723235 1184
17.6799996718764 1145
17.6999996714294 1184
17.7199996709824 1151
17.7399996705353 1149
17.7599996700883 1177
17.7799996696413 1215
17.7999996691942 1174
17.8199996687472 1161
17.8399996683002 1183
17.8599996678531 1173
17.8799996674061 1114
17.899999666959 1193
17.919999666512 1110
17.939999666065 1125
17.9599996656179 1173
17.9799996651709 1132
17.9999996647239 1220
18.0199996642768 1175
18.0399996638298 1120
18.0599996633828 1129
18.0799996629357 1216
18.0999996624887 1197
18.1199996620417 1216
18.1399996615946 1207
18.1599996611476 1231
18.1799996607006 1196
18.1999996602535 1219
18.2199996598065 1180
18.2399996593595 1193
18.2599996589124 1234
18.2799996584654 1263
18.2999996580184 1221
18.3199996575713 1266
18.3399996571243 1206
18.3599996566772 1274
18.3799996562302 1215
18.3999996557832 1274
18.4199996553361 1266
18.4399996548891 1234
18.4599996544421 1263
18.479999653995 1232
18.499999653548 1323
18.519999653101 1322
18.5399996526539 1322
18.5599996522069 1258
18.5799996517599 1267
18.5999996513128 1318
18.6199996508658 1285
18.6399996504188 1376
18.6599996499717 1295
18.6799996495247 1316
18.6999996490777 1314
18.7199996486306 1400
18.7399996481836 1342
18.7599996477366 1327
18.7799996472895 1342
18.7999996468425 1386
18.8199996463954 1298
18.8399996459484 1339
18.8599996455014 1335
18.8799996450543 1370
18.8999996446073 1361
18.9199996441603 1404
18.9399996437132 1349
18.9599996432662 1327
18.9799996428192 1356
18.9999996423721 1343
19.0199996419251 1391
19.0399996414781 1380
19.059999641031 1406
19.079999640584 1435
19.099999640137 1431
19.1199996396899 1381
19.1399996392429 1362
19.1599996387959 1346
19.1799996383488 1370
19.1999996379018 1424
19.2199996374547 1382
19.2399996370077 1369
19.2599996365607 1429
19.2799996361136 1469
19.2999996356666 1378
19.3199996352196 1432
19.3399996347725 1440
19.3599996343255 1435
19.3799996338785 1461
19.3999996334314 1489
19.4199996329844 1476
19.4399996325374 1481
19.4599996320903 1415
19.4799996316433 1419
19.4999996311963 1480
19.5199996307492 1449
19.5399996303022 1546
19.5599996298552 1445
19.5799996294081 1499
19.5999996289611 1473
19.6199996285141 1394
19.639999628067 1477
19.65999962762 1507
19.6799996271729 1469
19.6999996267259 1478
19.7199996262789 1515
19.7399996258318 1466
19.7599996253848 1487
19.7799996249378 1543
19.7999996244907 1488
19.8199996240437 1519
19.8399996235967 1528
19.8599996231496 1531
19.8799996227026 1520
19.8999996222556 1521
19.9199996218085 1548
19.9399996213615 1521
19.9599996209145 1476
19.9799996204674 1452
19.9999996200204 1534
