3 5822
3.01999999955297 5625
3.03999999910593 5114
3.0599999986589 4630
3.07999999821186 4409
3.09999999776483 4152
3.11999999731779 3819
3.13999999687076 3692
3.15999999642372 3479
3.17999999597669 3050
3.19999999552965 2829
3.21999999508262 2706
3.23999999463558 2520
3.25999999418855 2387
3.27999999374151 2217
3.29999999329448 2114
3.31999999284744 1937
3.33999999240041 1866
3.35999999195337 1809
3.37999999150634 1780
3.3999999910593 1834
3.41999999061227 1737
3.43999999016523 1715
3.4599999897182 1736
3.47999998927116 1639
3.49999998882413 1548
3.51999998837709 1610
3.53999998793006 1576
3.55999998748302 1536
3.57999998703599 1523
3.59999998658895 1474
3.61999998614192 1531
3.63999998569489 1507
3.65999998524785 1415
3.67999998480082 1404
3.69999998435378 1433
3.71999998390675 1443
3.73999998345971 1415
3.75999998301268 1341
3.77999998256564 1397
3.79999998211861 1237
3.81999998167157 1306
3.83999998122454 1266
3.8599999807775 1279
3.87999998033047 1268
3.89999997988343 1302
3.9199999794364 1232
3.93999997898936 1256
3.95999997854233 1230
3.97999997809529 1222
3.99999997764826 1245
4.01999997720122 1198
4.03999997675419 1187
4.05999997630715 1151
4.07999997586012 1161
4.09999997541308 1155
4.11999997496605 1068
4.13999997451901 1118
4.15999997407198 1049
4.17999997362494 1145
4.19999997317791 1097
4.21999997273087 1108
4.23999997228384 1061
4.25999997183681 1028
4.27999997138977 1022
4.29999997094274 1004
4.3199999704957 1025
4.33999997004867 995
4.35999996960163 958
4.3799999691546 1011
4.39999996870756 1010
4.41999996826053 957
4.43999996781349 1008
4.45999996736646 955
4.47999996691942 913
4.49999996647239 947
4.51999996602535 936
4.53999996557832 938
4.55999996513128 937
4.57999996468425 901
4.59999996423721 891
4.61999996379018 889
4.63999996334314 844
4.65999996289611 849
4.67999996244907 873
4.69999996200204 912
4.719999961555 879
4.73999996110797 857
4.75999996066093 831
4.7799999602139 830
4.79999995976686 859
4.81999995931983 835
4.83999995887279 848
4.85999995842576 896
4.87999995797873 773
4.89999995753169 804
4.91999995708466 838
4.93999995663762 811
4.95999995619059 808
4.97999995574355 791
4.99999995529652 876
5.01999995484948 796
5.03999995440245 816
5.05999995395541 819
5.07999995350838 801
5.09999995306134 833
5.11999995261431 809
5.13999995216727 809
5.15999995172024 814
5.1799999512732 822
5.19999995082617 763
5.21999995037913 784
5.2399999499321 859
5.25999994948506 813
5.27999994903803 790
5.29999994859099 802
5.31999994814396 832
5.33999994769692 830
5.35999994724989 843
5.37999994680285 830
5.39999994635582 841
5.41999994590878 835
5.43999994546175 866
5.45999994501471 795
5.47999994456768 843
5.49999994412065 801
5.51999994367361 847
5.53999994322658 813
5.55999994277954 807
5.57999994233251 779
5.59999994188547 746
5.61999994143844 771
5.6399999409914 739
5.65999994054437 744
5.67999994009733 767
5.6999999396503 699
5.71999993920326 774
5.73999993875623 712
5.75999993830919 686
5.77999993786216 693
5.79999993741512 672
5.81999993696809 719
5.83999993652105 679
5.85999993607402 671
5.87999993562698 636
5.89999993517995 669
5.91999993473291 650
5.93999993428588 696
5.95999993383884 646
5.97999993339181 665
5.99999993294477 693
6.01999993249774 687
6.0399999320507 664
6.05999993160367 665
6.07999993115663 598
6.0999999307096 645
6.11999993026257 611
6.13999992981553 702
6.1599999293685 632
6.17999992892146 597
6.19999992847443 614
6.21999992802739 577
6.23999992758036 645
6.25999992713332 635
6.27999992668629 647
6.29999992623925 613
6.31999992579222 591
6.33999992534518 624
6.35999992489815 619
6.37999992445111 609
6.39999992400408 661
6.41999992355704 631
6.43999992311001 612
6.45999992266297 623
6.47999992221594 605
6.4999999217689 610
6.51999992132187 643
6.53999992087483 616
6.5599999204278 604
6.57999991998076 617
6.59999991953373 622
6.61999991908669 647
6.63999991863966 612
6.65999991819262 619
6.67999991774559 606
6.69999991729855 563
6.71999991685152 626
6.73999991640449 584
6.75999991595745 627
6.77999991551042 595
6.79999991506338 563
6.81999991461635 584
6.83999991416931 577
6.85999991372228 604
6.87999991327524 626
6.89999991282821 628
6.91999991238117 600
6.93999991193414 611
6.9599999114871 547
6.97999991104007 556
6.99999991059303 604
7.019999910146 598
7.03999990969896 604
7.05999990925193 594
7.07999990880489 592
7.09999990835786 566
7.11999990791082 561
7.13999990746379 576
7.15999990701675 571
7.17999990656972 561
7.19999990612268 576
7.21999990567565 549
7.23999990522861 554
7.25999990478158 530
7.27999990433454 571
7.29999990388751 633
7.31999990344047 560
7.33999990299344 572
7.35999990254641 596
7.37999990209937 559
7.39999990165234 577
7.4199999012053 569
7.43999990075827 542
7.45999990031123 546
7.4799998998642 610
7.49999989941716 555
7.51999989897013 569
7.53999989852309 531
7.55999989807606 531
7.57999989762902 519
7.59999989718199 548
7.61999989673495 573
7.63999989628792 586
7.65999989584088 557
7.67999989539385 539
7.69999989494681 549
7.71999989449978 591
7.73999989405274 583
7.75999989360571 578
7.77999989315867 568
7.79999989271164 554
7.8199998922646 568
7.83999989181757 518
7.85999989137053 548
7.8799998909235 564
7.89999989047646 550
7.91999989002943 546
7.9399998895824 540
7.95999988913536 530
7.97999988868833 524
7.99999988824129 519
8.01999988779426 553
8.03999988734722 535
8.05999988690019 505
8.07999988645315 542
8.09999988600612 551
8.11999988555908 502
8.13999988511205 552
8.15999988466501 491
8.17999988421798 472
8.19999988377094 515
8.21999988332391 559
8.23999988287687 545
8.25999988242984 554
8.2799998819828 518
8.29999988153577 539
8.31999988108873 574
8.3399998806417 559
8.35999988019466 538
8.37999987974763 540
8.39999987930059 541
8.41999987885356 558
8.43999987840652 537
8.45999987795949 555
8.47999987751245 499
8.49999987706542 544
8.51999987661839 525
8.53999987617135 536
8.55999987572432 510
8.57999987527728 538
8.59999987483025 524
8.61999987438321 489
8.63999987393618 511
8.65999987348914 523
8.67999987304211 522
8.69999987259507 521
8.71999987214804 536
8.739999871701 510
8.75999987125397 552
8.77999987080693 521
8.7999998703599 524
8.81999986991286 517
8.83999986946583 500
8.85999986901879 498
8.87999986857176 524
8.89999986812472 513
8.91999986767769 474
8.93999986723065 504
8.95999986678362 499
8.97999986633658 519
8.99999986588955 494
9.01999986544251 522
9.03999986499548 524
9.05999986454844 506
9.07999986410141 534
9.09999986365438 518
9.11999986320734 543
9.13999986276031 509
9.15999986231327 510
9.17999986186624 568
9.1999998614192 549
9.21999986097217 538
9.23999986052513 523
9.2599998600781 547
9.27999985963106 536
9.29999985918403 530
9.31999985873699 561
9.33999985828996 597
9.35999985784292 605
9.37999985739589 579
9.39999985694885 592
9.41999985650182 554
9.43999985605478 577
9.45999985560775 553
9.47999985516071 595
9.49999985471368 571
9.51999985426664 547
9.53999985381961 565
9.55999985337257 536
9.57999985292554 553
9.5999998524785 552
9.61999985203147 605
9.63999985158443 492
9.6599998511374 529
9.67999985069037 544
9.69999985024333 549
9.7199998497963 528
9.73999984934926 535
9.75999984890223 544
9.77999984845519 499
9.79999984800816 486
9.81999984756112 495
9.83999984711409 495
9.85999984666705 524
9.87999984622002 508
9.89999984577298 471
9.91999984532595 504
9.93999984487891 490
9.95999984443188 522
9.97999984398484 500
9.99999984353781 500
10.0199998430908 499
10.0399998426437 520
10.0599998421967 478
10.0799998417497 504
10.0999998413026 525
10.1199998408556 514
10.1399998404086 495
10.1599998399615 479
10.1799998395145 543
10.1999998390675 483
10.2199998386204 487
10.2399998381734 506
10.2599998377264 506
10.2799998372793 482
10.2999998368323 501
10.3199998363853 490
10.3399998359382 526
10.3599998354912 494
10.3799998350441 517
10.3999998345971 525
10.4199998341501 499
10.439999833703 484
10.459999833256 511
10.479999832809 496
10.4999998323619 495
10.5199998319149 503
10.5399998314679 545
10.5599998310208 524
10.5799998305738 519
10.5999998301268 486
10.6199998296797 541
10.6399998292327 452
10.6599998287857 503
10.6799998283386 461
10.6999998278916 508
10.7199998274446 525
10.7399998269975 534
10.7599998265505 474
10.7799998261034 501
10.7999998256564 507
10.8199998252094 541
10.8399998247623 490
10.8599998243153 540
10.8799998238683 505
10.8999998234212 546
10.9199998229742 518
10.9399998225272 522
10.9599998220801 494
10.9799998216331 513
10.9999998211861 533
11.019999820739 484
11.039999820292 477
11.059999819845 478
11.0799998193979 502
11.0999998189509 511
11.1199998185039 539
11.1399998180568 511
11.1599998176098 500
11.1799998171628 499
11.1999998167157 501
11.2199998162687 496
11.2399998158216 490
11.2599998153746 509
11.2799998149276 511
11.2999998144805 530
11.3199998140335 501
11.3399998135865 486
11.3599998131394 515
11.3799998126924 544
11.3999998122454 518
11.4199998117983 535
11.4399998113513 478
11.4599998109043 517
11.4799998104572 493
11.4999998100102 477
11.5199998095632 491
11.5399998091161 496
11.5599998086691 469
11.5799998082221 498
11.599999807775 468
11.619999807328 448
11.639999806881 532
11.6599998064339 496
11.6799998059869 470
11.6999998055398 556
11.7199998050928 453
11.7399998046458 510
11.7599998041987 504
11.7799998037517 509
11.7999998033047 506
11.8199998028576 551
11.8399998024106 517
11.8599998019636 487
11.8799998015165 505
11.8999998010695 516
11.9199998006225 501
11.9399998001754 506
11.9599997997284 518
11.9799997992814 466
11.9999997988343 468
12.0199997983873 501
12.0399997979403 496
12.0599997974932 531
12.0799997970462 568
12.0999997965992 525
12.1199997961521 521
12.1399997957051 531
12.159999795258 499
12.179999794811 503
12.199999794364 530
12.2199997939169 501
12.2399997934699 530
12.2599997930229 517
12.2799997925758 529
12.2999997921288 511
12.3199997916818 493
12.3399997912347 466
12.3599997907877 515
12.3799997903407 471
12.3999997898936 525
12.4199997894466 503
12.4399997889996 462
12.4599997885525 510
12.4799997881055 559
12.4999997876585 532
12.5199997872114 509
12.5399997867644 520
12.5599997863173 530
12.5799997858703 482
12.5999997854233 500
12.6199997849762 498
12.6399997845292 527
12.6599997840822 500
12.6799997836351 505
12.6999997831881 488
12.7199997827411 579
12.739999782294 528
12.759999781847 518
12.7799997814 546
12.7999997809529 532
12.8199997805059 536
12.8399997800589 505
12.8599997796118 520
12.8799997791648 566
12.8999997787178 515
12.9199997782707 523
12.9399997778237 548
12.9599997773767 518
12.9799997769296 532
12.9999997764826 542
13.0199997760355 553
13.0399997755885 515
13.0599997751415 533
13.0799997746944 531
13.0999997742474 511
13.1199997738004 548
13.1399997733533 535
13.1599997729063 507
13.1799997724593 563
13.1999997720122 517
13.2199997715652 507
13.2399997711182 522
13.2599997706711 515
13.2799997702241 517
13.2999997697771 537
13.31999976933 545
13.339999768883 574
13.359999768436 550
13.3799997679889 537
13.3999997675419 579
13.4199997670949 531
13.4399997666478 536
13.4599997662008 550
13.4799997657537 543
13.4999997653067 564
13.5199997648597 535
13.5399997644126 594
13.5599997639656 532
13.5799997635186 545
13.5999997630715 595
13.6199997626245 543
13.6399997621775 508
13.6599997617304 534
13.6799997612834 518
13.6999997608364 504
13.7199997603893 562
13.7399997599423 580
13.7599997594953 546
13.7799997590482 560
13.7999997586012 577
13.8199997581542 595
13.8399997577071 545
13.8599997572601 500
13.879999756813 563
13.899999756366 543
13.919999755919 560
13.9399997554719 554
13.9599997550249 528
13.9799997545779 523
13.9999997541308 527
14.0199997536838 554
14.0399997532368 560
14.0599997527897 584
14.0799997523427 554
14.0999997518957 555
14.1199997514486 568
14.1399997510016 533
14.1599997505546 579
14.1799997501075 588
14.1999997496605 636
14.2199997492135 572
14.2399997487664 588
14.2599997483194 575
14.2799997478724 582
14.2999997474253 594
14.3199997469783 589
14.3399997465312 603
14.3599997460842 609
14.3799997456372 557
14.3999997451901 550
14.4199997447431 612
14.4399997442961 587
14.459999743849 604
14.479999743402 587
14.499999742955 596
14.5199997425079 580
14.5399997420609 593
14.5599997416139 596
14.5799997411668 580
14.5999997407198 649
14.6199997402728 634
14.6399997398257 563
14.6599997393787 603
14.6799997389317 602
14.6999997384846 613
14.7199997380376 598
14.7399997375906 617
14.7599997371435 633
14.7799997366965 624
14.7999997362494 618
14.8199997358024 643
14.8399997353554 628
14.8599997349083 619
14.8799997344613 636
14.8999997340143 600
14.9199997335672 610
14.9399997331202 619
14.9599997326732 598
14.9799997322261 631
14.9999997317791 638
15.0199997313321 582
15.039999730885 575
15.059999730438 617
15.079999729991 617
15.0999997295439 603
15.1199997290969 634
15.1399997286499 595
15.1599997282028 620
15.1799997277558 650
15.1999997273088 562
15.2199997268617 608
15.2399997264147 629
15.2599997259676 608
15.2799997255206 634
15.2999997250736 607
15.3199997246265 597
15.3399997241795 677
15.3599997237325 624
15.3799997232854 648
15.3999997228384 659
15.4199997223914 694
15.4399997219443 638
15.4599997214973 643
15.4799997210503 666
15.4999997206032 618
15.5199997201562 646
15.5399997197092 635
15.5599997192621 662
15.5799997188151 674
15.5999997183681 656
15.619999717921 630
15.639999717474 679
15.659999717027 641
15.6799997165799 586
15.6999997161329 698
15.7199997156858 671
15.7399997152388 674
15.7599997147918 709
15.7799997143447 706
15.7999997138977 681
15.8199997134507 641
15.8399997130036 616
15.8599997125566 639
15.8799997121096 634
15.8999997116625 659
15.9199997112155 687
15.9399997107685 675
15.9599997103214 666
15.9799997098744 676
15.9999997094274 659
16.0199997089803 707
16.0399997085333 660
16.0599997080863 658
16.0799997076392 677
16.0999997071922 680
16.1199997067451 652
16.1399997062981 718
16.1599997058511 724
16.179999705404 705
16.199999704957 723
16.21999970451 707
16.2399997040629 710
16.2599997036159 702
16.2799997031689 731
16.2999997027218 710
16.3199997022748 758
16.3399997018278 687
16.3599997013807 691
16.3799997009337 717
16.3999997004867 695
16.4199997000396 693
16.4399996995926 724
16.4599996991456 735
16.4799996986985 737
16.4999996982515 712
16.5199996978045 744
16.5399996973574 694
16.5599996969104 796
16.5799996964633 739
16.5999996960163 734
16.6199996955693 741
16.6399996951222 808
16.6599996946752 766
16.6799996942282 755
16.6999996937811 723
16.7199996933341 859
16.7399996928871 811
16.75999969244 819
16.779999691993 812
16.799999691546 826
16.8199996910989 850
16.8399996906519 878
16.8599996902049 868
16.8799996897578 954
16.8999996893108 1028
16.9199996888638 1055
16.9399996884167 1165
16.9599996879697 1268
16.9799996875226 1358
16.9999996870756 1352
17.0199996866286 1464
17.0399996861815 1426
17.0599996857345 1299
17.0799996852875 1150
17.0999996848404 1069
17.1199996843934 979
17.1399996839464 957
17.1599996834993 861
17.1799996830523 831
17.1999996826053 884
17.2199996821582 880
17.2399996817112 792
17.2599996812642 837
17.2799996808171 793
17.2999996803701 833
17.3199996799231 772
17.339999679476 866
17.359999679029 820
17.379999678582 833
17.3999996781349 829
17.4199996776879 798
17.4399996772408 796
17.4599996767938 858
17.4799996763468 831
17.4999996758997 803
17.5199996754527 889
17.5399996750057 841
17.5599996745586 894
17.5799996741116 837
17.5999996736646 831
17.6199996732175 819
17.6399996727705 856
17.6599996723235 831
17.6799996718764 878
17.6999996714294 843
17.7199996709824 865
17.7399996705353 885
17.7599996700883 842
17.7799996696413 873
17.7999996691942 878
17.8199996687472 872
17.8399996683002 856
17.8599996678531 847
17.8799996674061 862
17.899999666959 884
17.919999666512 848
17.939999666065 877
17.9599996656179 938
17.9799996651709 914
17.9999996647239 912
18.0199996642768 864
18.0399996638298 915
18.0599996633828 927
18.0799996629357 954
18.0999996624887 882
18.1199996620417 935
18.1399996615946 927
18.1599996611476 934
18.1799996607006 928
18.1999996602535 893
18.2199996598065 919
18.2399996593595 897
18.2599996589124 893
18.2799996584654 952
18.2999996580184 942
18.3199996575713 921
18.3399996571243 881
18.3599996566772 913
18.3799996562302 905
18.3999996557832 982
18.4199996553361 940
18.4399996548891 913
18.4599996544421 897
18.479999653995 974
18.499999653548 980
18.519999653101 960
18.5399996526539 981
18.5599996522069 955
18.5799996517599 923
18.5999996513128 933
18.6199996508658 994
18.6399996504188 969
18.6599996499717 992
18.6799996495247 949
18.6999996490777 991
18.7199996486306 982
18.7399996481836 1012
18.7599996477366 985
18.7799996472895 1012
18.7999996468425 972
18.8199996463954 985
18.8399996459484 1014
18.8599996455014 1014
18.8799996450543 1029
18.8999996446073 970
18.9199996441603 1003
18.9399996437132 1014
18.9599996432662 1052
18.9799996428192 1011
18.9999996423721 1050
19.0199996419251 1050
19.0399996414781 1032
19.059999641031 1010
19.079999640584 1025
19.099999640137 971
19.1199996396899 1036
19.1399996392429 1043
19.1599996387959 1068
19.1799996383488 1090
19.1999996379018 1027
19.2199996374547 974
19.2399996370077 1034
19.2599996365607 1043
19.2799996361136 1016
19.2999996356666 1051
19.3199996352196 1022
19.3399996347725 1059
19.3599996343255 1009
19.3799996338785 1061
19.3999996334314 1062
19.4199996329844 1050
19.4399996325374 1060
19.4599996320903 1043
19.4799996316433 1097
19.4999996311963 1068
19.5199996307492 1078
19.5399996303022 1087
19.5599996298552 1070
19.5799996294081 1050
19.5999996289611 1132
19.6199996285141 1105
19.639999628067 1080
19.65999962762 1062
19.6799996271729 1110
19.6999996267259 1082
19.7199996262789 1113
19.7399996258318 1129
19.7599996253848 1101
19.7799996249378 1120
19.7999996244907 1125
19.8199996240437 1113
19.8399996235967 1124
19.8599996231496 1099
19.8799996227026 1158
19.8999996222556 1107
19.9199996218085 1092
19.9399996213615 1123
19.9599996209145 1196
19.9799996204674 1091
19.9999996200204 1176
