3 5675
3.01999999955297 5343
3.03999999910593 4958
3.0599999986589 4576
3.07999999821186 4308
3.09999999776483 4117
3.11999999731779 3797
3.13999999687076 3458
3.15999999642372 3357
3.17999999597669 2934
3.19999999552965 2850
3.21999999508262 2667
3.23999999463558 2511
3.25999999418855 2331
3.27999999374151 2125
3.29999999329448 2058
3.31999999284744 1905
3.33999999240041 1709
3.35999999195337 1756
3.37999999150634 1724
3.3999999910593 1681
3.41999999061227 1584
3.43999999016523 1671
3.4599999897182 1561
3.47999998927116 1592
3.49999998882413 1561
3.51999998837709 1545
3.53999998793006 1572
3.55999998748302 1531
3.57999998703599 1495
3.59999998658895 1524
3.61999998614192 1497
3.63999998569489 1513
3.65999998524785 1482
3.67999998480082 1519
3.69999998435378 1490
3.71999998390675 1418
3.73999998345971 1392
3.75999998301268 1432
3.77999998256564 1431
3.79999998211861 1359
3.81999998167157 1324
3.83999998122454 1258
3.8599999807775 1336
3.87999998033047 1213
3.89999997988343 1323
3.9199999794364 1305
3.93999997898936 1325
3.95999997854233 1264
3.97999997809529 1214
3.99999997764826 1246
4.01999997720122 1163
4.03999997675419 1197
4.05999997630715 1173
4.07999997586012 1266
4.09999997541308 1174
4.11999997496605 1211
4.13999997451901 1251
4.15999997407198 1189
4.17999997362494 1119
4.19999997317791 1132
4.21999997273087 1161
4.23999997228384 1155
4.25999997183681 1130
4.27999997138977 1114
4.29999997094274 1067
4.3199999704957 1164
4.33999997004867 1041
4.35999996960163 1081
4.3799999691546 1082
4.39999996870756 1060
4.41999996826053 1067
4.43999996781349 1053
4.45999996736646 1079
4.47999996691942 1055
4.49999996647239 1024
4.51999996602535 1019
4.53999996557832 996
4.55999996513128 1003
4.57999996468425 1044
4.59999996423721 982
4.61999996379018 983
4.63999996334314 995
4.65999996289611 964
4.67999996244907 955
4.69999996200204 1012
4.719999961555 1006
4.73999996110797 937
4.75999996066093 980
4.7799999602139 1005
4.79999995976686 953
4.81999995931983 967
4.83999995887279 964
4.85999995842576 940
4.87999995797873 891
4.89999995753169 931
4.91999995708466 960
4.93999995663762 957
4.95999995619059 956
4.97999995574355 942
4.99999995529652 1019
5.01999995484948 979
5.03999995440245 889
5.05999995395541 948
5.07999995350838 929
5.09999995306134 958
5.11999995261431 906
5.13999995216727 910
5.15999995172024 935
5.1799999512732 934
5.19999995082617 963
5.21999995037913 950
5.2399999499321 962
5.25999994948506 929
5.27999994903803 954
5.29999994859099 964
5.31999994814396 936
5.33999994769692 946
5.35999994724989 935
5.37999994680285 970
5.39999994635582 1005
5.41999994590878 960
5.43999994546175 1022
5.45999994501471 1085
5.47999994456768 1113
5.49999994412065 1034
5.51999994367361 1007
5.53999994322658 982
5.55999994277954 956
5.57999994233251 892
5.59999994188547 864
5.61999994143844 892
5.6399999409914 889
5.65999994054437 911
5.67999994009733 865
5.6999999396503 833
5.71999993920326 835
5.73999993875623 833
5.75999993830919 802
5.77999993786216 837
5.79999993741512 835
5.81999993696809 831
5.83999993652105 851
5.85999993607402 832
5.87999993562698 788
5.89999993517995 792
5.91999993473291 779
5.93999993428588 810
5.95999993383884 809
5.97999993339181 806
5.99999993294477 837
6.01999993249774 781
6.0399999320507 808
6.05999993160367 824
6.07999993115663 773
6.0999999307096 786
6.11999993026257 800
6.13999992981553 778
6.1599999293685 752
6.17999992892146 783
6.19999992847443 769
6.21999992802739 783
6.23999992758036 781
6.25999992713332 740
6.27999992668629 775
6.29999992623925 800
6.31999992579222 770
6.33999992534518 759
6.35999992489815 781
6.37999992445111 789
6.39999992400408 760
6.41999992355704 764
6.43999992311001 732
6.45999992266297 813
6.47999992221594 785
6.4999999217689 771
6.51999992132187 717
6.53999992087483 770
6.5599999204278 753
6.57999991998076 777
6.59999991953373 753
6.61999991908669 765
6.63999991863966 748
6.65999991819262 764
6.67999991774559 784
6.69999991729855 729
6.71999991685152 723
6.73999991640449 780
6.75999991595745 702
6.77999991551042 723
6.79999991506338 738
6.81999991461635 679
6.83999991416931 769
6.85999991372228 733
6.87999991327524 749
6.89999991282821 742
6.91999991238117 759
6.93999991193414 747
6.9599999114871 774
6.97999991104007 730
6.99999991059303 728
7.019999910146 757
7.03999990969896 741
7.05999990925193 709
7.07999990880489 749
7.09999990835786 762
7.11999990791082 710
7.13999990746379 727
7.15999990701675 721
7.17999990656972 745
7.19999990612268 675
7.21999990567565 714
7.23999990522861 721
7.25999990478158 710
7.27999990433454 695
7.29999990388751 713
7.31999990344047 720
7.33999990299344 732
7.35999990254641 689
7.37999990209937 768
7.39999990165234 704
7.4199999012053 719
7.43999990075827 715
7.45999990031123 720
7.4799998998642 726
7.49999989941716 717
7.51999989897013 699
7.53999989852309 695
7.55999989807606 722
7.57999989762902 707
7.59999989718199 698
7.61999989673495 684
7.63999989628792 691
7.65999989584088 699
7.67999989539385 735
7.69999989494681 674
7.71999989449978 673
7.73999989405274 701
7.75999989360571 697
7.77999989315867 690
7.79999989271164 674
7.8199998922646 735
7.83999989181757 691
7.85999989137053 684
7.8799998909235 635
7.89999989047646 653
7.91999989002943 659
7.9399998895824 683
7.95999988913536 699
7.97999988868833 697
7.99999988824129 632
8.01999988779426 652
8.03999988734722 693
8.05999988690019 682
8.07999988645315 647
8.09999988600612 649
8.11999988555908 671
8.13999988511205 656
8.15999988466501 676
8.17999988421798 676
8.19999988377094 655
8.21999988332391 672
8.23999988287687 639
8.25999988242984 640
8.2799998819828 674
8.29999988153577 621
8.31999988108873 654
8.3399998806417 646
8.35999988019466 680
8.37999987974763 637
8.39999987930059 653
8.41999987885356 653
8.43999987840652 684
8.45999987795949 653
8.47999987751245 635
8.49999987706542 635
8.51999987661839 697
8.53999987617135 708
8.55999987572432 616
8.57999987527728 669
8.59999987483025 667
8.61999987438321 674
8.63999987393618 634
8.65999987348914 666
8.67999987304211 662
8.69999987259507 667
8.71999987214804 650
8.739999871701 615
8.75999987125397 645
8.77999987080693 627
8.7999998703599 638
8.81999986991286 626
8.83999986946583 665
8.85999986901879 610
8.87999986857176 631
8.89999986812472 640
8.91999986767769 645
8.93999986723065 602
8.95999986678362 651
8.97999986633658 677
8.99999986588955 631
9.01999986544251 660
9.03999986499548 622
9.05999986454844 705
9.07999986410141 656
9.09999986365438 690
9.11999986320734 645
9.13999986276031 650
9.15999986231327 651
9.17999986186624 635
9.1999998614192 625
9.21999986097217 653
9.23999986052513 710
9.2599998600781 679
9.27999985963106 699
9.29999985918403 644
9.31999985873699 655
9.33999985828996 718
9.35999985784292 681
9.37999985739589 754
9.39999985694885 686
9.41999985650182 690
9.43999985605478 704
9.45999985560775 701
9.47999985516071 658
9.49999985471368 720
9.51999985426664 650
9.53999985381961 658
9.55999985337257 648
9.57999985292554 691
9.5999998524785 655
9.61999985203147 643
9.63999985158443 636
9.6599998511374 658
9.67999985069037 623
9.69999985024333 602
9.7199998497963 630
9.73999984934926 643
9.75999984890223 602
9.77999984845519 634
9.79999984800816 651
9.81999984756112 595
9.83999984711409 665
9.85999984666705 589
9.87999984622002 643
9.89999984577298 664
9.91999984532595 617
9.93999984487891 644
9.95999984443188 591
9.97999984398484 608
9.99999984353781 604
10.0199998430908 574
10.0399998426437 598
10.0599998421967 603
10.0799998417497 579
10.0999998413026 541
10.1199998408556 613
10.1399998404086 612
10.1599998399615 578
10.1799998395145 627
10.1999998390675 584
10.2199998386204 644
10.2399998381734 623
10.2599998377264 578
10.2799998372793 578
10.2999998368323 606
10.3199998363853 644
10.3399998359382 650
10.3599998354912 624
10.3799998350441 553
10.3999998345971 608
10.4199998341501 654
10.439999833703 595
10.459999833256 628
10.479999832809 581
10.4999998323619 584
10.5199998319149 600
10.5399998314679 602
10.5599998310208 578
10.5799998305738 585
10.5999998301268 583
10.6199998296797 569
10.6399998292327 568
10.6599998287857 628
10.6799998283386 647
10.6999998278916 617
10.7199998274446 640
10.7399998269975 538
10.7599998265505 615
10.7799998261034 641
10.7999998256564 573
10.8199998252094 614
10.8399998247623 611
10.8599998243153 641
10.8799998238683 597
10.8999998234212 652
10.9199998229742 623
10.9399998225272 619
10.9599998220801 622
10.9799998216331 606
10.9999998211861 660
11.019999820739 562
11.039999820292 627
11.059999819845 616
11.0799998193979 637
11.0999998189509 633
11.1199998185039 618
11.1399998180568 621
11.1599998176098 583
11.1799998171628 610
11.1999998167157 617
11.2199998162687 555
11.2399998158216 647
11.2599998153746 608
11.2799998149276 622
11.2999998144805 583
11.3199998140335 581
11.3399998135865 567
11.3599998131394 597
11.3799998126924 599
11.3999998122454 605
11.4199998117983 592
11.4399998113513 591
11.4599998109043 597
11.4799998104572 573
11.4999998100102 575
11.5199998095632 631
11.5399998091161 608
11.5599998086691 612
11.5799998082221 598
11.599999807775 585
11.619999807328 587
11.639999806881 576
11.6599998064339 566
11.6799998059869 574
11.6999998055398 623
11.7199998050928 582
11.7399998046458 602
11.7599998041987 626
11.7799998037517 579
11.7999998033047 616
11.8199998028576 599
11.8399998024106 614
11.8599998019636 596
11.8799998015165 592
11.8999998010695 547
11.9199998006225 595
11.9399998001754 605
11.9599997997284 572
11.9799997992814 572
11.9999997988343 580
12.0199997983873 561
12.0399997979403 562
12.0599997974932 618
12.0799997970462 581
12.0999997965992 587
12.1199997961521 622
12.1399997957051 583
12.159999795258 606
12.179999794811 614
12.199999794364 588
12.2199997939169 576
12.2399997934699 577
12.2599997930229 614
12.2799997925758 586
12.2999997921288 637
12.3199997916818 631
12.3399997912347 608
12.3599997907877 604
12.3799997903407 613
12.3999997898936 542
12.4199997894466 556
12.4399997889996 588
12.4599997885525 597
12.4799997881055 579
12.4999997876585 602
12.5199997872114 622
12.5399997867644 598
12.5599997863173 602
12.5799997858703 609
12.5999997854233 616
12.6199997849762 615
12.6399997845292 608
12.6599997840822 612
12.6799997836351 580
12.6999997831881 597
12.7199997827411 607
12.739999782294 643
12.759999781847 635
12.7799997814 619
12.7999997809529 622
12.8199997805059 601
12.8399997800589 634
12.8599997796118 626
12.8799997791648 638
12.8999997787178 624
12.9199997782707 615
12.9399997778237 601
12.9599997773767 601
12.9799997769296 612
12.9999997764826 579
13.0199997760355 598
13.0399997755885 643
13.0599997751415 590
13.0799997746944 602
13.0999997742474 614
13.1199997738004 631
13.1399997733533 630
13.1599997729063 629
13.1799997724593 619
13.1999997720122 612
13.2199997715652 611
13.2399997711182 633
13.2599997706711 614
13.2799997702241 609
13.2999997697771 654
13.31999976933 631
13.339999768883 625
13.359999768436 616
13.3799997679889 674
13.3999997675419 596
13.4199997670949 619
13.4399997666478 624
13.4599997662008 636
13.4799997657537 655
13.4999997653067 623
13.5199997648597 664
13.5399997644126 681
13.5599997639656 652
13.5799997635186 633
13.5999997630715 616
13.6199997626245 606
13.6399997621775 648
13.6599997617304 674
13.6799997612834 663
13.6999997608364 672
13.7199997603893 647
13.7399997599423 642
13.7599997594953 640
13.7799997590482 644
13.7999997586012 691
13.8199997581542 678
13.8399997577071 641
13.8599997572601 590
13.879999756813 662
13.899999756366 676
13.919999755919 684
13.9399997554719 701
13.9599997550249 685
13.9799997545779 684
13.9999997541308 659
14.0199997536838 683
14.0399997532368 666
14.0599997527897 661
14.0799997523427 666
14.0999997518957 683
14.1199997514486 682
14.1399997510016 696
14.1599997505546 674
14.1799997501075 662
14.1999997496605 670
14.2199997492135 687
14.2399997487664 648
14.2599997483194 685
14.2799997478724 646
14.2999997474253 678
14.3199997469783 667
14.3399997465312 692
14.3599997460842 645
14.3799997456372 697
14.3999997451901 678
14.4199997447431 707
14.4399997442961 684
14.459999743849 664
14.479999743402 711
14.499999742955 683
14.5199997425079 654
14.5399997420609 694
14.5599997416139 743
14.5799997411668 688
14.5999997407198 689
14.6199997402728 758
14.6399997398257 689
14.6599997393787 689
14.6799997389317 689
14.6999997384846 713
14.7199997380376 693
14.7399997375906 721
14.7599997371435 714
14.7799997366965 710
14.7999997362494 685
14.8199997358024 755
14.8399997353554 698
14.8599997349083 672
14.8799997344613 681
14.8999997340143 722
14.9199997335672 660
14.9399997331202 750
14.9599997326732 715
14.9799997322261 727
14.9999997317791 745
15.0199997313321 727
15.039999730885 726
15.059999730438 738
15.079999729991 709
15.0999997295439 704
15.1199997290969 677
15.1399997286499 722
15.1599997282028 701
15.1799997277558 723
15.1999997273088 692
15.2199997268617 735
15.2399997264147 738
15.2599997259676 671
15.2799997255206 741
15.2999997250736 692
15.3199997246265 741
15.3399997241795 722
15.3599997237325 721
15.3799997232854 776
15.3999997228384 760
15.4199997223914 747
15.4399997219443 815
15.4599997214973 746
15.4799997210503 750
15.4999997206032 769
15.5199997201562 801
15.5399997197092 741
15.5599997192621 766
15.5799997188151 769
15.5999997183681 746
15.619999717921 771
15.639999717474 776
15.659999717027 766
15.6799997165799 789
15.6999997161329 757
15.7199997156858 754
15.7399997152388 752
15.7599997147918 723
15.7799997143447 756
15.7999997138977 785
15.8199997134507 761
15.8399997130036 741
15.8599997125566 825
15.8799997121096 786
15.8999997116625 750
15.9199997112155 760
15.9399997107685 783
15.9599997103214 802
15.9799997098744 805
15.9999997094274 794
16.0199997089803 772
16.0399997085333 801
16.0599997080863 842
16.0799997076392 795
16.0999997071922 843
16.1199997067451 796
16.1399997062981 813
16.1599997058511 808
16.179999705404 787
16.199999704957 813
16.21999970451 795
16.2399997040629 820
16.2599997036159 776
16.2799997031689 887
16.2999997027218 799
16.3199997022748 772
16.3399997018278 811
16.3599997013807 813
16.3799997009337 878
16.3999997004867 855
16.4199997000396 911
16.4399996995926 848
16.4599996991456 822
16.4799996986985 858
16.4999996982515 837
16.5199996978045 873
16.5399996973574 843
16.5599996969104 810
16.5799996964633 850
16.5999996960163 857
16.6199996955693 891
16.6399996951222 889
16.6599996946752 907
16.6799996942282 895
16.6999996937811 903
16.7199996933341 906
16.7399996928871 929
16.75999969244 930
16.779999691993 921
16.799999691546 904
16.8199996910989 907
16.8399996906519 933
16.8599996902049 958
16.8799996897578 980
16.8999996893108 1017
16.9199996888638 1015
16.9399996884167 1117
16.9599996879697 1227
16.9799996875226 1190
16.9999996870756 1239
17.0199996866286 1218
17.0399996861815 1203
17.0599996857345 1198
17.0799996852875 1129
17.0999996848404 1040
17.1199996843934 995
17.1399996839464 1005
17.1599996834993 976
17.1799996830523 1015
17.1999996826053 944
17.2199996821582 964
17.2399996817112 1013
17.2599996812642 974
17.2799996808171 929
17.2999996803701 989
17.3199996799231 937
17.339999679476 974
17.359999679029 990
17.379999678582 959
17.3999996781349 940
17.4199996776879 983
17.4399996772408 978
17.4599996767938 936
17.4799996763468 1013
17.4999996758997 1000
17.5199996754527 990
17.5399996750057 977
17.5599996745586 1024
17.5799996741116 1006
17.5999996736646 989
17.6199996732175 988
17.6399996727705 965
17.6599996723235 1027
17.6799996718764 1003
17.6999996714294 1022
17.7199996709824 1049
17.7399996705353 1003
17.7599996700883 1103
17.7799996696413 1059
17.7999996691942 1088
17.8199996687472 1070
17.8399996683002 1035
17.8599996678531 1022
17.8799996674061 1022
17.899999666959 984
17.919999666512 1022
17.939999666065 969
17.9599996656179 1039
17.9799996651709 1084
17.9999996647239 1025
18.0199996642768 1076
18.0399996638298 1103
18.0599996633828 1087
18.0799996629357 1043
18.0999996624887 1069
18.1199996620417 1081
18.1399996615946 1054
18.1599996611476 1129
18.1799996607006 1100
18.1999996602535 1063
18.2199996598065 1124
18.2399996593595 1084
18.2599996589124 1041
18.2799996584654 1074
18.2999996580184 1142
18.3199996575713 1065
18.3399996571243 1057
18.3599996566772 1073
18.3799996562302 1104
18.3999996557832 1058
18.4199996553361 1104
18.4399996548891 1147
18.4599996544421 1130
18.479999653995 1131
18.499999653548 1134
18.519999653101 1173
18.5399996526539 1169
18.5599996522069 1127
18.5799996517599 1133
18.5999996513128 1220
18.6199996508658 1144
18.6399996504188 1168
18.6599996499717 1167
18.6799996495247 1094
18.6999996490777 1191
18.7199996486306 1133
18.7399996481836 1154
18.7599996477366 1192
18.7799996472895 1167
18.7999996468425 1208
18.8199996463954 1173
18.8399996459484 1151
18.8599996455014 1237
18.8799996450543 1187
18.8999996446073 1273
18.9199996441603 1207
18.9399996437132 1200
18.9599996432662 1204
18.9799996428192 1139
18.9999996423721 1175
19.0199996419251 1249
19.0399996414781 1183
19.059999641031 1196
19.079999640584 1192
19.099999640137 1216
19.1199996396899 1233
19.1399996392429 1204
19.1599996387959 1202
19.1799996383488 1220
19.1999996379018 1198
19.2199996374547 1252
19.2399996370077 1252
19.2599996365607 1287
19.2799996361136 1282
19.2999996356666 1177
19.3199996352196 1204
19.3399996347725 1271
19.3599996343255 1237
19.3799996338785 1232
19.3999996334314 1219
19.4199996329844 1221
19.4399996325374 1293
19.4599996320903 1232
19.4799996316433 1224
19.4999996311963 1312
19.5199996307492 1319
19.5399996303022 1311
19.5599996298552 1300
19.5799996294081 1282
19.5999996289611 1237
19.6199996285141 1301
19.639999628067 1338
19.65999962762 1347
19.6799996271729 1258
19.6999996267259 1306
19.7199996262789 1270
19.7399996258318 1276
19.7599996253848 1307
19.7799996249378 1358
19.7999996244907 1369
19.8199996240437 1322
19.8399996235967 1274
19.8599996231496 1285
19.8799996227026 1334
19.8999996222556 1375
19.9199996218085 1360
19.9399996213615 1347
19.9599996209145 1303
19.9799996204674 1333
19.9999996200204 1358
