3 5865
3.01999999955297 5369
3.03999999910593 4954
3.0599999986589 4689
3.07999999821186 4375
3.09999999776483 4108
3.11999999731779 3766
3.13999999687076 3386
3.15999999642372 3214
3.17999999597669 2928
3.19999999552965 2755
3.21999999508262 2549
3.23999999463558 2398
3.25999999418855 2135
3.27999999374151 1963
3.29999999329448 1799
3.31999999284744 1623
3.33999999240041 1486
3.35999999195337 1412
3.37999999150634 1394
3.3999999910593 1320
3.41999999061227 1312
3.43999999016523 1265
3.4599999897182 1208
3.47999998927116 1229
3.49999998882413 1188
3.51999998837709 1151
3.53999998793006 1125
3.55999998748302 1179
3.57999998703599 1129
3.59999998658895 1168
3.61999998614192 1104
3.63999998569489 1075
3.65999998524785 1126
3.67999998480082 1078
3.69999998435378 1096
3.71999998390675 1047
3.73999998345971 1103
3.75999998301268 1035
3.77999998256564 1059
3.79999998211861 1049
3.81999998167157 978
3.83999998122454 1044
3.8599999807775 1044
3.87999998033047 1004
3.89999997988343 953
3.9199999794364 1004
3.93999997898936 968
3.95999997854233 997
3.97999997809529 952
3.99999997764826 958
4.01999997720122 981
4.03999997675419 947
4.05999997630715 1005
4.07999997586012 940
4.09999997541308 980
4.11999997496605 968
4.13999997451901 929
4.15999997407198 936
4.17999997362494 871
4.19999997317791 963
4.21999997273087 885
4.23999997228384 930
4.25999997183681 884
4.27999997138977 877
4.29999997094274 830
4.3199999704957 889
4.33999997004867 826
4.35999996960163 848
4.3799999691546 841
4.39999996870756 770
4.41999996826053 852
4.43999996781349 805
4.45999996736646 772
4.47999996691942 744
4.49999996647239 773
4.51999996602535 810
4.53999996557832 779
4.55999996513128 727
4.57999996468425 753
4.59999996423721 763
4.61999996379018 758
4.63999996334314 752
4.65999996289611 713
4.67999996244907 731
4.69999996200204 771
4.719999961555 792
4.73999996110797 802
4.75999996066093 773
4.7799999602139 771
4.79999995976686 781
4.81999995931983 798
4.83999995887279 775
4.85999995842576 752
4.87999995797873 730
4.89999995753169 800
4.91999995708466 818
4.93999995663762 819
4.95999995619059 802
4.97999995574355 891
4.99999995529652 889
5.01999995484948 904
5.03999995440245 896
5.05999995395541 875
5.07999995350838 941
5.09999995306134 981
5.11999995261431 1061
5.13999995216727 1029
5.15999995172024 997
5.1799999512732 1032
5.19999995082617 1103
5.21999995037913 1148
5.2399999499321 1186
5.25999994948506 1208
5.27999994903803 1302
5.29999994859099 1427
5.31999994814396 1486
5.33999994769692 1580
5.35999994724989 1718
5.37999994680285 1867
5.39999994635582 2104
5.41999994590878 2229
5.43999994546175 2546
5.45999994501471 2641
5.47999994456768 2530
5.49999994412065 2285
5.51999994367361 1895
5.53999994322658 1691
5.55999994277954 1647
5.57999994233251 1633
5.59999994188547 1661
5.61999994143844 1631
5.6399999409914 1664
5.65999994054437 1659
5.67999994009733 1719
5.6999999396503 1819
5.71999993920326 1835
5.73999993875623 1957
5.75999993830919 1937
5.77999993786216 1966
5.79999993741512 2033
5.81999993696809 1864
5.83999993652105 1737
5.85999993607402 1514
5.87999993562698 1227
5.89999993517995 1052
5.91999993473291 913
5.93999993428588 910
5.95999993383884 854
5.97999993339181 719
5.99999993294477 816
6.01999993249774 802
6.0399999320507 742
6.05999993160367 687
6.07999993115663 694
6.0999999307096 693
6.11999993026257 668
6.13999992981553 664
6.1599999293685 696
6.17999992892146 653
6.19999992847443 644
6.21999992802739 644
6.23999992758036 640
6.25999992713332 677
6.27999992668629 657
6.29999992623925 663
6.31999992579222 663
6.33999992534518 639
6.35999992489815 631
6.37999992445111 614
6.39999992400408 616
6.41999992355704 618
6.43999992311001 635
6.45999992266297 586
6.47999992221594 627
6.4999999217689 643
6.51999992132187 637
6.53999992087483 631
6.5599999204278 667
6.57999991998076 695
6.59999991953373 626
6.61999991908669 628
6.63999991863966 697
6.65999991819262 724
6.67999991774559 702
6.69999991729855 699
6.71999991685152 789
6.73999991640449 754
6.75999991595745 740
6.77999991551042 676
6.79999991506338 672
6.81999991461635 638
6.83999991416931 680
6.85999991372228 619
6.87999991327524 640
6.89999991282821 625
6.91999991238117 650
6.93999991193414 632
6.9599999114871 618
6.97999991104007 636
6.99999991059303 591
7.019999910146 594
7.03999990969896 608
7.05999990925193 602
7.07999990880489 594
7.09999990835786 632
7.11999990791082 601
7.13999990746379 591
7.15999990701675 611
7.17999990656972 591
7.19999990612268 566
7.21999990567565 616
7.23999990522861 608
7.25999990478158 555
7.27999990433454 606
7.29999990388751 561
7.31999990344047 533
7.33999990299344 610
7.35999990254641 605
7.37999990209937 593
7.39999990165234 596
7.4199999012053 580
7.43999990075827 577
7.45999990031123 620
7.4799998998642 624
7.49999989941716 584
7.51999989897013 615
7.53999989852309 539
7.55999989807606 558
7.57999989762902 607
7.59999989718199 589
7.61999989673495 542
7.63999989628792 582
7.65999989584088 588
7.67999989539385 600
7.69999989494681 536
7.71999989449978 602
7.73999989405274 574
7.75999989360571 570
7.77999989315867 592
7.79999989271164 554
7.8199998922646 574
7.83999989181757 589
7.85999989137053 504
7.8799998909235 554
7.89999989047646 538
7.91999989002943 594
7.9399998895824 573
7.95999988913536 602
7.97999988868833 570
7.99999988824129 567
8.01999988779426 578
8.03999988734722 576
8.05999988690019 625
8.07999988645315 553
8.09999988600612 561
8.11999988555908 586
8.13999988511205 573
8.15999988466501 594
8.17999988421798 586
8.19999988377094 596
8.21999988332391 633
8.23999988287687 566
8.25999988242984 600
8.2799998819828 609
8.29999988153577 571
8.31999988108873 581
8.3399998806417 545
8.35999988019466 538
8.37999987974763 578
8.39999987930059 571
8.41999987885356 565
8.43999987840652 582
8.45999987795949 550
8.47999987751245 540
8.49999987706542 534
8.51999987661839 541
8.53999987617135 608
8.55999987572432 607
8.57999987527728 525
8.59999987483025 602
8.61999987438321 567
8.63999987393618 568
8.65999987348914 546
8.67999987304211 520
8.69999987259507 527
8.71999987214804 586
8.739999871701 586
8.75999987125397 556
8.77999987080693 541
8.7999998703599 591
8.81999986991286 563
8.83999986946583 583
8.85999986901879 581
8.87999986857176 618
8.89999986812472 568
8.91999986767769 603
8.93999986723065 607
8.95999986678362 608
8.97999986633658 616
8.99999986588955 659
9.01999986544251 630
9.03999986499548 630
9.05999986454844 668
9.07999986410141 696
9.09999986365438 621
9.11999986320734 680
9.13999986276031 756
9.15999986231327 767
9.17999986186624 769
9.1999998614192 847
9.21999986097217 861
9.23999986052513 907
9.2599998600781 955
9.27999985963106 999
9.29999985918403 1064
9.31999985873699 1265
9.33999985828996 1399
9.35999985784292 1554
9.37999985739589 1499
9.39999985694885 1403
9.41999985650182 1088
9.43999985605478 886
9.45999985560775 722
9.47999985516071 707
9.49999985471368 632
9.51999985426664 613
9.53999985381961 616
9.55999985337257 641
9.57999985292554 634
9.5999998524785 602
9.61999985203147 637
9.63999985158443 583
9.6599998511374 598
9.67999985069037 620
9.69999985024333 606
9.7199998497963 575
9.73999984934926 628
9.75999984890223 590
9.77999984845519 568
9.79999984800816 595
9.81999984756112 608
9.83999984711409 602
9.85999984666705 582
9.87999984622002 639
9.89999984577298 637
9.91999984532595 562
9.93999984487891 603
9.95999984443188 617
9.97999984398484 627
9.99999984353781 607
10.0199998430908 651
10.0399998426437 637
10.0599998421967 612
10.0799998417497 590
10.0999998413026 658
10.1199998408556 682
10.1399998404086 665
10.1599998399615 653
10.1799998395145 714
10.1999998390675 716
10.2199998386204 694
10.2399998381734 652
10.2599998377264 690
10.2799998372793 644
10.2999998368323 652
10.3199998363853 685
10.3399998359382 598
10.3599998354912 594
10.3799998350441 624
10.3999998345971 610
10.4199998341501 578
10.439999833703 583
10.459999833256 596
10.479999832809 611
10.4999998323619 600
10.5199998319149 622
10.5399998314679 626
10.5599998310208 604
10.5799998305738 631
10.5999998301268 642
10.6199998296797 648
10.6399998292327 631
10.6599998287857 691
10.6799998283386 694
10.6999998278916 738
10.7199998274446 783
10.7399998269975 809
10.7599998265505 890
10.7799998261034 960
10.7999998256564 954
10.8199998252094 1041
10.8399998247623 947
10.8599998243153 938
10.8799998238683 874
10.8999998234212 852
10.9199998229742 925
10.9399998225272 934
10.9599998220801 989
10.9799998216331 977
10.9999998211861 932
11.019999820739 895
11.039999820292 849
11.059999819845 760
11.0799998193979 703
11.0999998189509 683
11.1199998185039 596
11.1399998180568 643
11.1599998176098 620
11.1799998171628 637
11.1999998167157 621
11.2199998162687 593
11.2399998158216 622
11.2599998153746 602
11.2799998149276 611
11.2999998144805 619
11.3199998140335 631
11.3399998135865 587
11.3599998131394 599
11.3799998126924 619
11.3999998122454 649
11.4199998117983 661
11.4399998113513 646
11.4599998109043 631
11.4799998104572 634
11.4999998100102 659
11.5199998095632 662
11.5399998091161 702
11.5599998086691 695
11.5799998082221 710
11.599999807775 646
11.619999807328 641
11.639999806881 645
11.6599998064339 581
11.6799998059869 636
11.6999998055398 623
11.7199998050928 579
11.7399998046458 599
11.7599998041987 597
11.7799998037517 583
11.7999998033047 598
11.8199998028576 573
11.8399998024106 601
11.8599998019636 573
11.8799998015165 641
11.8999998010695 618
11.9199998006225 592
11.9399998001754 588
11.9599997997284 605
11.9799997992814 596
11.9999997988343 627
12.0199997983873 623
12.0399997979403 648
12.0599997974932 619
12.0799997970462 608
12.0999997965992 624
12.1199997961521 614
12.1399997957051 646
12.159999795258 640
12.179999794811 674
12.199999794364 649
12.2199997939169 674
12.2399997934699 670
12.2599997930229 703
12.2799997925758 698
12.2999997921288 651
12.3199997916818 638
12.3399997912347 658
12.3599997907877 649
12.3799997903407 649
12.3999997898936 639
12.4199997894466 584
12.4399997889996 609
12.4599997885525 609
12.4799997881055 656
12.4999997876585 613
12.5199997872114 644
12.5399997867644 604
12.5599997863173 613
12.5799997858703 592
12.5999997854233 593
12.6199997849762 569
12.6399997845292 589
12.6599997840822 646
12.6799997836351 611
12.6999997831881 614
12.7199997827411 595
12.739999782294 591
12.759999781847 599
12.7799997814 614
12.7999997809529 609
12.8199997805059 632
12.8399997800589 645
12.8599997796118 619
12.8799997791648 627
12.8999997787178 661
12.9199997782707 642
12.9399997778237 616
12.9599997773767 626
12.9799997769296 640
12.9999997764826 636
13.0199997760355 642
13.0399997755885 585
13.0599997751415 620
13.0799997746944 676
13.0999997742474 620
13.1199997738004 630
13.1399997733533 637
13.1599997729063 685
13.1799997724593 624
13.1999997720122 624
13.2199997715652 637
13.2399997711182 627
13.2599997706711 670
13.2799997702241 620
13.2999997697771 677
13.31999976933 682
13.339999768883 667
13.359999768436 691
13.3799997679889 656
13.3999997675419 662
13.4199997670949 624
13.4399997666478 649
13.4599997662008 702
13.4799997657537 700
13.4999997653067 670
13.5199997648597 685
13.5399997644126 617
13.5599997639656 722
13.5799997635186 667
13.5999997630715 688
13.6199997626245 698
13.6399997621775 666
13.6599997617304 630
13.6799997612834 623
13.6999997608364 686
13.7199997603893 696
13.7399997599423 675
13.7599997594953 640
13.7799997590482 646
13.7999997586012 677
13.8199997581542 646
13.8399997577071 664
13.8599997572601 655
13.879999756813 726
13.899999756366 670
13.919999755919 646
13.9399997554719 656
13.9599997550249 670
13.9799997545779 658
13.9999997541308 706
14.0199997536838 655
14.0399997532368 659
14.0599997527897 763
14.0799997523427 717
14.0999997518957 670
14.1199997514486 692
14.1399997510016 714
14.1599997505546 756
14.1799997501075 705
14.1999997496605 687
14.2199997492135 761
14.2399997487664 706
14.2599997483194 750
14.2799997478724 790
14.2999997474253 770
14.3199997469783 766
14.3399997465312 758
14.3599997460842 709
14.3799997456372 765
14.3999997451901 720
14.4199997447431 766
14.4399997442961 739
14.459999743849 709
14.479999743402 710
14.499999742955 699
14.5199997425079 757
14.5399997420609 714
14.5599997416139 721
14.5799997411668 703
14.5999997407198 764
14.6199997402728 760
14.6399997398257 713
14.6599997393787 766
14.6799997389317 716
14.6999997384846 767
14.7199997380376 737
14.7399997375906 738
14.7599997371435 750
14.7799997366965 747
14.7999997362494 765
14.8199997358024 762
14.8399997353554 769
14.8599997349083 785
14.8799997344613 803
14.8999997340143 761
14.9199997335672 759
14.9399997331202 736
14.9599997326732 743
14.9799997322261 753
14.9999997317791 743
15.0199997313321 714
15.039999730885 744
15.059999730438 757
15.079999729991 762
15.0999997295439 771
15.1199997290969 777
15.1399997286499 793
15.1599997282028 757
15.1799997277558 775
15.1999997273088 798
15.2199997268617 767
15.2399997264147 742
15.2599997259676 775
15.2799997255206 778
15.2999997250736 733
15.3199997246265 812
15.3399997241795 804
15.3599997237325 816
15.3799997232854 758
15.3999997228384 801
15.4199997223914 760
15.4399997219443 794
15.4599997214973 755
15.4799997210503 796
15.4999997206032 814
15.5199997201562 816
15.5399997197092 791
15.5599997192621 770
15.5799997188151 784
15.5999997183681 804
15.619999717921 774
15.639999717474 816
15.659999717027 811
15.6799997165799 814
15.6999997161329 792
15.7199997156858 761
15.7399997152388 827
15.7599997147918 774
15.7799997143447 839
15.7999997138977 757
15.8199997134507 808
15.8399997130036 857
15.8599997125566 821
15.8799997121096 825
15.8999997116625 824
15.9199997112155 812
15.9399997107685 821
15.9599997103214 846
15.9799997098744 855
15.9999997094274 875
16.0199997089803 871
16.0399997085333 840
16.0599997080863 813
16.0799997076392 870
16.0999997071922 888
16.1199997067451 848
16.1399997062981 861
16.1599997058511 870
16.179999705404 864
16.199999704957 893
16.21999970451 849
16.2399997040629 882
16.2599997036159 864
16.2799997031689 864
16.2999997027218 886
16.3199997022748 893
16.3399997018278 945
16.3599997013807 920
16.3799997009337 916
16.3999997004867 898
16.4199997000396 892
16.4399996995926 890
16.4599996991456 951
16.4799996986985 938
16.4999996982515 847
16.5199996978045 912
16.5399996973574 938
16.5599996969104 943
16.5799996964633 879
16.5999996960163 928
16.6199996955693 993
16.6399996951222 911
16.6599996946752 919
16.6799996942282 935
16.6999996937811 946
16.7199996933341 926
16.7399996928871 960
16.75999969244 961
16.779999691993 1024
16.799999691546 988
16.8199996910989 971
16.8399996906519 981
16.8599996902049 953
16.8799996897578 1002
16.8999996893108 1018
16.9199996888638 1027
16.9399996884167 1100
16.9599996879697 1158
16.9799996875226 1147
16.9999996870756 1198
17.0199996866286 1184
17.0399996861815 1194
17.0599996857345 1209
17.0799996852875 1130
17.0999996848404 1085
17.1199996843934 1034
17.1399996839464 959
17.1599996834993 1006
17.1799996830523 1026
17.1999996826053 1029
17.2199996821582 976
17.2399996817112 975
17.2599996812642 1023
17.2799996808171 1010
17.2999996803701 1071
17.3199996799231 1110
17.339999679476 1025
17.359999679029 1032
17.379999678582 1012
17.3999996781349 1046
17.4199996776879 1002
17.4399996772408 1025
17.4599996767938 1052
17.4799996763468 1103
17.4999996758997 1060
17.5199996754527 1008
17.5399996750057 1025
17.5599996745586 1065
17.5799996741116 1039
17.5999996736646 1050
17.6199996732175 1083
17.6399996727705 1073
17.6599996723235 1080
17.6799996718764 1097
17.6999996714294 1134
17.7199996709824 1125
17.7399996705353 1112
17.7599996700883 1121
17.7799996696413 1117
17.7999996691942 1038
17.8199996687472 1113
17.8399996683002 1105
17.8599996678531 1103
17.8799996674061 1098
17.899999666959 1100
17.919999666512 1128
17.939999666065 1143
17.9599996656179 1202
17.9799996651709 1151
17.9999996647239 1138
18.0199996642768 1099
18.0399996638298 1148
18.0599996633828 1102
18.0799996629357 1135
18.0999996624887 1169
18.1199996620417 1168
18.1399996615946 1138
18.1599996611476 1128
18.1799996607006 1166
18.1999996602535 1147
18.2199996598065 1119
18.2399996593595 1173
18.2599996589124 1129
18.2799996584654 1110
18.2999996580184 1169
18.3199996575713 1127
18.3399996571243 1175
18.3599996566772 1157
18.3799996562302 1267
18.3999996557832 1204
18.4199996553361 1214
18.4399996548891 1215
18.4599996544421 1166
18.479999653995 1237
18.499999653548 1218
18.519999653101 1194
18.5399996526539 1235
18.5599996522069 1239
18.5799996517599 1153
18.5999996513128 1238
18.6199996508658 1208
18.6399996504188 1221
18.6599996499717 1271
18.6799996495247 1276
18.6999996490777 1342
18.7199996486306 1290
18.7399996481836 1349
18.7599996477366 1320
18.7799996472895 1321
18.7999996468425 1335
18.8199996463954 1272
18.8399996459484 1379
18.8599996455014 1301
18.8799996450543 1324
18.8999996446073 1292
18.9199996441603 1310
18.9399996437132 1313
18.9599996432662 1326
18.9799996428192 1349
18.9999996423721 1353
19.0199996419251 1328
19.0399996414781 1384
19.059999641031 1384
19.079999640584 1396
19.099999640137 1382
19.1199996396899 1418
19.1399996392429 1428
19.1599996387959 1404
19.1799996383488 1452
19.1999996379018 1407
19.2199996374547 1366
19.2399996370077 1388
19.2599996365607 1360
19.2799996361136 1473
19.2999996356666 1449
19.3199996352196 1381
19.3399996347725 1393
19.3599996343255 1422
19.3799996338785 1392
19.3999996334314 1454
19.4199996329844 1546
19.4399996325374 1538
19.4599996320903 1628
19.4799996316433 1628
19.4999996311963 1654
19.5199996307492 1587
19.5399996303022 1653
19.5599996298552 1549
19.5799996294081 1621
19.5999996289611 1599
19.6199996285141 1563
19.639999628067 1483
19.65999962762 1425
19.6799996271729 1507
19.6999996267259 1436
19.7199996262789 1490
19.7399996258318 1401
19.7599996253848 1464
19.7799996249378 1475
19.7999996244907 1493
19.8199996240437 1445
19.8399996235967 1526
19.8599996231496 1485
19.8799996227026 1495
19.8999996222556 1476
19.9199996218085 1513
19.9399996213615 1513
19.9599996209145 1510
19.9799996204674 1462
19.9999996200204 1486
