3 6022
3.01999999955297 5641
3.03999999910593 5347
3.0599999986589 4939
3.07999999821186 4538
3.09999999776483 4277
3.11999999731779 3991
3.13999999687076 3718
3.15999999642372 3491
3.17999999597669 3148
3.19999999552965 3035
3.21999999508262 2780
3.23999999463558 2569
3.25999999418855 2394
3.27999999374151 2212
3.29999999329448 2061
3.31999999284744 1855
3.33999999240041 1797
3.35999999195337 1643
3.37999999150634 1672
3.3999999910593 1552
3.41999999061227 1517
3.43999999016523 1514
3.4599999897182 1448
3.47999998927116 1427
3.49999998882413 1419
3.51999998837709 1387
3.53999998793006 1405
3.55999998748302 1394
3.57999998703599 1358
3.59999998658895 1381
3.61999998614192 1342
3.63999998569489 1327
3.65999998524785 1293
3.67999998480082 1259
3.69999998435378 1314
3.71999998390675 1317
3.73999998345971 1226
3.75999998301268 1271
3.77999998256564 1238
3.79999998211861 1213
3.81999998167157 1279
3.83999998122454 1273
3.8599999807775 1193
3.87999998033047 1275
3.89999997988343 1241
3.9199999794364 1152
3.93999997898936 1288
3.95999997854233 1337
3.97999997809529 1269
3.99999997764826 1252
4.01999997720122 1280
4.03999997675419 1272
4.05999997630715 1234
4.07999997586012 1313
4.09999997541308 1274
4.11999997496605 1234
4.13999997451901 1197
4.15999997407198 1157
4.17999997362494 1150
4.19999997317791 1089
4.21999997273087 1131
4.23999997228384 1063
4.25999997183681 1022
4.27999997138977 1015
4.29999997094274 986
4.3199999704957 975
4.33999997004867 955
4.35999996960163 944
4.3799999691546 936
4.39999996870756 982
4.41999996826053 928
4.43999996781349 925
4.45999996736646 894
4.47999996691942 986
4.49999996647239 906
4.51999996602535 923
4.53999996557832 909
4.55999996513128 944
4.57999996468425 857
4.59999996423721 882
4.61999996379018 877
4.63999996334314 893
4.65999996289611 878
4.67999996244907 900
4.69999996200204 904
4.719999961555 877
4.73999996110797 890
4.75999996066093 892
4.7799999602139 856
4.79999995976686 911
4.81999995931983 876
4.83999995887279 859
4.85999995842576 944
4.87999995797873 969
4.89999995753169 919
4.91999995708466 994
4.93999995663762 961
4.95999995619059 934
4.97999995574355 963
4.99999995529652 990
5.01999995484948 949
5.03999995440245 985
5.05999995395541 995
5.07999995350838 1048
5.09999995306134 1077
5.11999995261431 1147
5.13999995216727 1129
5.15999995172024 1081
5.1799999512732 1166
5.19999995082617 1238
5.21999995037913 1265
5.2399999499321 1324
5.25999994948506 1323
5.27999994903803 1438
5.29999994859099 1450
5.31999994814396 1604
5.33999994769692 1719
5.35999994724989 1759
5.37999994680285 1906
5.39999994635582 2103
5.41999994590878 2284
5.43999994546175 2531
5.45999994501471 2501
5.47999994456768 2320
5.49999994412065 2076
5.51999994367361 1926
5.53999994322658 1819
5.55999994277954 1815
5.57999994233251 1848
5.59999994188547 1889
5.61999994143844 2024
5.6399999409914 2081
5.65999994054437 2227
5.67999994009733 2274
5.6999999396503 2430
5.71999993920326 2605
5.73999993875623 2750
5.75999993830919 3079
5.77999993786216 3350
5.79999993741512 3449
5.81999993696809 3288
5.83999993652105 2819
5.85999993607402 2232
5.87999993562698 1762
5.89999993517995 1411
5.91999993473291 1217
5.93999993428588 1008
5.95999993383884 949
5.97999993339181 889
5.99999993294477 880
6.01999993249774 842
6.0399999320507 787
6.05999993160367 759
6.07999993115663 809
6.0999999307096 801
6.11999993026257 700
6.13999992981553 766
6.1599999293685 744
6.17999992892146 790
6.19999992847443 761
6.21999992802739 802
6.23999992758036 723
6.25999992713332 713
6.27999992668629 725
6.29999992623925 750
6.31999992579222 712
6.33999992534518 690
6.35999992489815 677
6.37999992445111 679
6.39999992400408 702
6.41999992355704 716
6.43999992311001 732
6.45999992266297 717
6.47999992221594 743
6.4999999217689 735
6.51999992132187 755
6.53999992087483 740
6.5599999204278 729
6.57999991998076 760
6.59999991953373 782
6.61999991908669 786
6.63999991863966 785
6.65999991819262 804
6.67999991774559 790
6.69999991729855 855
6.71999991685152 828
6.73999991640449 858
6.75999991595745 864
6.77999991551042 906
6.79999991506338 805
6.81999991461635 886
6.83999991416931 786
6.85999991372228 815
6.87999991327524 765
6.89999991282821 750
6.91999991238117 701
6.93999991193414 708
6.9599999114871 676
6.97999991104007 710
6.99999991059303 679
7.019999910146 672
7.03999990969896 651
7.05999990925193 675
7.07999990880489 713
7.09999990835786 697
7.11999990791082 637
7.13999990746379 642
7.15999990701675 667
7.17999990656972 643
7.19999990612268 644
7.21999990567565 648
7.23999990522861 643
7.25999990478158 636
7.27999990433454 661
7.29999990388751 633
7.31999990344047 640
7.33999990299344 603
7.35999990254641 637
7.37999990209937 662
7.39999990165234 646
7.4199999012053 625
7.43999990075827 684
7.45999990031123 641
7.4799998998642 640
7.49999989941716 657
7.51999989897013 645
7.53999989852309 610
7.55999989807606 617
7.57999989762902 652
7.59999989718199 660
7.61999989673495 613
7.63999989628792 629
7.65999989584088 632
7.67999989539385 669
7.69999989494681 660
7.71999989449978 641
7.73999989405274 667
7.75999989360571 635
7.77999989315867 695
7.79999989271164 667
7.8199998922646 615
7.83999989181757 642
7.85999989137053 604
7.8799998909235 625
7.89999989047646 683
7.91999989002943 680
7.9399998895824 657
7.95999988913536 674
7.97999988868833 659
7.99999988824129 686
8.01999988779426 673
8.03999988734722 674
8.05999988690019 665
8.07999988645315 699
8.09999988600612 713
8.11999988555908 698
8.13999988511205 692
8.15999988466501 710
8.17999988421798 711
8.19999988377094 655
8.21999988332391 669
8.23999988287687 657
8.25999988242984 671
8.2799998819828 680
8.29999988153577 686
8.31999988108873 644
8.3399998806417 659
8.35999988019466 678
8.37999987974763 649
8.39999987930059 638
8.41999987885356 658
8.43999987840652 643
8.45999987795949 694
8.47999987751245 660
8.49999987706542 615
8.51999987661839 622
8.53999987617135 665
8.55999987572432 630
8.57999987527728 642
8.59999987483025 653
8.61999987438321 611
8.63999987393618 656
8.65999987348914 671
8.67999987304211 674
8.69999987259507 632
8.71999987214804 662
8.739999871701 629
8.75999987125397 634
8.77999987080693 666
8.7999998703599 646
8.81999986991286 694
8.83999986946583 669
8.85999986901879 650
8.87999986857176 678
8.89999986812472 656
8.91999986767769 717
8.93999986723065 662
8.95999986678362 726
8.97999986633658 730
8.99999986588955 680
9.01999986544251 732
9.03999986499548 743
9.05999986454844 705
9.07999986410141 743
9.09999986365438 795
9.11999986320734 801
9.13999986276031 783
9.15999986231327 832
9.17999986186624 859
9.1999998614192 932
9.21999986097217 934
9.23999986052513 1045
9.2599998600781 1002
9.27999985963106 1187
9.29999985918403 1236
9.31999985873699 1337
9.33999985828996 1526
9.35999985784292 1678
9.37999985739589 1626
9.39999985694885 1305
9.41999985650182 1117
9.43999985605478 904
9.45999985560775 811
9.47999985516071 732
9.49999985471368 751
9.51999985426664 709
9.53999985381961 699
9.55999985337257 736
9.57999985292554 709
9.5999998524785 735
9.61999985203147 648
9.63999985158443 693
9.6599998511374 642
9.67999985069037 674
9.69999985024333 645
9.7199998497963 695
9.73999984934926 666
9.75999984890223 668
9.77999984845519 729
9.79999984800816 748
9.81999984756112 686
9.83999984711409 680
9.85999984666705 672
9.87999984622002 746
9.89999984577298 708
9.91999984532595 704
9.93999984487891 698
9.95999984443188 714
9.97999984398484 695
9.99999984353781 697
10.0199998430908 766
10.0399998426437 725
10.0599998421967 772
10.0799998417497 748
10.0999998413026 766
10.1199998408556 748
10.1399998404086 860
10.1599998399615 872
10.1799998395145 864
10.1999998390675 884
10.2199998386204 887
10.2399998381734 799
10.2599998377264 801
10.2799998372793 743
10.2999998368323 740
10.3199998363853 727
10.3399998359382 669
10.3599998354912 659
10.3799998350441 724
10.3999998345971 704
10.4199998341501 692
10.439999833703 725
10.459999833256 725
10.479999832809 683
10.4999998323619 671
10.5199998319149 679
10.5399998314679 753
10.5599998310208 703
10.5799998305738 698
10.5999998301268 686
10.6199998296797 717
10.6399998292327 754
10.6599998287857 793
10.6799998283386 821
10.6999998278916 780
10.7199998274446 826
10.7399998269975 864
10.7599998265505 922
10.7799998261034 952
10.7999998256564 981
10.8199998252094 1035
10.8399998247623 926
10.8599998243153 1029
10.8799998238683 934
10.8999998234212 995
10.9199998229742 1044
10.9399998225272 1108
10.9599998220801 1098
10.9799998216331 1237
10.9999998211861 1157
11.019999820739 1102
11.039999820292 926
11.059999819845 876
11.0799998193979 853
11.0999998189509 758
11.1199998185039 742
11.1399998180568 702
11.1599998176098 771
11.1799998171628 700
11.1999998167157 731
11.2199998162687 750
11.2399998158216 739
11.2599998153746 736
11.2799998149276 697
11.2999998144805 725
11.3199998140335 729
11.3399998135865 739
11.3599998131394 704
11.3799998126924 769
11.3999998122454 800
11.4199998117983 759
11.4399998113513 781
11.4599998109043 831
11.4799998104572 816
11.4999998100102 839
11.5199998095632 825
11.5399998091161 860
11.5599998086691 869
11.5799998082221 824
11.599999807775 846
11.619999807328 798
11.639999806881 734
11.6599998064339 739
11.6799998059869 708
11.6999998055398 745
11.7199998050928 741
11.7399998046458 708
11.7599998041987 725
11.7799998037517 709
11.7999998033047 688
11.8199998028576 689
11.8399998024106 698
11.8599998019636 697
11.8799998015165 740
11.8999998010695 723
11.9199998006225 728
11.9399998001754 712
11.9599997997284 797
11.9799997992814 760
11.9999997988343 731
12.0199997983873 713
12.0399997979403 713
12.0599997974932 726
12.0799997970462 743
12.0999997965992 713
12.1199997961521 761
12.1399997957051 733
12.159999795258 826
12.179999794811 780
12.199999794364 816
12.2199997939169 818
12.2399997934699 769
12.2599997930229 773
12.2799997925758 790
12.2999997921288 847
12.3199997916818 811
12.3399997912347 743
12.3599997907877 828
12.3799997903407 757
12.3999997898936 805
12.4199997894466 778
12.4399997889996 739
12.4599997885525 733
12.4799997881055 782
12.4999997876585 786
12.5199997872114 747
12.5399997867644 717
12.5599997863173 792
12.5799997858703 742
12.5999997854233 772
12.6199997849762 736
12.6399997845292 720
12.6599997840822 703
12.6799997836351 751
12.6999997831881 722
12.7199997827411 734
12.739999782294 683
12.759999781847 733
12.7799997814 704
12.7999997809529 800
12.8199997805059 756
12.8399997800589 718
12.8599997796118 723
12.8799997791648 717
12.8999997787178 737
12.9199997782707 748
12.9399997778237 772
12.9599997773767 755
12.9799997769296 729
12.9999997764826 806
13.0199997760355 773
13.0399997755885 750
13.0599997751415 773
13.0799997746944 794
13.0999997742474 741
13.1199997738004 778
13.1399997733533 741
13.1599997729063 751
13.1799997724593 758
13.1999997720122 755
13.2199997715652 770
13.2399997711182 839
13.2599997706711 844
13.2799997702241 825
13.2999997697771 922
13.31999976933 812
13.339999768883 815
13.359999768436 852
13.3799997679889 837
13.3999997675419 850
13.4199997670949 860
13.4399997666478 839
13.4599997662008 827
13.4799997657537 837
13.4999997653067 827
13.5199997648597 815
13.5399997644126 805
13.5599997639656 821
13.5799997635186 823
13.5999997630715 778
13.6199997626245 831
13.6399997621775 792
13.6599997617304 802
13.6799997612834 863
13.6999997608364 832
13.7199997603893 822
13.7399997599423 823
13.7599997594953 784
13.7799997590482 820
13.7999997586012 843
13.8199997581542 860
13.8399997577071 849
13.8599997572601 802
13.879999756813 805
13.899999756366 795
13.919999755919 827
13.9399997554719 873
13.9599997550249 878
13.9799997545779 811
13.9999997541308 826
14.0199997536838 815
14.0399997532368 842
14.0599997527897 808
14.0799997523427 892
14.0999997518957 889
14.1199997514486 805
14.1399997510016 925
14.1599997505546 914
14.1799997501075 878
14.1999997496605 852
14.2199997492135 907
14.2399997487664 907
14.2599997483194 899
14.2799997478724 866
14.2999997474253 923
14.3199997469783 915
14.3399997465312 835
14.3599997460842 884
14.3799997456372 934
14.3999997451901 914
14.4199997447431 956
14.4399997442961 954
14.459999743849 871
14.479999743402 939
14.499999742955 904
14.5199997425079 842
14.5399997420609 882
14.5599997416139 871
14.5799997411668 906
14.5999997407198 941
14.6199997402728 907
14.6399997398257 925
14.6599997393787 959
14.6799997389317 962
14.6999997384846 921
14.7199997380376 960
14.7399997375906 928
14.7599997371435 981
14.7799997366965 974
14.7999997362494 919
14.8199997358024 1040
14.8399997353554 985
14.8599997349083 972
14.8799997344613 1015
14.8999997340143 977
14.9199997335672 972
14.9399997331202 997
14.9599997326732 989
14.9799997322261 930
14.9999997317791 979
15.0199997313321 927
15.039999730885 1024
15.059999730438 981
15.079999729991 932
15.0999997295439 957
15.1199997290969 965
15.1399997286499 964
15.1599997282028 977
15.1799997277558 982
15.1999997273088 1032
15.2199997268617 988
15.2399997264147 999
15.2599997259676 1023
15.2799997255206 1081
15.2999997250736 1028
15.3199997246265 1012
15.3399997241795 1097
15.3599997237325 1027
15.3799997232854 1036
15.3999997228384 973
15.4199997223914 1026
15.4399997219443 1001
15.4599997214973 959
15.4799997210503 1009
15.4999997206032 1032
15.5199997201562 1014
15.5399997197092 1030
15.5599997192621 1016
15.5799997188151 943
15.5999997183681 1049
15.619999717921 1030
15.639999717474 1033
15.659999717027 999
15.6799997165799 1020
15.6999997161329 1054
15.7199997156858 1079
15.7399997152388 1069
15.7599997147918 1058
15.7799997143447 1111
15.7999997138977 1038
15.8199997134507 1045
15.8399997130036 1048
15.8599997125566 1099
15.8799997121096 1081
15.8999997116625 1116
15.9199997112155 1134
15.9399997107685 1067
15.9599997103214 1135
15.9799997098744 1106
15.9999997094274 1127
16.0199997089803 1091
16.0399997085333 1146
16.0599997080863 1146
16.0799997076392 1140
16.0999997071922 1111
16.1199997067451 1103
16.1399997062981 1120
16.1599997058511 1104
16.179999705404 1152
16.199999704957 1130
16.21999970451 1094
16.2399997040629 1157
16.2599997036159 1162
16.2799997031689 1238
16.2999997027218 1228
16.3199997022748 1204
16.3399997018278 1252
16.3599997013807 1206
16.3799997009337 1166
16.3999997004867 1230
16.4199997000396 1193
16.4399996995926 1198
16.4599996991456 1184
16.4799996986985 1173
16.4999996982515 1182
16.5199996978045 1285
16.5399996973574 1222
16.5599996969104 1194
16.5799996964633 1321
16.5999996960163 1246
16.6199996955693 1271
16.6399996951222 1298
16.6599996946752 1363
16.6799996942282 1262
16.6999996937811 1271
16.7199996933341 1337
16.7399996928871 1312
16.75999969244 1364
16.779999691993 1293
16.799999691546 1347
16.8199996910989 1370
16.8399996906519 1376
16.8599996902049 1478
16.8799996897578 1462
16.8999996893108 1447
16.9199996888638 1493
16.9399996884167 1694
16.9599996879697 1791
16.9799996875226 2065
16.9999996870756 2164
17.0199996866286 2213
17.0399996861815 2218
17.0599996857345 1998
17.0799996852875 1731
17.0999996848404 1591
17.1199996843934 1383
17.1399996839464 1356
17.1599996834993 1435
17.1799996830523 1372
17.1999996826053 1358
17.2199996821582 1379
17.2399996817112 1385
17.2599996812642 1405
17.2799996808171 1362
17.2999996803701 1395
17.3199996799231 1444
17.339999679476 1409
17.359999679029 1381
17.379999678582 1448
17.3999996781349 1411
17.4199996776879 1363
17.4399996772408 1399
17.4599996767938 1414
17.4799996763468 1459
17.4999996758997 1443
17.5199996754527 1411
17.5399996750057 1431
17.5599996745586 1430
17.5799996741116 1437
17.5999996736646 1376
17.6199996732175 1433
17.6399996727705 1447
17.6599996723235 1506
17.6799996718764 1438
17.6999996714294 1447
17.7199996709824 1439
17.7399996705353 1388
17.7599996700883 1455
17.7799996696413 1446
17.7999996691942 1432
17.8199996687472 1486
17.8399996683002 1542
17.8599996678531 1565
17.8799996674061 1464
17.899999666959 1449
17.919999666512 1521
17.939999666065 1494
17.9599996656179 1510
17.9799996651709 1581
17.9999996647239 1549
18.0199996642768 1569
18.0399996638298 1523
18.0599996633828 1562
18.0799996629357 1538
18.0999996624887 1634
18.1199996620417 1530
18.1399996615946 1549
18.1599996611476 1553
18.1799996607006 1542
18.1999996602535 1552
18.2199996598065 1450
18.2399996593595 1611
18.2599996589124 1590
18.2799996584654 1553
18.2999996580184 1634
18.3199996575713 1622
18.3399996571243 1584
18.3599996566772 1606
18.3799996562302 1546
18.3999996557832 1656
18.4199996553361 1631
18.4399996548891 1710
18.4599996544421 1625
18.479999653995 1639
18.499999653548 1599
18.519999653101 1754
18.5399996526539 1657
18.5599996522069 1613
18.5799996517599 1588
18.5999996513128 1603
18.6199996508658 1660
18.6399996504188 1738
18.6599996499717 1784
18.6799996495247 1771
18.6999996490777 1715
18.7199996486306 1777
18.7399996481836 1741
18.7599996477366 1738
18.7799996472895 1753
18.7999996468425 1795
18.8199996463954 1811
18.8399996459484 1768
18.8599996455014 1748
18.8799996450543 1777
18.8999996446073 1799
18.9199996441603 1783
18.9399996437132 1831
18.9599996432662 1806
18.9799996428192 1849
18.9999996423721 1882
19.0199996419251 1842
19.0399996414781 1814
19.059999641031 1891
19.079999640584 1961
19.099999640137 1971
19.1199996396899 1992
19.1399996392429 2026
19.1599996387959 2013
19.1799996383488 1917
19.1999996379018 1878
19.2199996374547 1861
19.2399996370077 1896
19.2599996365607 1861
19.2799996361136 1829
19.2999996356666 1876
19.3199996352196 1878
19.3399996347725 1820
19.3599996343255 1934
19.3799996338785 1894
19.3999996334314 1958
19.4199996329844 2032
19.4399996325374 1971
19.4599996320903 2035
19.4799996316433 2102
19.4999996311963 2172
19.5199996307492 2024
19.5399996303022 2124
19.5599996298552 2207
19.5799996294081 2165
19.5999996289611 2013
19.6199996285141 1989
19.639999628067 2033
19.65999962762 2024
19.6799996271729 1929
19.6999996267259 1946
19.7199996262789 1888
19.7399996258318 1897
19.7599996253848 1870
19.7799996249378 1874
19.7999996244907 1935
19.8199996240437 2002
19.8399996235967 1999
19.8599996231496 2007
19.8799996227026 2028
19.8999996222556 1967
19.9199996218085 2004
19.9399996213615 1988
19.9599996209145 2046
19.9799996204674 1943
19.9999996200204 1929
