3 6315
3.01999999955297 6068
3.03999999910593 5512
3.0599999986589 5177
3.07999999821186 4796
3.09999999776483 4595
3.11999999731779 4205
3.13999999687076 3825
3.15999999642372 3584
3.17999999597669 3412
3.19999999552965 3138
3.21999999508262 2884
3.23999999463558 2678
3.25999999418855 2496
3.27999999374151 2366
3.29999999329448 2082
3.31999999284744 1983
3.33999999240041 1840
3.35999999195337 1787
3.37999999150634 1681
3.3999999910593 1630
3.41999999061227 1629
3.43999999016523 1630
3.4599999897182 1640
3.47999998927116 1531
3.49999998882413 1531
3.51999998837709 1505
3.53999998793006 1463
3.55999998748302 1482
3.57999998703599 1480
3.59999998658895 1414
3.61999998614192 1421
3.63999998569489 1474
3.65999998524785 1440
3.67999998480082 1395
3.69999998435378 1390
3.71999998390675 1396
3.73999998345971 1406
3.75999998301268 1354
3.77999998256564 1398
3.79999998211861 1327
3.81999998167157 1389
3.83999998122454 1301
3.8599999807775 1374
3.87999998033047 1367
3.89999997988343 1383
3.9199999794364 1389
3.93999997898936 1314
3.95999997854233 1355
3.97999997809529 1415
3.99999997764826 1322
4.01999997720122 1374
4.03999997675419 1436
4.05999997630715 1431
4.07999997586012 1419
4.09999997541308 1429
4.11999997496605 1405
4.13999997451901 1350
4.15999997407198 1363
4.17999997362494 1273
4.19999997317791 1221
4.21999997273087 1205
4.23999997228384 1117
4.25999997183681 1052
4.27999997138977 1069
4.29999997094274 1061
4.3199999704957 1027
4.33999997004867 1015
4.35999996960163 996
4.3799999691546 952
4.39999996870756 926
4.41999996826053 933
4.43999996781349 970
4.45999996736646 965
4.47999996691942 948
4.49999996647239 930
4.51999996602535 870
4.53999996557832 892
4.55999996513128 931
4.57999996468425 892
4.59999996423721 878
4.61999996379018 914
4.63999996334314 886
4.65999996289611 865
4.67999996244907 901
4.69999996200204 847
4.719999961555 868
4.73999996110797 920
4.75999996066093 913
4.7799999602139 901
4.79999995976686 881
4.81999995931983 887
4.83999995887279 898
4.85999995842576 922
4.87999995797873 867
4.89999995753169 898
4.91999995708466 921
4.93999995663762 966
4.95999995619059 931
4.97999995574355 956
4.99999995529652 896
5.01999995484948 938
5.03999995440245 943
5.05999995395541 980
5.07999995350838 1001
5.09999995306134 1045
5.11999995261431 987
5.13999995216727 1020
5.15999995172024 1058
5.1799999512732 1134
5.19999995082617 1144
5.21999995037913 1142
5.2399999499321 1204
5.25999994948506 1269
5.27999994903803 1330
5.29999994859099 1417
5.31999994814396 1435
5.33999994769692 1494
5.35999994724989 1632
5.37999994680285 1796
5.39999994635582 1942
5.41999994590878 2127
5.43999994546175 2268
5.45999994501471 2032
5.47999994456768 1797
5.49999994412065 1681
5.51999994367361 1672
5.53999994322658 1589
5.55999994277954 1683
5.57999994233251 1792
5.59999994188547 1782
5.61999994143844 1887
5.6399999409914 2033
5.65999994054437 2147
5.67999994009733 2378
5.6999999396503 2624
5.71999993920326 2864
5.73999993875623 3159
5.75999993830919 3595
5.77999993786216 4013
5.79999993741512 4097
5.81999993696809 3659
5.83999993652105 2841
5.85999993607402 2125
5.87999993562698 1553
5.89999993517995 1245
5.91999993473291 1132
5.93999993428588 944
5.95999993383884 926
5.97999993339181 830
5.99999993294477 781
6.01999993249774 793
6.0399999320507 798
6.05999993160367 767
6.07999993115663 788
6.0999999307096 726
6.11999993026257 719
6.13999992981553 747
6.1599999293685 716
6.17999992892146 720
6.19999992847443 723
6.21999992802739 665
6.23999992758036 719
6.25999992713332 762
6.27999992668629 729
6.29999992623925 732
6.31999992579222 713
6.33999992534518 734
6.35999992489815 725
6.37999992445111 723
6.39999992400408 728
6.41999992355704 693
6.43999992311001 708
6.45999992266297 730
6.47999992221594 722
6.4999999217689 726
6.51999992132187 677
6.53999992087483 729
6.5599999204278 736
6.57999991998076 772
6.59999991953373 814
6.61999991908669 776
6.63999991863966 784
6.65999991819262 765
6.67999991774559 796
6.69999991729855 827
6.71999991685152 905
6.73999991640449 932
6.75999991595745 947
6.77999991551042 897
6.79999991506338 931
6.81999991461635 878
6.83999991416931 784
6.85999991372228 747
6.87999991327524 758
6.89999991282821 687
6.91999991238117 636
6.93999991193414 692
6.9599999114871 657
6.97999991104007 639
6.99999991059303 668
7.019999910146 613
7.03999990969896 662
7.05999990925193 642
7.07999990880489 602
7.09999990835786 604
7.11999990791082 679
7.13999990746379 660
7.15999990701675 626
7.17999990656972 665
7.19999990612268 649
7.21999990567565 652
7.23999990522861 635
7.25999990478158 629
7.27999990433454 615
7.29999990388751 650
7.31999990344047 626
7.33999990299344 655
7.35999990254641 625
7.37999990209937 673
7.39999990165234 636
7.4199999012053 633
7.43999990075827 640
7.45999990031123 652
7.4799998998642 624
7.49999989941716 654
7.51999989897013 621
7.53999989852309 607
7.55999989807606 664
7.57999989762902 660
7.59999989718199 625
7.61999989673495 622
7.63999989628792 650
7.65999989584088 610
7.67999989539385 637
7.69999989494681 597
7.71999989449978 595
7.73999989405274 656
7.75999989360571 626
7.77999989315867 660
7.79999989271164 627
7.8199998922646 652
7.83999989181757 658
7.85999989137053 632
7.8799998909235 652
7.89999989047646 682
7.91999989002943 668
7.9399998895824 596
7.95999988913536 626
7.97999988868833 675
7.99999988824129 640
8.01999988779426 688
8.03999988734722 683
8.05999988690019 682
8.07999988645315 639
8.09999988600612 703
8.11999988555908 660
8.13999988511205 699
8.15999988466501 635
8.17999988421798 714
8.19999988377094 639
8.21999988332391 640
8.23999988287687 650
8.25999988242984 652
8.2799998819828 641
8.29999988153577 670
8.31999988108873 629
8.3399998806417 619
8.35999988019466 603
8.37999987974763 623
8.39999987930059 629
8.41999987885356 614
8.43999987840652 628
8.45999987795949 611
8.47999987751245 633
8.49999987706542 693
8.51999987661839 627
8.53999987617135 598
8.55999987572432 598
8.57999987527728 603
8.59999987483025 598
8.61999987438321 640
8.63999987393618 631
8.65999987348914 622
8.67999987304211 657
8.69999987259507 592
8.71999987214804 630
8.739999871701 665
8.75999987125397 628
8.77999987080693 605
8.7999998703599 634
8.81999986991286 630
8.83999986946583 666
8.85999986901879 601
8.87999986857176 661
8.89999986812472 679
8.91999986767769 658
8.93999986723065 648
8.95999986678362 652
8.97999986633658 622
8.99999986588955 712
9.01999986544251 677
9.03999986499548 671
9.05999986454844 705
9.07999986410141 706
9.09999986365438 739
9.11999986320734 767
9.13999986276031 811
9.15999986231327 767
9.17999986186624 864
9.1999998614192 880
9.21999986097217 900
9.23999986052513 969
9.2599998600781 990
9.27999985963106 1076
9.29999985918403 1188
9.31999985873699 1405
9.33999985828996 1568
9.35999985784292 1596
9.37999985739589 1469
9.39999985694885 1192
9.41999985650182 996
9.43999985605478 852
9.45999985560775 739
9.47999985516071 681
9.49999985471368 665
9.51999985426664 702
9.53999985381961 692
9.55999985337257 644
9.57999985292554 683
9.5999998524785 651
9.61999985203147 655
9.63999985158443 654
9.6599998511374 642
9.67999985069037 657
9.69999985024333 702
9.7199998497963 710
9.73999984934926 645
9.75999984890223 704
9.77999984845519 670
9.79999984800816 679
9.81999984756112 688
9.83999984711409 686
9.85999984666705 691
9.87999984622002 639
9.89999984577298 644
9.91999984532595 713
9.93999984487891 708
9.95999984443188 677
9.97999984398484 663
9.99999984353781 689
10.0199998430908 701
10.0399998426437 715
10.0599998421967 805
10.0799998417497 750
10.0999998413026 804
10.1199998408556 841
10.1399998404086 836
10.1599998399615 872
10.1799998395145 940
10.1999998390675 938
10.2199998386204 923
10.2399998381734 881
10.2599998377264 794
10.2799998372793 759
10.2999998368323 726
10.3199998363853 688
10.3399998359382 662
10.3599998354912 709
10.3799998350441 668
10.3999998345971 686
10.4199998341501 680
10.439999833703 701
10.459999833256 703
10.479999832809 624
10.4999998323619 671
10.5199998319149 678
10.5399998314679 689
10.5599998310208 667
10.5799998305738 693
10.5999998301268 690
10.6199998296797 746
10.6399998292327 719
10.6599998287857 726
10.6799998283386 780
10.6999998278916 752
10.7199998274446 804
10.7399998269975 795
10.7599998265505 847
10.7799998261034 979
10.7999998256564 914
10.8199998252094 986
10.8399998247623 926
10.8599998243153 915
10.8799998238683 945
10.8999998234212 969
10.9199998229742 1030
10.9399998225272 1062
10.9599998220801 1154
10.9799998216331 1264
10.9999998211861 1134
11.019999820739 1090
11.039999820292 907
11.059999819845 806
11.0799998193979 703
11.0999998189509 698
11.1199998185039 679
11.1399998180568 731
11.1599998176098 653
11.1799998171628 722
11.1999998167157 691
11.2199998162687 713
11.2399998158216 717
11.2599998153746 668
11.2799998149276 689
11.2999998144805 697
11.3199998140335 758
11.3399998135865 677
11.3599998131394 728
11.3799998126924 754
11.3999998122454 775
11.4199998117983 766
11.4399998113513 820
11.4599998109043 845
11.4799998104572 860
11.4999998100102 865
11.5199998095632 938
11.5399998091161 933
11.5599998086691 884
11.5799998082221 820
11.599999807775 831
11.619999807328 743
11.639999806881 790
11.6599998064339 734
11.6799998059869 753
11.6999998055398 759
11.7199998050928 705
11.7399998046458 668
11.7599998041987 684
11.7799998037517 678
11.7999998033047 719
11.8199998028576 681
11.8399998024106 706
11.8599998019636 665
11.8799998015165 733
11.8999998010695 717
11.9199998006225 693
11.9399998001754 676
11.9599997997284 735
11.9799997992814 677
11.9999997988343 680
12.0199997983873 689
12.0399997979403 701
12.0599997974932 753
12.0799997970462 737
12.0999997965992 692
12.1199997961521 738
12.1399997957051 788
12.159999795258 774
12.179999794811 779
12.199999794364 851
12.2199997939169 806
12.2399997934699 782
12.2599997930229 826
12.2799997925758 808
12.2999997921288 811
12.3199997916818 734
12.3399997912347 717
12.3599997907877 743
12.3799997903407 729
12.3999997898936 739
12.4199997894466 735
12.4399997889996 721
12.4599997885525 700
12.4799997881055 729
12.4999997876585 742
12.5199997872114 736
12.5399997867644 708
12.5599997863173 714
12.5799997858703 743
12.5999997854233 743
12.6199997849762 699
12.6399997845292 717
12.6599997840822 746
12.6799997836351 726
12.6999997831881 721
12.7199997827411 706
12.739999782294 673
12.759999781847 685
12.7799997814 696
12.7999997809529 709
12.8199997805059 735
12.8399997800589 690
12.8599997796118 712
12.8799997791648 714
12.8999997787178 730
12.9199997782707 736
12.9399997778237 742
12.9599997773767 735
12.9799997769296 734
12.9999997764826 714
13.0199997760355 718
13.0399997755885 755
13.0599997751415 735
13.0799997746944 711
13.0999997742474 712
13.1199997738004 738
13.1399997733533 732
13.1599997729063 704
13.1799997724593 735
13.1999997720122 741
13.2199997715652 787
13.2399997711182 763
13.2599997706711 769
13.2799997702241 756
13.2999997697771 792
13.31999976933 784
13.339999768883 834
13.359999768436 779
13.3799997679889 799
13.3999997675419 755
13.4199997670949 755
13.4399997666478 801
13.4599997662008 797
13.4799997657537 783
13.4999997653067 793
13.5199997648597 783
13.5399997644126 751
13.5599997639656 813
13.5799997635186 755
13.5999997630715 798
13.6199997626245 737
13.6399997621775 746
13.6599997617304 731
13.6799997612834 760
13.6999997608364 767
13.7199997603893 775
13.7399997599423 785
13.7599997594953 760
13.7799997590482 728
13.7999997586012 756
13.8199997581542 765
13.8399997577071 734
13.8599997572601 731
13.879999756813 776
13.899999756366 771
13.919999755919 734
13.9399997554719 768
13.9599997550249 791
13.9799997545779 776
13.9999997541308 799
14.0199997536838 733
14.0399997532368 778
14.0599997527897 825
14.0799997523427 791
14.0999997518957 762
14.1199997514486 768
14.1399997510016 810
14.1599997505546 814
14.1799997501075 831
14.1999997496605 796
14.2199997492135 817
14.2399997487664 850
14.2599997483194 825
14.2799997478724 847
14.2999997474253 831
14.3199997469783 826
14.3399997465312 850
14.3599997460842 869
14.3799997456372 833
14.3999997451901 854
14.4199997447431 891
14.4399997442961 832
14.459999743849 799
14.479999743402 862
14.499999742955 846
14.5199997425079 844
14.5399997420609 805
14.5599997416139 791
14.5799997411668 822
14.5999997407198 792
14.6199997402728 844
14.6399997398257 825
14.6599997393787 790
14.6799997389317 817
14.6999997384846 874
14.7199997380376 874
14.7399997375906 849
14.7599997371435 882
14.7799997366965 920
14.7999997362494 901
14.8199997358024 911
14.8399997353554 934
14.8599997349083 880
14.8799997344613 878
14.8999997340143 878
14.9199997335672 826
14.9399997331202 830
14.9599997326732 838
14.9799997322261 866
14.9999997317791 885
15.0199997313321 853
15.039999730885 886
15.059999730438 847
15.079999729991 887
15.0999997295439 870
15.1199997290969 836
15.1399997286499 878
15.1599997282028 863
15.1799997277558 835
15.1999997273088 887
15.2199997268617 923
15.2399997264147 967
15.2599997259676 913
15.2799997255206 880
15.2999997250736 939
15.3199997246265 932
15.3399997241795 860
15.3599997237325 874
15.3799997232854 907
15.3999997228384 885
15.4199997223914 914
15.4399997219443 880
15.4599997214973 915
15.4799997210503 881
15.4999997206032 944
15.5199997201562 878
15.5399997197092 890
15.5599997192621 876
15.5799997188151 901
15.5999997183681 893
15.619999717921 911
15.639999717474 973
15.659999717027 869
15.6799997165799 929
15.6999997161329 878
15.7199997156858 976
15.7399997152388 900
15.7599997147918 874
15.7799997143447 908
15.7999997138977 928
15.8199997134507 935
15.8399997130036 910
15.8599997125566 952
15.8799997121096 904
15.8999997116625 915
15.9199997112155 946
15.9399997107685 946
15.9599997103214 914
15.9799997098744 976
15.9999997094274 914
16.0199997089803 945
16.0399997085333 964
16.0599997080863 949
16.0799997076392 954
16.0999997071922 904
16.1199997067451 934
16.1399997062981 977
16.1599997058511 975
16.179999705404 1009
16.199999704957 953
16.21999970451 1014
16.2399997040629 1056
16.2599997036159 1045
16.2799997031689 1015
16.2999997027218 994
16.3199997022748 1040
16.3399997018278 982
16.3599997013807 992
16.3799997009337 990
16.3999997004867 1018
16.4199997000396 1026
16.4399996995926 982
16.4599996991456 1020
16.4799996986985 1031
16.4999996982515 1021
16.5199996978045 1014
16.5399996973574 993
16.5599996969104 1040
16.5799996964633 955
16.5999996960163 978
16.6199996955693 1068
16.6399996951222 1028
16.6599996946752 991
16.6799996942282 1005
16.6999996937811 1043
16.7199996933341 993
16.7399996928871 1079
16.75999969244 1037
16.779999691993 1053
16.799999691546 1025
16.8199996910989 1008
16.8399996906519 1051
16.8599996902049 1078
16.8799996897578 1146
16.8999996893108 1157
16.9199996888638 1174
16.9399996884167 1230
16.9599996879697 1308
16.9799996875226 1338
16.9999996870756 1235
17.0199996866286 1239
17.0399996861815 1198
17.0599996857345 1095
17.0799996852875 1084
17.0999996848404 1104
17.1199996843934 1085
17.1399996839464 1044
17.1599996834993 1096
17.1799996830523 1074
17.1999996826053 1094
17.2199996821582 1092
17.2399996817112 1123
17.2599996812642 1066
17.2799996808171 1140
17.2999996803701 1125
17.3199996799231 1094
17.339999679476 1124
17.359999679029 1108
17.379999678582 1120
17.3999996781349 1066
17.4199996776879 1122
17.4399996772408 1109
17.4599996767938 1154
17.4799996763468 1089
17.4999996758997 1106
17.5199996754527 1128
17.5399996750057 1090
17.5599996745586 1080
17.5799996741116 1149
17.5999996736646 1085
17.6199996732175 1106
17.6399996727705 1166
17.6599996723235 1122
17.6799996718764 1153
17.6999996714294 1119
17.7199996709824 1157
17.7399996705353 1143
17.7599996700883 1169
17.7799996696413 1149
17.7999996691942 1194
17.8199996687472 1202
17.8399996683002 1209
17.8599996678531 1169
17.8799996674061 1183
17.899999666959 1237
17.919999666512 1235
17.939999666065 1153
17.9599996656179 1190
17.9799996651709 1180
17.9999996647239 1195
18.0199996642768 1185
18.0399996638298 1184
18.0599996633828 1120
18.0799996629357 1244
18.0999996624887 1131
18.1199996620417 1203
18.1399996615946 1221
18.1599996611476 1178
18.1799996607006 1163
18.1999996602535 1247
18.2199996598065 1205
18.2399996593595 1179
18.2599996589124 1197
18.2799996584654 1224
18.2999996580184 1265
18.3199996575713 1244
18.3399996571243 1286
18.3599996566772 1205
18.3799996562302 1273
18.3999996557832 1166
18.4199996553361 1283
18.4399996548891 1278
18.4599996544421 1230
18.479999653995 1204
18.499999653548 1194
18.519999653101 1241
18.5399996526539 1224
18.5599996522069 1234
18.5799996517599 1240
18.5999996513128 1259
18.6199996508658 1278
18.6399996504188 1259
18.6599996499717 1355
18.6799996495247 1341
18.6999996490777 1326
18.7199996486306 1359
18.7399996481836 1312
18.7599996477366 1323
18.7799996472895 1351
18.7999996468425 1365
18.8199996463954 1366
18.8399996459484 1304
18.8599996455014 1359
18.8799996450543 1396
18.8999996446073 1360
18.9199996441603 1347
18.9399996437132 1351
18.9599996432662 1321
18.9799996428192 1315
18.9999996423721 1335
19.0199996419251 1345
19.0399996414781 1356
19.059999641031 1346
19.079999640584 1439
19.099999640137 1447
19.1199996396899 1446
19.1399996392429 1514
19.1599996387959 1506
19.1799996383488 1506
19.1999996379018 1470
19.2199996374547 1373
19.2399996370077 1358
19.2599996365607 1359
19.2799996361136 1377
19.2999996356666 1377
19.3199996352196 1407
19.3399996347725 1476
19.3599996343255 1413
19.3799996338785 1494
19.3999996334314 1447
19.4199996329844 1482
19.4399996325374 1495
19.4599996320903 1462
19.4799996316433 1506
19.4999996311963 1464
19.5199996307492 1516
19.5399996303022 1546
19.5599996298552 1701
19.5799996294081 1563
19.5999996289611 1575
19.6199996285141 1518
19.639999628067 1451
19.65999962762 1425
19.6799996271729 1495
19.6999996267259 1395
19.7199996262789 1403
19.7399996258318 1396
19.7599996253848 1413
19.7799996249378 1404
19.7999996244907 1379
19.8199996240437 1440
19.8399996235967 1518
19.8599996231496 1475
19.8799996227026 1460
19.8999996222556 1521
19.9199996218085 1498
19.9399996213615 1475
19.9599996209145 1440
19.9799996204674 1418
19.9999996200204 1471
