3 5891
3.01999999955297 5541
3.03999999910593 5292
3.0599999986589 4863
3.07999999821186 4464
3.09999999776483 4138
3.11999999731779 3844
3.13999999687076 3644
3.15999999642372 3230
3.17999999597669 3127
3.19999999552965 2826
3.21999999508262 2633
3.23999999463558 2445
3.25999999418855 2265
3.27999999374151 2068
3.29999999329448 1951
3.31999999284744 1648
3.33999999240041 1536
3.35999999195337 1483
3.37999999150634 1510
3.3999999910593 1431
3.41999999061227 1417
3.43999999016523 1388
3.4599999897182 1394
3.47999998927116 1403
3.49999998882413 1293
3.51999998837709 1376
3.53999998793006 1294
3.55999998748302 1320
3.57999998703599 1261
3.59999998658895 1293
3.61999998614192 1291
3.63999998569489 1215
3.65999998524785 1224
3.67999998480082 1248
3.69999998435378 1283
3.71999998390675 1271
3.73999998345971 1270
3.75999998301268 1292
3.77999998256564 1287
3.79999998211861 1206
3.81999998167157 1178
3.83999998122454 1242
3.8599999807775 1186
3.87999998033047 1258
3.89999997988343 1309
3.9199999794364 1272
3.93999997898936 1282
3.95999997854233 1274
3.97999997809529 1262
3.99999997764826 1240
4.01999997720122 1283
4.03999997675419 1355
4.05999997630715 1263
4.07999997586012 1278
4.09999997541308 1305
4.11999997496605 1281
4.13999997451901 1250
4.15999997407198 1260
4.17999997362494 1239
4.19999997317791 1159
4.21999997273087 1146
4.23999997228384 1184
4.25999997183681 1130
4.27999997138977 1116
4.29999997094274 1152
4.3199999704957 1121
4.33999997004867 1079
4.35999996960163 1004
4.3799999691546 1079
4.39999996870756 1077
4.41999996826053 1105
4.43999996781349 1072
4.45999996736646 994
4.47999996691942 1052
4.49999996647239 999
4.51999996602535 1074
4.53999996557832 1075
4.55999996513128 1008
4.57999996468425 1032
4.59999996423721 1067
4.61999996379018 1042
4.63999996334314 1038
4.65999996289611 1113
4.67999996244907 1017
4.69999996200204 1078
4.719999961555 1052
4.73999996110797 1065
4.75999996066093 1052
4.7799999602139 1157
4.79999995976686 1142
4.81999995931983 1150
4.83999995887279 1133
4.85999995842576 1146
4.87999995797873 1148
4.89999995753169 1181
4.91999995708466 1158
4.93999995663762 1115
4.95999995619059 1219
4.97999995574355 1282
4.99999995529652 1192
5.01999995484948 1267
5.03999995440245 1272
5.05999995395541 1311
5.07999995350838 1376
5.09999995306134 1375
5.11999995261431 1397
5.13999995216727 1473
5.15999995172024 1487
5.1799999512732 1587
5.19999995082617 1660
5.21999995037913 1770
5.2399999499321 1812
5.25999994948506 1893
5.27999994903803 1954
5.29999994859099 2188
5.31999994814396 2221
5.33999994769692 2411
5.35999994724989 2605
5.37999994680285 2920
5.39999994635582 3199
5.41999994590878 3630
5.43999994546175 3952
5.45999994501471 3920
5.47999994456768 3279
5.49999994412065 2713
5.51999994367361 2316
5.53999994322658 2189
5.55999994277954 2160
5.57999994233251 1989
5.59999994188547 2097
5.61999994143844 2187
5.6399999409914 2249
5.65999994054437 2276
5.67999994009733 2433
5.6999999396503 2561
5.71999993920326 2710
5.73999993875623 2757
5.75999993830919 3065
5.77999993786216 3359
5.79999993741512 3453
5.81999993696809 3265
5.83999993652105 2642
5.85999993607402 2205
5.87999993562698 1769
5.89999993517995 1398
5.91999993473291 1235
5.93999993428588 1157
5.95999993383884 1007
5.97999993339181 984
5.99999993294477 1009
6.01999993249774 925
6.0399999320507 908
6.05999993160367 926
6.07999993115663 865
6.0999999307096 914
6.11999993026257 863
6.13999992981553 870
6.1599999293685 874
6.17999992892146 862
6.19999992847443 841
6.21999992802739 848
6.23999992758036 831
6.25999992713332 835
6.27999992668629 848
6.29999992623925 809
6.31999992579222 833
6.33999992534518 877
6.35999992489815 837
6.37999992445111 825
6.39999992400408 797
6.41999992355704 759
6.43999992311001 772
6.45999992266297 812
6.47999992221594 820
6.4999999217689 865
6.51999992132187 812
6.53999992087483 852
6.5599999204278 802
6.57999991998076 873
6.59999991953373 846
6.61999991908669 841
6.63999991863966 860
6.65999991819262 893
6.67999991774559 877
6.69999991729855 933
6.71999991685152 941
6.73999991640449 907
6.75999991595745 960
6.77999991551042 978
6.79999991506338 937
6.81999991461635 942
6.83999991416931 944
6.85999991372228 843
6.87999991327524 815
6.89999991282821 794
6.91999991238117 764
6.93999991193414 779
6.9599999114871 784
6.97999991104007 779
6.99999991059303 763
7.019999910146 720
7.03999990969896 760
7.05999990925193 756
7.07999990880489 764
7.09999990835786 735
7.11999990791082 744
7.13999990746379 762
7.15999990701675 720
7.17999990656972 753
7.19999990612268 748
7.21999990567565 721
7.23999990522861 753
7.25999990478158 786
7.27999990433454 764
7.29999990388751 731
7.31999990344047 715
7.33999990299344 777
7.35999990254641 691
7.37999990209937 748
7.39999990165234 713
7.4199999012053 720
7.43999990075827 746
7.45999990031123 701
7.4799998998642 725
7.49999989941716 713
7.51999989897013 696
7.53999989852309 726
7.55999989807606 702
7.57999989762902 711
7.59999989718199 721
7.61999989673495 686
7.63999989628792 713
7.65999989584088 705
7.67999989539385 743
7.69999989494681 719
7.71999989449978 763
7.73999989405274 718
7.75999989360571 718
7.77999989315867 736
7.79999989271164 729
7.8199998922646 674
7.83999989181757 770
7.85999989137053 743
7.8799998909235 749
7.89999989047646 734
7.91999989002943 761
7.9399998895824 705
7.95999988913536 701
7.97999988868833 762
7.99999988824129 730
8.01999988779426 724
8.03999988734722 757
8.05999988690019 742
8.07999988645315 742
8.09999988600612 757
8.11999988555908 704
8.13999988511205 755
8.15999988466501 755
8.17999988421798 741
8.19999988377094 750
8.21999988332391 734
8.23999988287687 727
8.25999988242984 747
8.2799998819828 716
8.29999988153577 759
8.31999988108873 734
8.3399998806417 743
8.35999988019466 714
8.37999987974763 719
8.39999987930059 765
8.41999987885356 720
8.43999987840652 751
8.45999987795949 740
8.47999987751245 730
8.49999987706542 769
8.51999987661839 742
8.53999987617135 743
8.55999987572432 728
8.57999987527728 740
8.59999987483025 715
8.61999987438321 738
8.63999987393618 753
8.65999987348914 817
8.67999987304211 711
8.69999987259507 759
8.71999987214804 752
8.739999871701 776
8.75999987125397 732
8.77999987080693 782
8.7999998703599 786
8.81999986991286 723
8.83999986946583 799
8.85999986901879 716
8.87999986857176 762
8.89999986812472 758
8.91999986767769 799
8.93999986723065 798
8.95999986678362 773
8.97999986633658 833
8.99999986588955 847
9.01999986544251 776
9.03999986499548 832
9.05999986454844 897
9.07999986410141 887
9.09999986365438 875
9.11999986320734 922
9.13999986276031 986
9.15999986231327 953
9.17999986186624 1098
9.1999998614192 1137
9.21999986097217 1101
9.23999986052513 1226
9.2599998600781 1186
9.27999985963106 1424
9.29999985918403 1559
9.31999985873699 1726
9.33999985828996 1976
9.35999985784292 2114
9.37999985739589 1979
9.39999985694885 1568
9.41999985650182 1211
9.43999985605478 1056
9.45999985560775 951
9.47999985516071 840
9.49999985471368 844
9.51999985426664 852
9.53999985381961 823
9.55999985337257 786
9.57999985292554 806
9.5999998524785 814
9.61999985203147 792
9.63999985158443 851
9.6599998511374 777
9.67999985069037 777
9.69999985024333 783
9.7199998497963 796
9.73999984934926 815
9.75999984890223 834
9.77999984845519 822
9.79999984800816 782
9.81999984756112 822
9.83999984711409 770
9.85999984666705 810
9.87999984622002 801
9.89999984577298 842
9.91999984532595 848
9.93999984487891 815
9.95999984443188 774
9.97999984398484 829
9.99999984353781 797
10.0199998430908 815
10.0399998426437 842
10.0599998421967 864
10.0799998417497 884
10.0999998413026 816
10.1199998408556 870
10.1399998404086 934
10.1599998399615 932
10.1799998395145 1054
10.1999998390675 1002
10.2199998386204 1033
10.2399998381734 941
10.2599998377264 908
10.2799998372793 895
10.2999998368323 867
10.3199998363853 784
10.3399998359382 840
10.3599998354912 783
10.3799998350441 802
10.3999998345971 805
10.4199998341501 790
10.439999833703 820
10.459999833256 815
10.479999832809 810
10.4999998323619 836
10.5199998319149 816
10.5399998314679 845
10.5599998310208 877
10.5799998305738 824
10.5999998301268 895
10.6199998296797 885
10.6399998292327 875
10.6599998287857 921
10.6799998283386 973
10.6999998278916 1033
10.7199998274446 992
10.7399998269975 1087
10.7599998265505 1261
10.7799998261034 1304
10.7999998256564 1372
10.8199998252094 1319
10.8399998247623 1254
10.8599998243153 1150
10.8799998238683 1129
10.8999998234212 1150
10.9199998229742 1198
10.9399998225272 1161
10.9599998220801 1222
10.9799998216331 1265
10.9999998211861 1265
11.019999820739 1127
11.039999820292 1076
11.059999819845 1017
11.0799998193979 845
11.0999998189509 863
11.1199998185039 856
11.1399998180568 821
11.1599998176098 801
11.1799998171628 850
11.1999998167157 831
11.2199998162687 833
11.2399998158216 843
11.2599998153746 840
11.2799998149276 791
11.2999998144805 839
11.3199998140335 820
11.3399998135865 844
11.3599998131394 868
11.3799998126924 841
11.3999998122454 925
11.4199998117983 887
11.4399998113513 901
11.4599998109043 930
11.4799998104572 904
11.4999998100102 952
11.5199998095632 945
11.5399998091161 988
11.5599998086691 936
11.5799998082221 928
11.599999807775 912
11.619999807328 878
11.639999806881 871
11.6599998064339 850
11.6799998059869 845
11.6999998055398 845
11.7199998050928 844
11.7399998046458 840
11.7599998041987 820
11.7799998037517 800
11.7999998033047 821
11.8199998028576 817
11.8399998024106 827
11.8599998019636 827
11.8799998015165 823
11.8999998010695 806
11.9199998006225 818
11.9399998001754 823
11.9599997997284 776
11.9799997992814 785
11.9999997988343 855
12.0199997983873 854
12.0399997979403 829
12.0599997974932 809
12.0799997970462 857
12.0999997965992 866
12.1199997961521 924
12.1399997957051 889
12.159999795258 951
12.179999794811 919
12.199999794364 867
12.2199997939169 915
12.2399997934699 924
12.2599997930229 927
12.2799997925758 955
12.2999997921288 904
12.3199997916818 881
12.3399997912347 855
12.3599997907877 933
12.3799997903407 907
12.3999997898936 850
12.4199997894466 849
12.4399997889996 832
12.4599997885525 906
12.4799997881055 840
12.4999997876585 841
12.5199997872114 840
12.5399997867644 850
12.5599997863173 849
12.5799997858703 904
12.5999997854233 892
12.6199997849762 875
12.6399997845292 841
12.6599997840822 888
12.6799997836351 865
12.6999997831881 853
12.7199997827411 897
12.739999782294 853
12.759999781847 870
12.7799997814 882
12.7999997809529 867
12.8199997805059 882
12.8399997800589 912
12.8599997796118 899
12.8799997791648 851
12.8999997787178 880
12.9199997782707 879
12.9399997778237 883
12.9599997773767 864
12.9799997769296 856
12.9999997764826 900
13.0199997760355 890
13.0399997755885 886
13.0599997751415 876
13.0799997746944 887
13.0999997742474 878
13.1199997738004 948
13.1399997733533 928
13.1599997729063 898
13.1799997724593 874
13.1999997720122 946
13.2199997715652 928
13.2399997711182 887
13.2599997706711 897
13.2799997702241 907
13.2999997697771 939
13.31999976933 958
13.339999768883 949
13.359999768436 941
13.3799997679889 956
13.3999997675419 917
13.4199997670949 922
13.4399997666478 996
13.4599997662008 988
13.4799997657537 972
13.4999997653067 960
13.5199997648597 996
13.5399997644126 988
13.5599997639656 928
13.5799997635186 974
13.5999997630715 973
13.6199997626245 932
13.6399997621775 947
13.6599997617304 973
13.6799997612834 956
13.6999997608364 971
13.7199997603893 943
13.7399997599423 916
13.7599997594953 972
13.7799997590482 941
13.7999997586012 1004
13.8199997581542 949
13.8399997577071 985
13.8599997572601 959
13.879999756813 964
13.899999756366 994
13.919999755919 946
13.9399997554719 1009
13.9599997550249 952
13.9799997545779 931
13.9999997541308 981
14.0199997536838 984
14.0399997532368 1047
14.0599997527897 979
14.0799997523427 940
14.0999997518957 993
14.1199997514486 965
14.1399997510016 1032
14.1599997505546 1008
14.1799997501075 1032
14.1999997496605 1083
14.2199997492135 1077
14.2399997487664 1078
14.2599997483194 1090
14.2799997478724 1067
14.2999997474253 1153
14.3199997469783 1091
14.3399997465312 1073
14.3599997460842 1055
14.3799997456372 1078
14.3999997451901 1077
14.4199997447431 1054
14.4399997442961 1101
14.459999743849 1133
14.479999743402 1006
14.499999742955 1082
14.5199997425079 1037
14.5399997420609 1080
14.5599997416139 1079
14.5799997411668 1018
14.5999997407198 1003
14.6199997402728 1129
14.6399997398257 1020
14.6599997393787 1065
14.6799997389317 1081
14.6999997384846 1140
14.7199997380376 1107
14.7399997375906 1092
14.7599997371435 1089
14.7799997366965 1150
14.7999997362494 1146
14.8199997358024 1163
14.8399997353554 1103
14.8599997349083 1174
14.8799997344613 1153
14.8999997340143 1048
14.9199997335672 1101
14.9399997331202 1118
14.9599997326732 1204
14.9799997322261 1100
14.9999997317791 1068
15.0199997313321 1119
15.039999730885 1164
15.059999730438 1111
15.079999729991 1200
15.0999997295439 1146
15.1199997290969 1168
15.1399997286499 1134
15.1599997282028 1158
15.1799997277558 1154
15.1999997273088 1203
15.2199997268617 1120
15.2399997264147 1190
15.2599997259676 1172
15.2799997255206 1164
15.2999997250736 1189
15.3199997246265 1203
15.3399997241795 1147
15.3599997237325 1185
15.3799997232854 1130
15.3999997228384 1189
15.4199997223914 1179
15.4399997219443 1202
15.4599997214973 1197
15.4799997210503 1193
15.4999997206032 1195
15.5199997201562 1182
15.5399997197092 1192
15.5599997192621 1237
15.5799997188151 1185
15.5999997183681 1228
15.619999717921 1159
15.639999717474 1229
15.659999717027 1242
15.6799997165799 1103
15.6999997161329 1218
15.7199997156858 1209
15.7399997152388 1194
15.7599997147918 1219
15.7799997143447 1240
15.7999997138977 1240
15.8199997134507 1247
15.8399997130036 1254
15.8599997125566 1273
15.8799997121096 1286
15.8999997116625 1257
15.9199997112155 1311
15.9399997107685 1358
15.9599997103214 1256
15.9799997098744 1286
15.9999997094274 1270
16.0199997089803 1323
16.0399997085333 1297
16.0599997080863 1253
16.0799997076392 1228
16.0999997071922 1245
16.1199997067451 1363
16.1399997062981 1331
16.1599997058511 1362
16.179999705404 1358
16.199999704957 1361
16.21999970451 1315
16.2399997040629 1370
16.2599997036159 1330
16.2799997031689 1336
16.2999997027218 1380
16.3199997022748 1338
16.3399997018278 1395
16.3599997013807 1403
16.3799997009337 1425
16.3999997004867 1382
16.4199997000396 1439
16.4399996995926 1430
16.4599996991456 1416
16.4799996986985 1418
16.4999996982515 1366
16.5199996978045 1411
16.5399996973574 1424
16.5599996969104 1413
16.5799996964633 1398
16.5999996960163 1395
16.6199996955693 1441
16.6399996951222 1420
16.6599996946752 1408
16.6799996942282 1431
16.6999996937811 1391
16.7199996933341 1458
16.7399996928871 1441
16.75999969244 1464
16.779999691993 1493
16.799999691546 1430
16.8199996910989 1454
16.8399996906519 1479
16.8599996902049 1421
16.8799996897578 1439
16.8999996893108 1497
16.9199996888638 1476
16.9399996884167 1555
16.9599996879697 1475
16.9799996875226 1521
16.9999996870756 1514
17.0199996866286 1499
17.0399996861815 1517
17.0599996857345 1497
17.0799996852875 1573
17.0999996848404 1551
17.1199996843934 1512
17.1399996839464 1553
17.1599996834993 1598
17.1799996830523 1570
17.1999996826053 1519
17.2199996821582 1579
17.2399996817112 1613
17.2599996812642 1660
17.2799996808171 1612
17.2999996803701 1634
17.3199996799231 1624
17.339999679476 1650
17.359999679029 1642
17.379999678582 1618
17.3999996781349 1579
17.4199996776879 1658
17.4399996772408 1689
17.4599996767938 1659
17.4799996763468 1637
17.4999996758997 1660
17.5199996754527 1721
17.5399996750057 1681
17.5599996745586 1577
17.5799996741116 1634
17.5999996736646 1701
17.6199996732175 1679
17.6399996727705 1698
17.6599996723235 1671
17.6799996718764 1675
17.6999996714294 1699
17.7199996709824 1685
17.7399996705353 1742
17.7599996700883 1741
17.7799996696413 1651
17.7999996691942 1736
17.8199996687472 1704
17.8399996683002 1708
17.8599996678531 1722
17.8799996674061 1705
17.899999666959 1798
17.919999666512 1728
17.939999666065 1776
17.9599996656179 1699
17.9799996651709 1793
17.9999996647239 1782
18.0199996642768 1841
18.0399996638298 1742
18.0599996633828 1786
18.0799996629357 1781
18.0999996624887 1843
18.1199996620417 1858
18.1399996615946 1819
18.1599996611476 1779
18.1799996607006 1740
18.1999996602535 1753
18.2199996598065 1804
18.2399996593595 1832
18.2599996589124 1875
18.2799996584654 1834
18.2999996580184 1833
18.3199996575713 1789
18.3399996571243 1851
18.3599996566772 1807
18.3799996562302 1758
18.3999996557832 1872
18.4199996553361 1891
18.4399996548891 1840
18.4599996544421 1825
18.479999653995 1850
18.499999653548 1868
18.519999653101 1829
18.5399996526539 1927
18.5599996522069 1894
18.5799996517599 1967
18.5999996513128 1996
18.6199996508658 1997
18.6399996504188 1964
18.6599996499717 2055
18.6799996495247 2002
18.6999996490777 2023
18.7199996486306 2027
18.7399996481836 2029
18.7599996477366 1959
18.7799996472895 2016
18.7999996468425 2043
18.8199996463954 2075
18.8399996459484 2048
18.8599996455014 1979
18.8799996450543 2053
18.8999996446073 2015
18.9199996441603 2037
18.9399996437132 1984
18.9599996432662 2112
18.9799996428192 2102
18.9999996423721 2047
19.0199996419251 2152
19.0399996414781 2037
19.059999641031 2151
19.079999640584 2186
19.099999640137 2186
19.1199996396899 2268
19.1399996392429 2243
19.1599996387959 2195
19.1799996383488 2215
19.1999996379018 2135
19.2199996374547 2135
19.2399996370077 2126
19.2599996365607 2172
19.2799996361136 2208
19.2999996356666 2122
19.3199996352196 2207
19.3399996347725 2138
19.3599996343255 2188
19.3799996338785 2227
19.3999996334314 2253
19.4199996329844 2257
19.4399996325374 2289
19.4599996320903 2287
19.4799996316433 2366
19.4999996311963 2365
19.5199996307492 2327
19.5399996303022 2379
19.5599996298552 2422
19.5799996294081 2376
19.5999996289611 2388
19.6199996285141 2324
19.639999628067 2227
19.65999962762 2209
19.6799996271729 2199
19.6999996267259 2253
19.7199996262789 2186
19.7399996258318 2207
19.7599996253848 2194
19.7799996249378 2118
19.7999996244907 2173
19.8199996240437 2172
19.8399996235967 2224
19.8599996231496 2285
19.8799996227026 2258
19.8999996222556 2317
19.9199996218085 2225
19.9399996213615 2321
19.9599996209145 2267
19.9799996204674 2226
19.9999996200204 2250
