3 6686
3.01999999955297 6122
3.03999999910593 5918
3.0599999986589 5396
3.07999999821186 4962
3.09999999776483 4654
3.11999999731779 4372
3.13999999687076 4104
3.15999999642372 3854
3.17999999597669 3536
3.19999999552965 3301
3.21999999508262 3067
3.23999999463558 2839
3.25999999418855 2635
3.27999999374151 2451
3.29999999329448 2317
3.31999999284744 2176
3.33999999240041 1970
3.35999999195337 1876
3.37999999150634 1896
3.3999999910593 1772
3.41999999061227 1752
3.43999999016523 1655
3.4599999897182 1696
3.47999998927116 1706
3.49999998882413 1750
3.51999998837709 1678
3.53999998793006 1668
3.55999998748302 1554
3.57999998703599 1509
3.59999998658895 1606
3.61999998614192 1528
3.63999998569489 1577
3.65999998524785 1502
3.67999998480082 1528
3.69999998435378 1478
3.71999998390675 1463
3.73999998345971 1488
3.75999998301268 1359
3.77999998256564 1413
3.79999998211861 1459
3.81999998167157 1400
3.83999998122454 1404
3.8599999807775 1350
3.87999998033047 1413
3.89999997988343 1394
3.9199999794364 1368
3.93999997898936 1407
3.95999997854233 1364
3.97999997809529 1298
3.99999997764826 1296
4.01999997720122 1353
4.03999997675419 1393
4.05999997630715 1391
4.07999997586012 1386
4.09999997541308 1417
4.11999997496605 1432
4.13999997451901 1463
4.15999997407198 1415
4.17999997362494 1360
4.19999997317791 1235
4.21999997273087 1249
4.23999997228384 1149
4.25999997183681 1146
4.27999997138977 1125
4.29999997094274 1057
4.3199999704957 1082
4.33999997004867 1097
4.35999996960163 1098
4.3799999691546 1069
4.39999996870756 1008
4.41999996826053 1032
4.43999996781349 999
4.45999996736646 1030
4.47999996691942 1013
4.49999996647239 976
4.51999996602535 1015
4.53999996557832 996
4.55999996513128 974
4.57999996468425 989
4.59999996423721 1000
4.61999996379018 924
4.63999996334314 951
4.65999996289611 991
4.67999996244907 988
4.69999996200204 997
4.719999961555 948
4.73999996110797 935
4.75999996066093 919
4.7799999602139 940
4.79999995976686 1000
4.81999995931983 925
4.83999995887279 953
4.85999995842576 927
4.87999995797873 902
4.89999995753169 939
4.91999995708466 964
4.93999995663762 974
4.95999995619059 978
4.97999995574355 937
4.99999995529652 928
5.01999995484948 965
5.03999995440245 959
5.05999995395541 977
5.07999995350838 976
5.09999995306134 985
5.11999995261431 1013
5.13999995216727 1088
5.15999995172024 1000
5.1799999512732 1032
5.19999995082617 1022
5.21999995037913 1011
5.2399999499321 1044
5.25999994948506 1097
5.27999994903803 1117
5.29999994859099 1124
5.31999994814396 1172
5.33999994769692 1225
5.35999994724989 1276
5.37999994680285 1385
5.39999994635582 1479
5.41999994590878 1641
5.43999994546175 1717
5.45999994501471 1631
5.47999994456768 1389
5.49999994412065 1294
5.51999994367361 1226
5.53999994322658 1289
5.55999994277954 1302
5.57999994233251 1376
5.59999994188547 1434
5.61999994143844 1475
5.6399999409914 1582
5.65999994054437 1658
5.67999994009733 1758
5.6999999396503 1870
5.71999993920326 1999
5.73999993875623 2203
5.75999993830919 2539
5.77999993786216 3198
5.79999993741512 3574
5.81999993696809 3400
5.83999993652105 2474
5.85999993607402 1661
5.87999993562698 1358
5.89999993517995 1175
5.91999993473291 991
5.93999993428588 875
5.95999993383884 839
5.97999993339181 813
5.99999993294477 734
6.01999993249774 743
6.0399999320507 755
6.05999993160367 756
6.07999993115663 768
6.0999999307096 741
6.11999993026257 761
6.13999992981553 751
6.1599999293685 756
6.17999992892146 727
6.19999992847443 714
6.21999992802739 740
6.23999992758036 736
6.25999992713332 689
6.27999992668629 697
6.29999992623925 724
6.31999992579222 707
6.33999992534518 720
6.35999992489815 661
6.37999992445111 737
6.39999992400408 685
6.41999992355704 693
6.43999992311001 727
6.45999992266297 705
6.47999992221594 681
6.4999999217689 649
6.51999992132187 721
6.53999992087483 720
6.5599999204278 704
6.57999991998076 734
6.59999991953373 731
6.61999991908669 798
6.63999991863966 768
6.65999991819262 850
6.67999991774559 856
6.69999991729855 801
6.71999991685152 796
6.73999991640449 823
6.75999991595745 850
6.77999991551042 909
6.79999991506338 912
6.81999991461635 857
6.83999991416931 705
6.85999991372228 656
6.87999991327524 651
6.89999991282821 689
6.91999991238117 604
6.93999991193414 595
6.9599999114871 641
6.97999991104007 632
6.99999991059303 603
7.019999910146 625
7.03999990969896 634
7.05999990925193 627
7.07999990880489 658
7.09999990835786 605
7.11999990791082 629
7.13999990746379 612
7.15999990701675 611
7.17999990656972 615
7.19999990612268 603
7.21999990567565 599
7.23999990522861 608
7.25999990478158 576
7.27999990433454 571
7.29999990388751 596
7.31999990344047 583
7.33999990299344 605
7.35999990254641 604
7.37999990209937 610
7.39999990165234 581
7.4199999012053 619
7.43999990075827 597
7.45999990031123 630
7.4799998998642 593
7.49999989941716 587
7.51999989897013 607
7.53999989852309 580
7.55999989807606 603
7.57999989762902 564
7.59999989718199 564
7.61999989673495 565
7.63999989628792 617
7.65999989584088 566
7.67999989539385 597
7.69999989494681 560
7.71999989449978 550
7.73999989405274 543
7.75999989360571 593
7.77999989315867 551
7.79999989271164 580
7.8199998922646 561
7.83999989181757 578
7.85999989137053 622
7.8799998909235 578
7.89999989047646 593
7.91999989002943 571
7.9399998895824 534
7.95999988913536 603
7.97999988868833 606
7.99999988824129 584
8.01999988779426 609
8.03999988734722 551
8.05999988690019 563
8.07999988645315 597
8.09999988600612 552
8.11999988555908 635
8.13999988511205 595
8.15999988466501 597
8.17999988421798 581
8.19999988377094 598
8.21999988332391 632
8.23999988287687 560
8.25999988242984 534
8.2799998819828 587
8.29999988153577 599
8.31999988108873 558
8.3399998806417 525
8.35999988019466 542
8.37999987974763 578
8.39999987930059 571
8.41999987885356 557
8.43999987840652 551
8.45999987795949 577
8.47999987751245 587
8.49999987706542 571
8.51999987661839 554
8.53999987617135 553
8.55999987572432 560
8.57999987527728 534
8.59999987483025 570
8.61999987438321 580
8.63999987393618 555
8.65999987348914 497
8.67999987304211 571
8.69999987259507 604
8.71999987214804 567
8.739999871701 535
8.75999987125397 556
8.77999987080693 529
8.7999998703599 541
8.81999986991286 591
8.83999986946583 559
8.85999986901879 543
8.87999986857176 576
8.89999986812472 548
8.91999986767769 636
8.93999986723065 561
8.95999986678362 578
8.97999986633658 609
8.99999986588955 586
9.01999986544251 549
9.03999986499548 601
9.05999986454844 584
9.07999986410141 622
9.09999986365438 593
9.11999986320734 636
9.13999986276031 662
9.15999986231327 650
9.17999986186624 707
9.1999998614192 711
9.21999986097217 733
9.23999986052513 697
9.2599998600781 805
9.27999985963106 832
9.29999985918403 893
9.31999985873699 1062
9.33999985828996 1251
9.35999985784292 1413
9.37999985739589 1310
9.39999985694885 1038
9.41999985650182 787
9.43999985605478 705
9.45999985560775 629
9.47999985516071 608
9.49999985471368 615
9.51999985426664 561
9.53999985381961 562
9.55999985337257 558
9.57999985292554 548
9.5999998524785 549
9.61999985203147 560
9.63999985158443 564
9.6599998511374 538
9.67999985069037 570
9.69999985024333 547
9.7199998497963 536
9.73999984934926 575
9.75999984890223 566
9.77999984845519 612
9.79999984800816 549
9.81999984756112 535
9.83999984711409 560
9.85999984666705 573
9.87999984622002 558
9.89999984577298 509
9.91999984532595 559
9.93999984487891 559
9.95999984443188 566
9.97999984398484 552
9.99999984353781 579
10.0199998430908 614
10.0399998426437 580
10.0599998421967 610
10.0799998417497 599
10.0999998413026 616
10.1199998408556 661
10.1399998404086 676
10.1599998399615 690
10.1799998395145 682
10.1999998390675 784
10.2199998386204 774
10.2399998381734 726
10.2599998377264 649
10.2799998372793 669
10.2999998368323 593
10.3199998363853 545
10.3399998359382 568
10.3599998354912 556
10.3799998350441 562
10.3999998345971 571
10.4199998341501 516
10.439999833703 526
10.459999833256 515
10.479999832809 556
10.4999998323619 585
10.5199998319149 569
10.5399998314679 574
10.5599998310208 548
10.5799998305738 556
10.5999998301268 553
10.6199998296797 535
10.6399998292327 570
10.6599998287857 609
10.6799998283386 611
10.6999998278916 644
10.7199998274446 596
10.7399998269975 636
10.7599998265505 697
10.7799998261034 695
10.7999998256564 755
10.8199998252094 757
10.8399998247623 710
10.8599998243153 736
10.8799998238683 729
10.8999998234212 766
10.9199998229742 815
10.9399998225272 878
10.9599998220801 935
10.9799998216331 1091
10.9999998211861 1034
11.019999820739 989
11.039999820292 772
11.059999819845 676
11.0799998193979 601
11.0999998189509 568
11.1199998185039 587
11.1399998180568 522
11.1599998176098 532
11.1799998171628 573
11.1999998167157 551
11.2199998162687 500
11.2399998158216 565
11.2599998153746 597
11.2799998149276 575
11.2999998144805 605
11.3199998140335 582
11.3399998135865 606
11.3599998131394 656
11.3799998126924 581
11.3999998122454 620
11.4199998117983 617
11.4399998113513 629
11.4599998109043 650
11.4799998104572 743
11.4999998100102 742
11.5199998095632 747
11.5399998091161 760
11.5599998086691 723
11.5799998082221 725
11.599999807775 625
11.619999807328 579
11.639999806881 569
11.6599998064339 500
11.6799998059869 543
11.6999998055398 556
11.7199998050928 520
11.7399998046458 569
11.7599998041987 544
11.7799998037517 548
11.7999998033047 533
11.8199998028576 531
11.8399998024106 525
11.8599998019636 556
11.8799998015165 486
11.8999998010695 541
11.9199998006225 562
11.9399998001754 494
11.9599997997284 515
11.9799997992814 520
11.9999997988343 534
12.0199997983873 527
12.0399997979403 547
12.0599997974932 570
12.0799997970462 582
12.0999997965992 571
12.1199997961521 585
12.1399997957051 564
12.159999795258 626
12.179999794811 647
12.199999794364 656
12.2199997939169 637
12.2399997934699 677
12.2599997930229 597
12.2799997925758 602
12.2999997921288 593
12.3199997916818 551
12.3399997912347 574
12.3599997907877 557
12.3799997903407 555
12.3999997898936 550
12.4199997894466 544
12.4399997889996 553
12.4599997885525 564
12.4799997881055 557
12.4999997876585 564
12.5199997872114 585
12.5399997867644 571
12.5599997863173 529
12.5799997858703 547
12.5999997854233 557
12.6199997849762 526
12.6399997845292 552
12.6599997840822 556
12.6799997836351 498
12.6999997831881 541
12.7199997827411 547
12.739999782294 553
12.759999781847 516
12.7799997814 501
12.7999997809529 559
12.8199997805059 511
12.8399997800589 584
12.8599997796118 525
12.8799997791648 533
12.8999997787178 564
12.9199997782707 546
12.9399997778237 534
12.9599997773767 545
12.9799997769296 530
12.9999997764826 568
13.0199997760355 558
13.0399997755885 585
13.0599997751415 507
13.0799997746944 553
13.0999997742474 580
13.1199997738004 576
13.1399997733533 566
13.1599997729063 550
13.1799997724593 578
13.1999997720122 589
13.2199997715652 589
13.2399997711182 598
13.2599997706711 556
13.2799997702241 571
13.2999997697771 581
13.31999976933 598
13.339999768883 610
13.359999768436 601
13.3799997679889 607
13.3999997675419 596
13.4199997670949 593
13.4399997666478 564
13.4599997662008 595
13.4799997657537 559
13.4999997653067 561
13.5199997648597 609
13.5399997644126 614
13.5599997639656 607
13.5799997635186 583
13.5999997630715 591
13.6199997626245 553
13.6399997621775 568
13.6599997617304 586
13.6799997612834 591
13.6999997608364 543
13.7199997603893 606
13.7399997599423 583
13.7599997594953 545
13.7799997590482 550
13.7999997586012 588
13.8199997581542 573
13.8399997577071 576
13.8599997572601 549
13.879999756813 571
13.899999756366 563
13.919999755919 559
13.9399997554719 593
13.9599997550249 585
13.9799997545779 578
13.9999997541308 576
14.0199997536838 578
14.0399997532368 619
14.0599997527897 555
14.0799997523427 569
14.0999997518957 574
14.1199997514486 613
14.1399997510016 562
14.1599997505546 597
14.1799997501075 565
14.1999997496605 612
14.2199997492135 609
14.2399997487664 626
14.2599997483194 578
14.2799997478724 665
14.2999997474253 631
14.3199997469783 639
14.3399997465312 619
14.3599997460842 669
14.3799997456372 660
14.3999997451901 651
14.4199997447431 622
14.4399997442961 668
14.459999743849 668
14.479999743402 613
14.499999742955 612
14.5199997425079 584
14.5399997420609 578
14.5599997416139 619
14.5799997411668 622
14.5999997407198 560
14.6199997402728 668
14.6399997398257 580
14.6599997393787 610
14.6799997389317 607
14.6999997384846 618
14.7199997380376 645
14.7399997375906 630
14.7599997371435 604
14.7799997366965 650
14.7999997362494 654
14.8199997358024 674
14.8399997353554 744
14.8599997349083 723
14.8799997344613 660
14.8999997340143 665
14.9199997335672 593
14.9399997331202 618
14.9599997326732 617
14.9799997322261 609
14.9999997317791 638
15.0199997313321 644
15.039999730885 636
15.059999730438 651
15.079999729991 683
15.0999997295439 620
15.1199997290969 593
15.1399997286499 615
15.1599997282028 659
15.1799997277558 681
15.1999997273088 660
15.2199997268617 652
15.2399997264147 666
15.2599997259676 663
15.2799997255206 639
15.2999997250736 660
15.3199997246265 687
15.3399997241795 660
15.3599997237325 678
15.3799997232854 658
15.3999997228384 685
15.4199997223914 640
15.4399997219443 654
15.4599997214973 648
15.4799997210503 707
15.4999997206032 638
15.5199997201562 637
15.5399997197092 697
15.5599997192621 651
15.5799997188151 662
15.5999997183681 636
15.619999717921 671
15.639999717474 640
15.659999717027 623
15.6799997165799 660
15.6999997161329 676
15.7199997156858 646
15.7399997152388 658
15.7599997147918 709
15.7799997143447 673
15.7999997138977 690
15.8199997134507 698
15.8399997130036 668
15.8599997125566 696
15.8799997121096 705
15.8999997116625 629
15.9199997112155 708
15.9399997107685 730
15.9599997103214 683
15.9799997098744 697
15.9999997094274 719
16.0199997089803 691
16.0399997085333 737
16.0599997080863 704
16.0799997076392 709
16.0999997071922 724
16.1199997067451 703
16.1399997062981 706
16.1599997058511 755
16.179999705404 768
16.199999704957 748
16.21999970451 746
16.2399997040629 736
16.2599997036159 802
16.2799997031689 731
16.2999997027218 766
16.3199997022748 804
16.3399997018278 759
16.3599997013807 798
16.3799997009337 798
16.3999997004867 747
16.4199997000396 767
16.4399996995926 755
16.4599996991456 781
16.4799996986985 743
16.4999996982515 757
16.5199996978045 764
16.5399996973574 761
16.5599996969104 750
16.5799996964633 747
16.5999996960163 723
16.6199996955693 776
16.6399996951222 756
16.6599996946752 737
16.6799996942282 739
16.6999996937811 794
16.7199996933341 820
16.7399996928871 773
16.75999969244 785
16.779999691993 714
16.799999691546 819
16.8199996910989 787
16.8399996906519 812
16.8599996902049 833
16.8799996897578 840
16.8999996893108 843
16.9199996888638 891
16.9399996884167 875
16.9599996879697 951
16.9799996875226 989
16.9999996870756 1011
17.0199996866286 979
17.0399996861815 996
17.0599996857345 928
17.0799996852875 929
17.0999996848404 898
17.1199996843934 814
17.1399996839464 794
17.1599996834993 858
17.1799996830523 831
17.1999996826053 801
17.2199996821582 828
17.2399996817112 803
17.2599996812642 838
17.2799996808171 902
17.2999996803701 855
17.3199996799231 874
17.339999679476 864
17.359999679029 857
17.379999678582 863
17.3999996781349 877
17.4199996776879 838
17.4399996772408 829
17.4599996767938 877
17.4799996763468 807
17.4999996758997 817
17.5199996754527 898
17.5399996750057 920
17.5599996745586 884
17.5799996741116 858
17.5999996736646 894
17.6199996732175 858
17.6399996727705 861
17.6599996723235 851
17.6799996718764 888
17.6999996714294 905
17.7199996709824 910
17.7399996705353 899
17.7599996700883 924
17.7799996696413 903
17.7999996691942 869
17.8199996687472 905
17.8399996683002 874
17.8599996678531 923
17.8799996674061 873
17.899999666959 903
17.919999666512 937
17.939999666065 925
17.9599996656179 923
17.9799996651709 901
17.9999996647239 876
18.0199996642768 871
18.0399996638298 896
18.0599996633828 969
18.0799996629357 895
18.0999996624887 918
18.1199996620417 882
18.1399996615946 932
18.1599996611476 978
18.1799996607006 928
18.1999996602535 941
18.2199996598065 958
18.2399996593595 948
18.2599996589124 941
18.2799996584654 1000
18.2999996580184 965
18.3199996575713 968
18.3399996571243 910
18.3599996566772 943
18.3799996562302 1008
18.3999996557832 999
18.4199996553361 978
18.4399996548891 994
18.4599996544421 1036
18.479999653995 974
18.499999653548 992
18.519999653101 959
18.5399996526539 990
18.5599996522069 987
18.5799996517599 994
18.5999996513128 976
18.6199996508658 1050
18.6399996504188 1027
18.6599996499717 1027
18.6799996495247 1036
18.6999996490777 1051
18.7199996486306 1099
18.7399996481836 1055
18.7599996477366 1049
18.7799996472895 1103
18.7999996468425 1098
18.8199996463954 1137
18.8399996459484 1081
18.8599996455014 1094
18.8799996450543 1106
18.8999996446073 1041
18.9199996441603 1080
18.9399996437132 1053
18.9599996432662 960
18.9799996428192 987
18.9999996423721 1064
19.0199996419251 1083
19.0399996414781 1105
19.059999641031 1119
19.079999640584 1174
19.099999640137 1190
19.1199996396899 1305
19.1399996392429 1374
19.1599996387959 1293
19.1799996383488 1204
19.1999996379018 1251
19.2199996374547 1138
19.2399996370077 1150
19.2599996365607 1122
19.2799996361136 1127
19.2999996356666 1039
19.3199996352196 1123
19.3399996347725 1103
19.3599996343255 1095
19.3799996338785 1098
19.3999996334314 1147
19.4199996329844 1199
19.4399996325374 1167
19.4599996320903 1224
19.4799996316433 1258
19.4999996311963 1271
19.5199996307492 1266
19.5399996303022 1275
19.5599996298552 1276
19.5799996294081 1234
19.5999996289611 1338
19.6199996285141 1221
19.639999628067 1233
19.65999962762 1222
19.6799996271729 1232
19.6999996267259 1155
19.7199996262789 1145
19.7399996258318 1087
19.7599996253848 1155
19.7799996249378 1109
19.7999996244907 1198
19.8199996240437 1190
19.8399996235967 1163
19.8599996231496 1190
19.8799996227026 1250
19.8999996222556 1369
19.9199996218085 1341
19.9399996213615 1219
19.9599996209145 1188
19.9799996204674 1180
19.9999996200204 1203
