3 6005
3.01999999955297 5530
3.03999999910593 5062
3.0599999986589 4859
3.07999999821186 4338
3.09999999776483 3984
3.11999999731779 3743
3.13999999687076 3622
3.15999999642372 3218
3.17999999597669 2971
3.19999999552965 2823
3.21999999508262 2606
3.23999999463558 2307
3.25999999418855 2178
3.27999999374151 1997
3.29999999329448 1872
3.31999999284744 1688
3.33999999240041 1607
3.35999999195337 1483
3.37999999150634 1424
3.3999999910593 1429
3.41999999061227 1335
3.43999999016523 1308
3.4599999897182 1280
3.47999998927116 1361
3.49999998882413 1249
3.51999998837709 1233
3.53999998793006 1261
3.55999998748302 1206
3.57999998703599 1186
3.59999998658895 1169
3.61999998614192 1211
3.63999998569489 1183
3.65999998524785 1181
3.67999998480082 1149
3.69999998435378 1170
3.71999998390675 1117
3.73999998345971 1095
3.75999998301268 1153
3.77999998256564 1111
3.79999998211861 1116
3.81999998167157 1144
3.83999998122454 1135
3.8599999807775 1043
3.87999998033047 1082
3.89999997988343 1087
3.9199999794364 1095
3.93999997898936 1072
3.95999997854233 1052
3.97999997809529 1039
3.99999997764826 1058
4.01999997720122 1118
4.03999997675419 1065
4.05999997630715 1115
4.07999997586012 1052
4.09999997541308 1019
4.11999997496605 1062
4.13999997451901 1005
4.15999997407198 1021
4.17999997362494 962
4.19999997317791 942
4.21999997273087 984
4.23999997228384 972
4.25999997183681 996
4.27999997138977 875
4.29999997094274 916
4.3199999704957 917
4.33999997004867 983
4.35999996960163 885
4.3799999691546 882
4.39999996870756 922
4.41999996826053 900
4.43999996781349 891
4.45999996736646 885
4.47999996691942 837
4.49999996647239 892
4.51999996602535 864
4.53999996557832 822
4.55999996513128 807
4.57999996468425 844
4.59999996423721 843
4.61999996379018 819
4.63999996334314 797
4.65999996289611 820
4.67999996244907 794
4.69999996200204 816
4.719999961555 813
4.73999996110797 864
4.75999996066093 850
4.7799999602139 840
4.79999995976686 854
4.81999995931983 846
4.83999995887279 874
4.85999995842576 807
4.87999995797873 892
4.89999995753169 913
4.91999995708466 843
4.93999995663762 904
4.95999995619059 878
4.97999995574355 841
4.99999995529652 897
5.01999995484948 903
5.03999995440245 843
5.05999995395541 874
5.07999995350838 889
5.09999995306134 916
5.11999995261431 960
5.13999995216727 939
5.15999995172024 1010
5.1799999512732 1016
5.19999995082617 1060
5.21999995037913 1165
5.2399999499321 1112
5.25999994948506 1172
5.27999994903803 1211
5.29999994859099 1284
5.31999994814396 1303
5.33999994769692 1371
5.35999994724989 1532
5.37999994680285 1614
5.39999994635582 1850
5.41999994590878 1971
5.43999994546175 2211
5.45999994501471 2137
5.47999994456768 1744
5.49999994412065 1570
5.51999994367361 1410
5.53999994322658 1405
5.55999994277954 1375
5.57999994233251 1414
5.59999994188547 1389
5.61999994143844 1471
5.6399999409914 1516
5.65999994054437 1551
5.67999994009733 1633
5.6999999396503 1663
5.71999993920326 1779
5.73999993875623 1912
5.75999993830919 2006
5.77999993786216 2090
5.79999993741512 2087
5.81999993696809 1848
5.83999993652105 1585
5.85999993607402 1314
5.87999993562698 1105
5.89999993517995 960
5.91999993473291 871
5.93999993428588 854
5.95999993383884 827
5.97999993339181 796
5.99999993294477 814
6.01999993249774 764
6.0399999320507 836
6.05999993160367 759
6.07999993115663 750
6.0999999307096 770
6.11999993026257 714
6.13999992981553 788
6.1599999293685 721
6.17999992892146 728
6.19999992847443 745
6.21999992802739 765
6.23999992758036 759
6.25999992713332 729
6.27999992668629 729
6.29999992623925 770
6.31999992579222 728
6.33999992534518 750
6.35999992489815 813
6.37999992445111 732
6.39999992400408 744
6.41999992355704 774
6.43999992311001 781
6.45999992266297 750
6.47999992221594 740
6.4999999217689 748
6.51999992132187 748
6.53999992087483 761
6.5599999204278 750
6.57999991998076 756
6.59999991953373 800
6.61999991908669 787
6.63999991863966 764
6.65999991819262 793
6.67999991774559 799
6.69999991729855 781
6.71999991685152 797
6.73999991640449 802
6.75999991595745 864
6.77999991551042 818
6.79999991506338 800
6.81999991461635 769
6.83999991416931 766
6.85999991372228 795
6.87999991327524 724
6.89999991282821 702
6.91999991238117 707
6.93999991193414 713
6.9599999114871 698
6.97999991104007 760
6.99999991059303 696
7.019999910146 738
7.03999990969896 698
7.05999990925193 671
7.07999990880489 707
7.09999990835786 698
7.11999990791082 754
7.13999990746379 746
7.15999990701675 675
7.17999990656972 732
7.19999990612268 722
7.21999990567565 717
7.23999990522861 685
7.25999990478158 667
7.27999990433454 699
7.29999990388751 678
7.31999990344047 715
7.33999990299344 687
7.35999990254641 695
7.37999990209937 712
7.39999990165234 724
7.4199999012053 693
7.43999990075827 683
7.45999990031123 724
7.4799998998642 736
7.49999989941716 731
7.51999989897013 723
7.53999989852309 722
7.55999989807606 677
7.57999989762902 707
7.59999989718199 739
7.61999989673495 754
7.63999989628792 701
7.65999989584088 708
7.67999989539385 681
7.69999989494681 714
7.71999989449978 725
7.73999989405274 724
7.75999989360571 721
7.77999989315867 766
7.79999989271164 747
7.8199998922646 690
7.83999989181757 692
7.85999989137053 760
7.8799998909235 700
7.89999989047646 707
7.91999989002943 713
7.9399998895824 734
7.95999988913536 745
7.97999988868833 726
7.99999988824129 710
8.01999988779426 721
8.03999988734722 756
8.05999988690019 725
8.07999988645315 690
8.09999988600612 755
8.11999988555908 707
8.13999988511205 771
8.15999988466501 698
8.17999988421798 705
8.19999988377094 757
8.21999988332391 757
8.23999988287687 727
8.25999988242984 733
8.2799998819828 719
8.29999988153577 668
8.31999988108873 688
8.3399998806417 725
8.35999988019466 711
8.37999987974763 734
8.39999987930059 719
8.41999987885356 799
8.43999987840652 723
8.45999987795949 775
8.47999987751245 765
8.49999987706542 745
8.51999987661839 737
8.53999987617135 702
8.55999987572432 731
8.57999987527728 743
8.59999987483025 738
8.61999987438321 708
8.63999987393618 736
8.65999987348914 744
8.67999987304211 742
8.69999987259507 718
8.71999987214804 763
8.739999871701 735
8.75999987125397 744
8.77999987080693 726
8.7999998703599 794
8.81999986991286 779
8.83999986946583 765
8.85999986901879 728
8.87999986857176 755
8.89999986812472 736
8.91999986767769 727
8.93999986723065 723
8.95999986678362 766
8.97999986633658 773
8.99999986588955 785
9.01999986544251 777
9.03999986499548 789
9.05999986454844 810
9.07999986410141 815
9.09999986365438 821
9.11999986320734 862
9.13999986276031 793
9.15999986231327 900
9.17999986186624 889
9.1999998614192 885
9.21999986097217 929
9.23999986052513 940
9.2599998600781 1018
9.27999985963106 1066
9.29999985918403 1145
9.31999985873699 1297
9.33999985828996 1348
9.35999985784292 1490
9.37999985739589 1361
9.39999985694885 1161
9.41999985650182 919
9.43999985605478 867
9.45999985560775 849
9.47999985516071 782
9.49999985471368 776
9.51999985426664 768
9.53999985381961 795
9.55999985337257 835
9.57999985292554 767
9.5999998524785 764
9.61999985203147 782
9.63999985158443 751
9.6599998511374 812
9.67999985069037 832
9.69999985024333 756
9.7199998497963 740
9.73999984934926 765
9.75999984890223 812
9.77999984845519 774
9.79999984800816 789
9.81999984756112 777
9.83999984711409 803
9.85999984666705 798
9.87999984622002 731
9.89999984577298 763
9.91999984532595 755
9.93999984487891 843
9.95999984443188 783
9.97999984398484 829
9.99999984353781 801
10.0199998430908 828
10.0399998426437 832
10.0599998421967 775
10.0799998417497 849
10.0999998413026 844
10.1199998408556 855
10.1399998404086 859
10.1599998399615 843
10.1799998395145 936
10.1999998390675 910
10.2199998386204 945
10.2399998381734 864
10.2599998377264 849
10.2799998372793 775
10.2999998368323 785
10.3199998363853 775
10.3399998359382 798
10.3599998354912 803
10.3799998350441 793
10.3999998345971 732
10.4199998341501 754
10.439999833703 779
10.459999833256 839
10.479999832809 823
10.4999998323619 775
10.5199998319149 833
10.5399998314679 822
10.5599998310208 802
10.5799998305738 858
10.5999998301268 834
10.6199998296797 864
10.6399998292327 816
10.6599998287857 842
10.6799998283386 870
10.6999998278916 890
10.7199998274446 903
10.7399998269975 914
10.7599998265505 998
10.7799998261034 1058
10.7999998256564 1014
10.8199998252094 1021
10.8399998247623 984
10.8599998243153 986
10.8799998238683 1000
10.8999998234212 985
10.9199998229742 1029
10.9399998225272 1069
10.9599998220801 1071
10.9799998216331 1077
10.9999998211861 1057
11.019999820739 1012
11.039999820292 935
11.059999819845 831
11.0799998193979 815
11.0999998189509 847
11.1199998185039 830
11.1399998180568 829
11.1599998176098 786
11.1799998171628 814
11.1999998167157 841
11.2199998162687 809
11.2399998158216 814
11.2599998153746 873
11.2799998149276 846
11.2999998144805 818
11.3199998140335 832
11.3399998135865 845
11.3599998131394 796
11.3799998126924 863
11.3999998122454 855
11.4199998117983 854
11.4399998113513 896
11.4599998109043 887
11.4799998104572 859
11.4999998100102 911
11.5199998095632 880
11.5399998091161 886
11.5599998086691 852
11.5799998082221 868
11.599999807775 872
11.619999807328 841
11.639999806881 867
11.6599998064339 840
11.6799998059869 847
11.6999998055398 864
11.7199998050928 821
11.7399998046458 839
11.7599998041987 850
11.7799998037517 894
11.7999998033047 846
11.8199998028576 779
11.8399998024106 818
11.8599998019636 858
11.8799998015165 870
11.8999998010695 882
11.9199998006225 839
11.9399998001754 849
11.9599997997284 800
11.9799997992814 859
11.9999997988343 858
12.0199997983873 893
12.0399997979403 864
12.0599997974932 892
12.0799997970462 871
12.0999997965992 852
12.1199997961521 896
12.1399997957051 935
12.159999795258 853
12.179999794811 850
12.199999794364 958
12.2199997939169 841
12.2399997934699 899
12.2599997930229 933
12.2799997925758 926
12.2999997921288 904
12.3199997916818 903
12.3399997912347 909
12.3599997907877 904
12.3799997903407 887
12.3999997898936 848
12.4199997894466 909
12.4399997889996 973
12.4599997885525 929
12.4799997881055 877
12.4999997876585 867
12.5199997872114 850
12.5399997867644 937
12.5599997863173 916
12.5799997858703 819
12.5999997854233 908
12.6199997849762 901
12.6399997845292 844
12.6599997840822 900
12.6799997836351 885
12.6999997831881 938
12.7199997827411 929
12.739999782294 897
12.759999781847 907
12.7799997814 941
12.7999997809529 927
12.8199997805059 907
12.8399997800589 913
12.8599997796118 931
12.8799997791648 928
12.8999997787178 935
12.9199997782707 900
12.9399997778237 912
12.9599997773767 928
12.9799997769296 966
12.9999997764826 966
13.0199997760355 907
13.0399997755885 968
13.0599997751415 942
13.0799997746944 944
13.0999997742474 904
13.1199997738004 933
13.1399997733533 926
13.1599997729063 966
13.1799997724593 960
13.1999997720122 950
13.2199997715652 924
13.2399997711182 1003
13.2599997706711 884
13.2799997702241 905
13.2999997697771 898
13.31999976933 967
13.339999768883 1010
13.359999768436 1035
13.3799997679889 991
13.3999997675419 968
13.4199997670949 985
13.4399997666478 984
13.4599997662008 952
13.4799997657537 962
13.4999997653067 1039
13.5199997648597 1019
13.5399997644126 1010
13.5599997639656 989
13.5799997635186 986
13.5999997630715 1012
13.6199997626245 960
13.6399997621775 994
13.6599997617304 985
13.6799997612834 971
13.6999997608364 971
13.7199997603893 963
13.7399997599423 959
13.7599997594953 975
13.7799997590482 928
13.7999997586012 1067
13.8199997581542 1005
13.8399997577071 988
13.8599997572601 994
13.879999756813 1016
13.899999756366 1007
13.919999755919 1093
13.9399997554719 977
13.9599997550249 1070
13.9799997545779 984
13.9999997541308 1094
14.0199997536838 1072
14.0399997532368 1078
14.0599997527897 1061
14.0799997523427 1138
14.0999997518957 1075
14.1199997514486 1061
14.1399997510016 1043
14.1599997505546 1110
14.1799997501075 1041
14.1999997496605 1067
14.2199997492135 1075
14.2399997487664 1108
14.2599997483194 1078
14.2799997478724 1126
14.2999997474253 1072
14.3199997469783 1069
14.3399997465312 1107
14.3599997460842 1080
14.3799997456372 1167
14.3999997451901 1123
14.4199997447431 1155
14.4399997442961 1153
14.459999743849 1105
14.479999743402 1166
14.499999742955 1128
14.5199997425079 1170
14.5399997420609 1131
14.5599997416139 1120
14.5799997411668 1107
14.5999997407198 1179
14.6199997402728 1050
14.6399997398257 1078
14.6599997393787 1121
14.6799997389317 1146
14.6999997384846 1222
14.7199997380376 1159
14.7399997375906 1178
14.7599997371435 1235
14.7799997366965 1177
14.7999997362494 1171
14.8199997358024 1182
14.8399997353554 1220
14.8599997349083 1142
14.8799997344613 1150
14.8999997340143 1200
14.9199997335672 1183
14.9399997331202 1168
14.9599997326732 1125
14.9799997322261 1176
14.9999997317791 1194
15.0199997313321 1173
15.039999730885 1233
15.059999730438 1193
15.079999729991 1274
15.0999997295439 1249
15.1199997290969 1185
15.1399997286499 1201
15.1599997282028 1245
15.1799997277558 1223
15.1999997273088 1191
15.2199997268617 1257
15.2399997264147 1257
15.2599997259676 1243
15.2799997255206 1204
15.2999997250736 1216
15.3199997246265 1227
15.3399997241795 1269
15.3599997237325 1142
15.3799997232854 1250
15.3999997228384 1240
15.4199997223914 1282
15.4399997219443 1293
15.4599997214973 1244
15.4799997210503 1278
15.4999997206032 1281
15.5199997201562 1307
15.5399997197092 1320
15.5599997192621 1282
15.5799997188151 1332
15.5999997183681 1269
15.619999717921 1317
15.639999717474 1343
15.659999717027 1331
15.6799997165799 1344
15.6999997161329 1344
15.7199997156858 1267
15.7399997152388 1385
15.7599997147918 1409
15.7799997143447 1357
15.7999997138977 1348
15.8199997134507 1273
15.8399997130036 1360
15.8599997125566 1285
15.8799997121096 1287
15.8999997116625 1353
15.9199997112155 1397
15.9399997107685 1346
15.9599997103214 1357
15.9799997098744 1395
15.9999997094274 1365
16.0199997089803 1371
16.0399997085333 1369
16.0599997080863 1384
16.0799997076392 1388
16.0999997071922 1414
16.1199997067451 1473
16.1399997062981 1491
16.1599997058511 1475
16.179999705404 1454
16.199999704957 1507
16.21999970451 1515
16.2399997040629 1394
16.2599997036159 1442
16.2799997031689 1464
16.2999997027218 1454
16.3199997022748 1475
16.3399997018278 1481
16.3599997013807 1522
16.3799997009337 1510
16.3999997004867 1499
16.4199997000396 1469
16.4399996995926 1472
16.4599996991456 1521
16.4799996986985 1566
16.4999996982515 1512
16.5199996978045 1624
16.5399996973574 1641
16.5599996969104 1540
16.5799996964633 1562
16.5999996960163 1529
16.6199996955693 1546
16.6399996951222 1502
16.6599996946752 1505
16.6799996942282 1553
16.6999996937811 1561
16.7199996933341 1580
16.7399996928871 1624
16.75999969244 1577
16.779999691993 1595
16.799999691546 1599
16.8199996910989 1580
16.8399996906519 1645
16.8599996902049 1717
16.8799996897578 1643
16.8999996893108 1730
16.9199996888638 1733
16.9399996884167 1803
16.9599996879697 1921
16.9799996875226 1992
16.9999996870756 1995
17.0199996866286 1970
17.0399996861815 2100
17.0599996857345 2054
17.0799996852875 2018
17.0999996848404 1839
17.1199996843934 1837
17.1399996839464 1766
17.1599996834993 1732
17.1799996830523 1659
17.1999996826053 1711
17.2199996821582 1738
17.2399996817112 1728
17.2599996812642 1781
17.2799996808171 1747
17.2999996803701 1755
17.3199996799231 1802
17.339999679476 1724
17.359999679029 1796
17.379999678582 1815
17.3999996781349 1819
17.4199996776879 1831
17.4399996772408 1727
17.4599996767938 1822
17.4799996763468 1752
17.4999996758997 1789
17.5199996754527 1873
17.5399996750057 1847
17.5599996745586 1854
17.5799996741116 1827
17.5999996736646 1770
17.6199996732175 1840
17.6399996727705 1830
17.6599996723235 1842
17.6799996718764 1852
17.6999996714294 1934
17.7199996709824 1860
17.7399996705353 1932
17.7599996700883 1806
17.7799996696413 1917
17.7999996691942 1893
17.8199996687472 1960
17.8399996683002 1942
17.8599996678531 1878
17.8799996674061 1988
17.899999666959 1914
17.919999666512 1944
17.939999666065 1939
17.9599996656179 1999
17.9799996651709 1924
17.9999996647239 1949
18.0199996642768 1955
18.0399996638298 1975
18.0599996633828 2017
18.0799996629357 1990
18.0999996624887 2021
18.1199996620417 1952
18.1399996615946 1990
18.1599996611476 2031
18.1799996607006 2097
18.1999996602535 2098
18.2199996598065 2064
18.2399996593595 2007
18.2599996589124 2019
18.2799996584654 2063
18.2999996580184 2118
18.3199996575713 2004
18.3399996571243 2049
18.3599996566772 2004
18.3799996562302 2097
18.3999996557832 2094
18.4199996553361 2085
18.4399996548891 2105
18.4599996544421 2139
18.479999653995 2142
18.499999653548 2119
18.519999653101 2149
18.5399996526539 2220
18.5599996522069 2234
18.5799996517599 2190
18.5999996513128 2151
18.6199996508658 2166
18.6399996504188 2210
18.6599996499717 2212
18.6799996495247 2202
18.6999996490777 2208
18.7199996486306 2241
18.7399996481836 2229
18.7599996477366 2214
18.7799996472895 2255
18.7999996468425 2224
18.8199996463954 2261
18.8399996459484 2216
18.8599996455014 2328
18.8799996450543 2305
18.8999996446073 2284
18.9199996441603 2266
18.9399996437132 2247
18.9599996432662 2334
18.9799996428192 2238
18.9999996423721 2302
19.0199996419251 2337
19.0399996414781 2424
19.059999641031 2438
19.079999640584 2388
19.099999640137 2296
19.1199996396899 2434
19.1399996392429 2513
19.1599996387959 2403
19.1799996383488 2464
19.1999996379018 2453
19.2199996374547 2437
19.2399996370077 2447
19.2599996365607 2388
19.2799996361136 2365
19.2999996356666 2400
19.3199996352196 2454
19.3399996347725 2376
19.3599996343255 2446
19.3799996338785 2412
19.3999996334314 2454
19.4199996329844 2516
19.4399996325374 2552
19.4599996320903 2555
19.4799996316433 2530
19.4999996311963 2439
19.5199996307492 2610
19.5399996303022 2600
19.5599996298552 2638
19.5799996294081 2573
19.5999996289611 2585
19.6199996285141 2563
19.639999628067 2547
19.65999962762 2556
19.6799996271729 2511
19.6999996267259 2505
19.7199996262789 2458
19.7399996258318 2477
19.7599996253848 2567
19.7799996249378 2524
19.7999996244907 2598
19.8199996240437 2599
19.8399996235967 2474
19.8599996231496 2537
19.8799996227026 2570
19.8999996222556 2579
19.9199996218085 2579
19.9399996213615 2546
19.9599996209145 2568
19.9799996204674 2590
19.9999996200204 2560
