3 1646
3.01999999955297 1555
3.03999999910593 1544
3.0599999986589 1483
3.07999999821186 1404
3.09999999776483 1417
3.11999999731779 1356
3.13999999687076 1315
3.15999999642372 1331
3.17999999597669 1326
3.19999999552965 1332
3.21999999508262 1255
3.23999999463558 1279
3.25999999418855 1239
3.27999999374151 1230
3.29999999329448 1271
3.31999999284744 1233
3.33999999240041 1186
3.35999999195337 1261
3.37999999150634 1148
3.3999999910593 1223
3.41999999061227 1198
3.43999999016523 1102
3.4599999897182 1098
3.47999998927116 1129
3.49999998882413 1121
3.51999998837709 1091
3.53999998793006 1111
3.55999998748302 1075
3.57999998703599 1113
3.59999998658895 1075
3.61999998614192 1060
3.63999998569489 1066
3.65999998524785 1061
3.67999998480082 1053
3.69999998435378 1051
3.71999998390675 970
3.73999998345971 1061
3.75999998301268 1020
3.77999998256564 1022
3.79999998211861 1002
3.81999998167157 1097
3.83999998122454 1026
3.8599999807775 982
3.87999998033047 1075
3.89999997988343 1073
3.9199999794364 1026
3.93999997898936 1068
3.95999997854233 1042
3.97999997809529 997
3.99999997764826 1066
4.01999997720122 1042
4.03999997675419 1073
4.05999997630715 1038
4.07999997586012 1092
4.09999997541308 1037
4.11999997496605 1067
4.13999997451901 1064
4.15999997407198 1026
4.17999997362494 1046
4.19999997317791 1020
4.21999997273087 982
4.23999997228384 996
4.25999997183681 935
4.27999997138977 914
4.29999997094274 917
4.3199999704957 924
4.33999997004867 925
4.35999996960163 836
4.3799999691546 815
4.39999996870756 838
4.41999996826053 831
4.43999996781349 834
4.45999996736646 818
4.47999996691942 840
4.49999996647239 824
4.51999996602535 782
4.53999996557832 816
4.55999996513128 805
4.57999996468425 790
4.59999996423721 788
4.61999996379018 780
4.63999996334314 787
4.65999996289611 804
4.67999996244907 831
4.69999996200204 778
4.719999961555 751
4.73999996110797 782
4.75999996066093 818
4.7799999602139 808
4.79999995976686 781
4.81999995931983 801
4.83999995887279 846
4.85999995842576 834
4.87999995797873 847
4.89999995753169 792
4.91999995708466 811
4.93999995663762 861
4.95999995619059 805
4.97999995574355 820
4.99999995529652 897
5.01999995484948 858
5.03999995440245 895
5.05999995395541 955
5.07999995350838 908
5.09999995306134 923
5.11999995261431 950
5.13999995216727 1012
5.15999995172024 1067
5.1799999512732 1037
5.19999995082617 1070
5.21999995037913 1088
5.2399999499321 1131
5.25999994948506 1239
5.27999994903803 1247
5.29999994859099 1319
5.31999994814396 1322
5.33999994769692 1442
5.35999994724989 1497
5.37999994680285 1542
5.39999994635582 1705
5.41999994590878 1973
5.43999994546175 2170
5.45999994501471 2329
5.47999994456768 2454
5.49999994412065 2446
5.51999994367361 2120
5.53999994322658 1884
5.55999994277954 1786
5.57999994233251 1782
5.59999994188547 1745
5.61999994143844 1798
5.6399999409914 1838
5.65999994054437 1958
5.67999994009733 1937
5.6999999396503 2114
5.71999993920326 2272
5.73999993875623 2512
5.75999993830919 2708
5.77999993786216 2785
5.79999993741512 2969
5.81999993696809 3163
5.83999993652105 3070
5.85999993607402 2737
5.87999993562698 2280
5.89999993517995 1781
5.91999993473291 1465
5.93999993428588 1206
5.95999993383884 1042
5.97999993339181 906
5.99999993294477 900
6.01999993249774 858
6.0399999320507 809
6.05999993160367 806
6.07999993115663 729
6.0999999307096 739
6.11999993026257 740
6.13999992981553 704
6.1599999293685 707
6.17999992892146 701
6.19999992847443 683
6.21999992802739 706
6.23999992758036 691
6.25999992713332 653
6.27999992668629 678
6.29999992623925 674
6.31999992579222 656
6.33999992534518 612
6.35999992489815 658
6.37999992445111 648
6.39999992400408 669
6.41999992355704 697
6.43999992311001 632
6.45999992266297 611
6.47999992221594 643
6.4999999217689 704
6.51999992132187 670
6.53999992087483 652
6.5599999204278 669
6.57999991998076 719
6.59999991953373 690
6.61999991908669 691
6.63999991863966 669
6.65999991819262 708
6.67999991774559 736
6.69999991729855 731
6.71999991685152 810
6.73999991640449 741
6.75999991595745 726
6.77999991551042 757
6.79999991506338 751
6.81999991461635 790
6.83999991416931 755
6.85999991372228 753
6.87999991327524 719
6.89999991282821 708
6.91999991238117 697
6.93999991193414 622
6.9599999114871 624
6.97999991104007 600
6.99999991059303 626
7.019999910146 587
7.03999990969896 631
7.05999990925193 614
7.07999990880489 577
7.09999990835786 616
7.11999990791082 614
7.13999990746379 595
7.15999990701675 556
7.17999990656972 576
7.19999990612268 591
7.21999990567565 573
7.23999990522861 609
7.25999990478158 598
7.27999990433454 574
7.29999990388751 562
7.31999990344047 581
7.33999990299344 606
7.35999990254641 587
7.37999990209937 568
7.39999990165234 589
7.4199999012053 609
7.43999990075827 586
7.45999990031123 546
7.4799998998642 565
7.49999989941716 557
7.51999989897013 591
7.53999989852309 574
7.55999989807606 579
7.57999989762902 553
7.59999989718199 551
7.61999989673495 583
7.63999989628792 583
7.65999989584088 574
7.67999989539385 578
7.69999989494681 558
7.71999989449978 606
7.73999989405274 578
7.75999989360571 554
7.77999989315867 609
7.79999989271164 587
7.8199998922646 609
7.83999989181757 553
7.85999989137053 585
7.8799998909235 623
7.89999989047646 619
7.91999989002943 550
7.9399998895824 553
7.95999988913536 599
7.97999988868833 586
7.99999988824129 608
8.01999988779426 578
8.03999988734722 597
8.05999988690019 611
8.07999988645315 624
8.09999988600612 599
8.11999988555908 592
8.13999988511205 601
8.15999988466501 594
8.17999988421798 635
8.19999988377094 624
8.21999988332391 603
8.23999988287687 632
8.25999988242984 597
8.2799998819828 634
8.29999988153577 590
8.31999988108873 561
8.3399998806417 600
8.35999988019466 551
8.37999987974763 621
8.39999987930059 583
8.41999987885356 585
8.43999987840652 606
8.45999987795949 604
8.47999987751245 613
8.49999987706542 603
8.51999987661839 560
8.53999987617135 577
8.55999987572432 535
8.57999987527728 561
8.59999987483025 545
8.61999987438321 588
8.63999987393618 606
8.65999987348914 621
8.67999987304211 569
8.69999987259507 569
8.71999987214804 563
8.739999871701 605
8.75999987125397 598
8.77999987080693 577
8.7999998703599 579
8.81999986991286 581
8.83999986946583 598
8.85999986901879 563
8.87999986857176 587
8.89999986812472 593
8.91999986767769 632
8.93999986723065 592
8.95999986678362 643
8.97999986633658 609
8.99999986588955 621
9.01999986544251 635
9.03999986499548 629
9.05999986454844 646
9.07999986410141 654
9.09999986365438 651
9.11999986320734 731
9.13999986276031 752
9.15999986231327 676
9.17999986186624 752
9.1999998614192 741
9.21999986097217 836
9.23999986052513 806
9.2599998600781 870
9.27999985963106 947
9.29999985918403 1035
9.31999985873699 1067
9.33999985828996 1198
9.35999985784292 1324
9.37999985739589 1533
9.39999985694885 1629
9.41999985650182 1441
9.43999985605478 1202
9.45999985560775 922
9.47999985516071 753
9.49999985471368 738
9.51999985426664 708
9.53999985381961 656
9.55999985337257 653
9.57999985292554 666
9.5999998524785 628
9.61999985203147 607
9.63999985158443 632
9.6599998511374 578
9.67999985069037 608
9.69999985024333 577
9.7199998497963 625
9.73999984934926 659
9.75999984890223 656
9.77999984845519 600
9.79999984800816 618
9.81999984756112 643
9.83999984711409 631
9.85999984666705 628
9.87999984622002 668
9.89999984577298 674
9.91999984532595 645
9.93999984487891 652
9.95999984443188 589
9.97999984398484 675
9.99999984353781 615
10.0199998430908 661
10.0399998426437 660
10.0599998421967 640
10.0799998417497 663
10.0999998413026 774
10.1199998408556 720
10.1399998404086 737
10.1599998399615 770
10.1799998395145 761
10.1999998390675 748
10.2199998386204 780
10.2399998381734 819
10.2599998377264 785
10.2799998372793 748
10.2999998368323 720
10.3199998363853 677
10.3399998359382 646
10.3599998354912 650
10.3799998350441 668
10.3999998345971 654
10.4199998341501 639
10.439999833703 626
10.459999833256 586
10.479999832809 573
10.4999998323619 615
10.5199998319149 600
10.5399998314679 638
10.5599998310208 633
10.5799998305738 653
10.5999998301268 671
10.6199998296797 717
10.6399998292327 665
10.6599998287857 639
10.6799998283386 627
10.6999998278916 662
10.7199998274446 710
10.7399998269975 742
10.7599998265505 795
10.7799998261034 807
10.7999998256564 832
10.8199998252094 867
10.8399998247623 934
10.8599998243153 937
10.8799998238683 917
10.8999998234212 924
10.9199998229742 944
10.9399998225272 956
10.9599998220801 984
10.9799998216331 1070
10.9999998211861 1088
11.019999820739 1143
11.039999820292 1012
11.059999819845 891
11.0799998193979 827
11.0999998189509 688
11.1199998185039 715
11.1399998180568 651
11.1599998176098 679
11.1799998171628 656
11.1999998167157 612
11.2199998162687 635
11.2399998158216 631
11.2599998153746 617
11.2799998149276 622
11.2999998144805 669
11.3199998140335 629
11.3399998135865 637
11.3599998131394 694
11.3799998126924 672
11.3999998122454 711
11.4199998117983 728
11.4399998113513 701
11.4599998109043 693
11.4799998104572 744
11.4999998100102 769
11.5199998095632 722
11.5399998091161 782
11.5599998086691 779
11.5799998082221 726
11.599999807775 714
11.619999807328 725
11.639999806881 754
11.6599998064339 701
11.6799998059869 691
11.6999998055398 668
11.7199998050928 670
11.7399998046458 667
11.7599998041987 637
11.7799998037517 643
11.7999998033047 634
11.8199998028576 638
11.8399998024106 661
11.8599998019636 589
11.8799998015165 644
11.8999998010695 592
11.9199998006225 611
11.9399998001754 607
11.9599997997284 609
11.9799997992814 636
11.9999997988343 652
12.0199997983873 675
12.0399997979403 633
12.0599997974932 648
12.0799997970462 648
12.0999997965992 651
12.1199997961521 667
12.1399997957051 649
12.159999795258 659
12.179999794811 703
12.199999794364 723
12.2199997939169 729
12.2399997934699 778
12.2599997930229 679
12.2799997925758 706
12.2999997921288 709
12.3199997916818 735
12.3399997912347 733
12.3599997907877 691
12.3799997903407 738
12.3999997898936 659
12.4199997894466 688
12.4399997889996 692
12.4599997885525 697
12.4799997881055 684
12.4999997876585 690
12.5199997872114 679
12.5399997867644 613
12.5599997863173 647
12.5799997858703 636
12.5999997854233 622
12.6199997849762 650
12.6399997845292 613
12.6599997840822 657
12.6799997836351 659
12.6999997831881 651
12.7199997827411 657
12.739999782294 656
12.759999781847 640
12.7799997814 683
12.7999997809529 660
12.8199997805059 680
12.8399997800589 649
12.8599997796118 620
12.8799997791648 644
12.8999997787178 706
12.9199997782707 629
12.9399997778237 632
12.9599997773767 597
12.9799997769296 672
12.9999997764826 660
13.0199997760355 691
13.0399997755885 706
13.0599997751415 710
13.0799997746944 650
13.0999997742474 653
13.1199997738004 691
13.1399997733533 679
13.1599997729063 731
13.1799997724593 715
13.1999997720122 681
13.2199997715652 686
13.2399997711182 704
13.2599997706711 706
13.2799997702241 665
13.2999997697771 687
13.31999976933 711
13.339999768883 721
13.359999768436 723
13.3799997679889 740
13.3999997675419 700
13.4199997670949 756
13.4399997666478 718
13.4599997662008 758
13.4799997657537 718
13.4999997653067 736
13.5199997648597 742
13.5399997644126 704
13.5599997639656 761
13.5799997635186 755
13.5999997630715 760
13.6199997626245 720
13.6399997621775 734
13.6599997617304 751
13.6799997612834 712
13.6999997608364 672
13.7199997603893 704
13.7399997599423 731
13.7599997594953 675
13.7799997590482 731
13.7999997586012 701
13.8199997581542 730
13.8399997577071 742
13.8599997572601 750
13.879999756813 719
13.899999756366 693
13.919999755919 749
13.9399997554719 708
13.9599997550249 741
13.9799997545779 767
13.9999997541308 663
14.0199997536838 729
14.0399997532368 719
14.0599997527897 724
14.0799997523427 706
14.0999997518957 753
14.1199997514486 739
14.1399997510016 760
14.1599997505546 707
14.1799997501075 782
14.1999997496605 764
14.2199997492135 754
14.2399997487664 735
14.2599997483194 823
14.2799997478724 752
14.2999997474253 789
14.3199997469783 827
14.3399997465312 809
14.3599997460842 817
14.3799997456372 778
14.3999997451901 836
14.4199997447431 833
14.4399997442961 813
14.459999743849 780
14.479999743402 885
14.499999742955 778
14.5199997425079 810
14.5399997420609 785
14.5599997416139 797
14.5799997411668 771
14.5999997407198 813
14.6199997402728 793
14.6399997398257 799
14.6599997393787 767
14.6799997389317 807
14.6999997384846 763
14.7199997380376 790
14.7399997375906 830
14.7599997371435 792
14.7799997366965 819
14.7999997362494 802
14.8199997358024 860
14.8399997353554 789
14.8599997349083 845
14.8799997344613 877
14.8999997340143 852
14.9199997335672 808
14.9399997331202 826
14.9599997326732 847
14.9799997322261 821
14.9999997317791 858
15.0199997313321 864
15.039999730885 809
15.059999730438 827
15.079999729991 821
15.0999997295439 845
15.1199997290969 853
15.1399997286499 875
15.1599997282028 865
15.1799997277558 816
15.1999997273088 834
15.2199997268617 841
15.2399997264147 869
15.2599997259676 869
15.2799997255206 807
15.2999997250736 881
15.3199997246265 892
15.3399997241795 903
15.3599997237325 885
15.3799997232854 869
15.3999997228384 874
15.4199997223914 890
15.4399997219443 906
15.4599997214973 875
15.4799997210503 925
15.4999997206032 829
15.5199997201562 824
15.5399997197092 902
15.5599997192621 887
15.5799997188151 910
15.5999997183681 894
15.619999717921 906
15.639999717474 883
15.659999717027 887
15.6799997165799 905
15.6999997161329 905
15.7199997156858 887
15.7399997152388 876
15.7599997147918 869
15.7799997143447 885
15.7999997138977 958
15.8199997134507 868
15.8399997130036 958
15.8599997125566 885
15.8799997121096 904
15.8999997116625 942
15.9199997112155 910
15.9399997107685 931
15.9599997103214 940
15.9799997098744 947
15.9999997094274 903
16.0199997089803 930
16.0399997085333 902
16.0599997080863 928
16.0799997076392 928
16.0999997071922 985
16.1199997067451 917
16.1399997062981 982
16.1599997058511 985
16.179999705404 1041
16.199999704957 1020
16.21999970451 1053
16.2399997040629 991
16.2599997036159 1047
16.2799997031689 997
16.2999997027218 1026
16.3199997022748 1027
16.3399997018278 1075
16.3599997013807 1017
16.3799997009337 1016
16.3999997004867 1066
16.4199997000396 1013
16.4399996995926 970
16.4599996991456 985
16.4799996986985 1030
16.4999996982515 1049
16.5199996978045 1022
16.5399996973574 1022
16.5599996969104 1004
16.5799996964633 1037
16.5999996960163 1026
16.6199996955693 1067
16.6399996951222 1073
16.6599996946752 1086
16.6799996942282 1052
16.6999996937811 1078
16.7199996933341 1073
16.7399996928871 1076
16.75999969244 1082
16.779999691993 1125
16.799999691546 1104
16.8199996910989 1151
16.8399996906519 1120
16.8599996902049 1126
16.8799996897578 1130
16.8999996893108 1151
16.9199996888638 1170
16.9399996884167 1302
16.9599996879697 1294
16.9799996875226 1364
16.9999996870756 1372
17.0199996866286 1310
17.0399996861815 1305
17.0599996857345 1278
17.0799996852875 1246
17.0999996848404 1165
17.1199996843934 1206
17.1399996839464 1106
17.1599996834993 1103
17.1799996830523 1095
17.1999996826053 1140
17.2199996821582 1172
17.2399996817112 1196
17.2599996812642 1170
17.2799996808171 1204
17.2999996803701 1193
17.3199996799231 1146
17.339999679476 1193
17.359999679029 1201
17.379999678582 1189
17.3999996781349 1243
17.4199996776879 1164
17.4399996772408 1221
17.4599996767938 1231
17.4799996763468 1170
17.4999996758997 1191
17.5199996754527 1279
17.5399996750057 1196
17.5599996745586 1226
17.5799996741116 1242
17.5999996736646 1211
17.6199996732175 1212
17.6399996727705 1198
17.6599996723235 1241
17.6799996718764 1220
17.6999996714294 1190
17.7199996709824 1267
17.7399996705353 1323
17.7599996700883 1335
17.7799996696413 1261
17.7999996691942 1273
17.8199996687472 1279
17.8399996683002 1255
17.8599996678531 1304
17.8799996674061 1260
17.899999666959 1280
17.919999666512 1365
17.939999666065 1358
17.9599996656179 1297
17.9799996651709 1263
17.9999996647239 1274
18.0199996642768 1302
18.0399996638298 1348
18.0599996633828 1314
18.0799996629357 1334
18.0999996624887 1325
18.1199996620417 1346
18.1399996615946 1350
18.1599996611476 1363
18.1799996607006 1342
18.1999996602535 1307
18.2199996598065 1344
18.2399996593595 1336
18.2599996589124 1321
18.2799996584654 1336
18.2999996580184 1354
18.3199996575713 1314
18.3399996571243 1339
18.3599996566772 1305
18.3799996562302 1386
18.3999996557832 1376
18.4199996553361 1357
18.4399996548891 1384
18.4599996544421 1441
18.479999653995 1441
18.499999653548 1359
18.519999653101 1424
18.5399996526539 1410
18.5599996522069 1431
18.5799996517599 1418
18.5999996513128 1400
18.6199996508658 1447
18.6399996504188 1440
18.6599996499717 1417
18.6799996495247 1470
18.6999996490777 1528
18.7199996486306 1494
18.7399996481836 1541
18.7599996477366 1505
18.7799996472895 1527
18.7999996468425 1491
18.8199996463954 1499
18.8399996459484 1502
18.8599996455014 1521
18.8799996450543 1608
18.8999996446073 1494
18.9199996441603 1550
18.9399996437132 1522
18.9599996432662 1567
18.9799996428192 1554
18.9999996423721 1524
19.0199996419251 1605
19.0399996414781 1587
19.059999641031 1547
19.079999640584 1590
19.099999640137 1650
19.1199996396899 1595
19.1399996392429 1671
19.1599996387959 1655
19.1799996383488 1738
19.1999996379018 1696
19.2199996374547 1710
19.2399996370077 1641
19.2599996365607 1717
19.2799996361136 1602
19.2999996356666 1662
19.3199996352196 1699
19.3399996347725 1630
19.3599996343255 1657
19.3799996338785 1594
19.3999996334314 1613
19.4199996329844 1660
19.4399996325374 1726
19.4599996320903 1761
19.4799996316433 1835
19.4999996311963 1742
19.5199996307492 1813
19.5399996303022 1789
19.5599996298552 1838
19.5799996294081 1888
19.5999996289611 1843
19.6199996285141 1823
19.639999628067 1800
19.65999962762 1733
19.6799996271729 1700
19.6999996267259 1688
19.7199996262789 1698
19.7399996258318 1648
19.7599996253848 1608
19.7799996249378 1696
19.7999996244907 1680
19.8199996240437 1578
19.8399996235967 1631
19.8599996231496 1676
19.8799996227026 1721
19.8999996222556 1747
19.9199996218085 1676
19.9399996213615 1786
19.9599996209145 1727
19.9799996204674 1669
19.9999996200204 1733
