3 2088
3.01999999955297 1899
3.03999999910593 1930
3.0599999986589 1998
3.07999999821186 1759
3.09999999776483 1818
3.11999999731779 1699
3.13999999687076 1778
3.15999999642372 1734
3.17999999597669 1577
3.19999999552965 1622
3.21999999508262 1612
3.23999999463558 1509
3.25999999418855 1646
3.27999999374151 1607
3.29999999329448 1572
3.31999999284744 1599
3.33999999240041 1536
3.35999999195337 1523
3.37999999150634 1515
3.3999999910593 1430
3.41999999061227 1494
3.43999999016523 1394
3.4599999897182 1427
3.47999998927116 1364
3.49999998882413 1440
3.51999998837709 1317
3.53999998793006 1374
3.55999998748302 1372
3.57999998703599 1375
3.59999998658895 1356
3.61999998614192 1288
3.63999998569489 1355
3.65999998524785 1360
3.67999998480082 1305
3.69999998435378 1227
3.71999998390675 1240
3.73999998345971 1244
3.75999998301268 1192
3.77999998256564 1226
3.79999998211861 1261
3.81999998167157 1242
3.83999998122454 1201
3.8599999807775 1215
3.87999998033047 1224
3.89999997988343 1152
3.9199999794364 1150
3.93999997898936 1167
3.95999997854233 1252
3.97999997809529 1176
3.99999997764826 1138
4.01999997720122 1127
4.03999997675419 1119
4.05999997630715 1165
4.07999997586012 1147
4.09999997541308 1087
4.11999997496605 1098
4.13999997451901 1098
4.15999997407198 1050
4.17999997362494 1165
4.19999997317791 1075
4.21999997273087 1045
4.23999997228384 1059
4.25999997183681 979
4.27999997138977 1047
4.29999997094274 1006
4.3199999704957 1021
4.33999997004867 1033
4.35999996960163 1006
4.3799999691546 955
4.39999996870756 980
4.41999996826053 1020
4.43999996781349 895
4.45999996736646 918
4.47999996691942 925
4.49999996647239 931
4.51999996602535 896
4.53999996557832 945
4.55999996513128 931
4.57999996468425 867
4.59999996423721 884
4.61999996379018 934
4.63999996334314 915
4.65999996289611 912
4.67999996244907 915
4.69999996200204 874
4.719999961555 946
4.73999996110797 910
4.75999996066093 888
4.7799999602139 934
4.79999995976686 915
4.81999995931983 914
4.83999995887279 903
4.85999995842576 911
4.87999995797873 896
4.89999995753169 872
4.91999995708466 865
4.93999995663762 867
4.95999995619059 869
4.97999995574355 909
4.99999995529652 932
5.01999995484948 965
5.03999995440245 923
5.05999995395541 867
5.07999995350838 988
5.09999995306134 993
5.11999995261431 926
5.13999995216727 1013
5.15999995172024 996
5.1799999512732 1001
5.19999995082617 996
5.21999995037913 1107
5.2399999499321 1072
5.25999994948506 1076
5.27999994903803 1066
5.29999994859099 1108
5.31999994814396 1119
5.33999994769692 1140
5.35999994724989 1252
5.37999994680285 1210
5.39999994635582 1266
5.41999994590878 1364
5.43999994546175 1508
5.45999994501471 1574
5.47999994456768 1634
5.49999994412065 1587
5.51999994367361 1363
5.53999994322658 1315
5.55999994277954 1265
5.57999994233251 1335
5.59999994188547 1239
5.61999994143844 1312
5.6399999409914 1363
5.65999994054437 1440
5.67999994009733 1481
5.6999999396503 1531
5.71999993920326 1545
5.73999993875623 1709
5.75999993830919 1739
5.77999993786216 1940
5.79999993741512 1948
5.81999993696809 1998
5.83999993652105 1848
5.85999993607402 1706
5.87999993562698 1548
5.89999993517995 1290
5.91999993473291 1071
5.93999993428588 942
5.95999993383884 883
5.97999993339181 897
5.99999993294477 799
6.01999993249774 774
6.0399999320507 780
6.05999993160367 705
6.07999993115663 718
6.0999999307096 692
6.11999993026257 715
6.13999992981553 747
6.1599999293685 640
6.17999992892146 661
6.19999992847443 699
6.21999992802739 738
6.23999992758036 699
6.25999992713332 694
6.27999992668629 680
6.29999992623925 651
6.31999992579222 687
6.33999992534518 676
6.35999992489815 656
6.37999992445111 646
6.39999992400408 676
6.41999992355704 649
6.43999992311001 671
6.45999992266297 640
6.47999992221594 647
6.4999999217689 620
6.51999992132187 668
6.53999992087483 653
6.5599999204278 631
6.57999991998076 611
6.59999991953373 653
6.61999991908669 694
6.63999991863966 707
6.65999991819262 716
6.67999991774559 676
6.69999991729855 693
6.71999991685152 717
6.73999991640449 668
6.75999991595745 667
6.77999991551042 675
6.79999991506338 741
6.81999991461635 683
6.83999991416931 694
6.85999991372228 671
6.87999991327524 695
6.89999991282821 620
6.91999991238117 639
6.93999991193414 619
6.9599999114871 592
6.97999991104007 602
6.99999991059303 632
7.019999910146 549
7.03999990969896 544
7.05999990925193 591
7.07999990880489 551
7.09999990835786 594
7.11999990791082 562
7.13999990746379 574
7.15999990701675 582
7.17999990656972 550
7.19999990612268 567
7.21999990567565 552
7.23999990522861 545
7.25999990478158 526
7.27999990433454 542
7.29999990388751 575
7.31999990344047 543
7.33999990299344 569
7.35999990254641 569
7.37999990209937 560
7.39999990165234 595
7.4199999012053 576
7.43999990075827 610
7.45999990031123 522
7.4799998998642 564
7.49999989941716 547
7.51999989897013 547
7.53999989852309 569
7.55999989807606 546
7.57999989762902 547
7.59999989718199 540
7.61999989673495 518
7.63999989628792 566
7.65999989584088 578
7.67999989539385 528
7.69999989494681 535
7.71999989449978 536
7.73999989405274 540
7.75999989360571 575
7.77999989315867 505
7.79999989271164 512
7.8199998922646 539
7.83999989181757 557
7.85999989137053 574
7.8799998909235 640
7.89999989047646 558
7.91999989002943 532
7.9399998895824 537
7.95999988913536 543
7.97999988868833 564
7.99999988824129 578
8.01999988779426 558
8.03999988734722 546
8.05999988690019 576
8.07999988645315 559
8.09999988600612 552
8.11999988555908 604
8.13999988511205 557
8.15999988466501 559
8.17999988421798 513
8.19999988377094 561
8.21999988332391 563
8.23999988287687 545
8.25999988242984 563
8.2799998819828 592
8.29999988153577 587
8.31999988108873 586
8.3399998806417 604
8.35999988019466 555
8.37999987974763 563
8.39999987930059 598
8.41999987885356 594
8.43999987840652 555
8.45999987795949 554
8.47999987751245 540
8.49999987706542 524
8.51999987661839 548
8.53999987617135 548
8.55999987572432 554
8.57999987527728 576
8.59999987483025 542
8.61999987438321 516
8.63999987393618 526
8.65999987348914 520
8.67999987304211 508
8.69999987259507 561
8.71999987214804 531
8.739999871701 555
8.75999987125397 548
8.77999987080693 507
8.7999998703599 551
8.81999986991286 565
8.83999986946583 584
8.85999986901879 565
8.87999986857176 600
8.89999986812472 558
8.91999986767769 548
8.93999986723065 581
8.95999986678362 558
8.97999986633658 594
8.99999986588955 588
9.01999986544251 637
9.03999986499548 608
9.05999986454844 622
9.07999986410141 586
9.09999986365438 626
9.11999986320734 601
9.13999986276031 671
9.15999986231327 641
9.17999986186624 664
9.1999998614192 705
9.21999986097217 693
9.23999986052513 738
9.2599998600781 742
9.27999985963106 797
9.29999985918403 831
9.31999985873699 937
9.33999985828996 1018
9.35999985784292 1059
9.37999985739589 1150
9.39999985694885 1138
9.41999985650182 1041
9.43999985605478 873
9.45999985560775 727
9.47999985516071 657
9.49999985471368 623
9.51999985426664 613
9.53999985381961 627
9.55999985337257 623
9.57999985292554 654
9.5999998524785 599
9.61999985203147 575
9.63999985158443 590
9.6599998511374 602
9.67999985069037 581
9.69999985024333 648
9.7199998497963 615
9.73999984934926 607
9.75999984890223 613
9.77999984845519 643
9.79999984800816 591
9.81999984756112 635
9.83999984711409 621
9.85999984666705 573
9.87999984622002 615
9.89999984577298 618
9.91999984532595 597
9.93999984487891 674
9.95999984443188 591
9.97999984398484 663
9.99999984353781 647
10.0199998430908 646
10.0399998426437 629
10.0599998421967 642
10.0799998417497 614
10.0999998413026 629
10.1199998408556 663
10.1399998404086 711
10.1599998399615 709
10.1799998395145 704
10.1999998390675 743
10.2199998386204 715
10.2399998381734 652
10.2599998377264 678
10.2799998372793 692
10.2999998368323 627
10.3199998363853 647
10.3399998359382 645
10.3599998354912 596
10.3799998350441 600
10.3999998345971 650
10.4199998341501 581
10.439999833703 559
10.459999833256 601
10.479999832809 567
10.4999998323619 597
10.5199998319149 613
10.5399998314679 614
10.5599998310208 585
10.5799998305738 622
10.5999998301268 640
10.6199998296797 621
10.6399998292327 624
10.6599998287857 621
10.6799998283386 655
10.6999998278916 664
10.7199998274446 653
10.7399998269975 632
10.7599998265505 670
10.7799998261034 711
10.7999998256564 757
10.8199998252094 731
10.8399998247623 777
10.8599998243153 799
10.8799998238683 779
10.8999998234212 765
10.9199998229742 783
10.9399998225272 757
10.9599998220801 854
10.9799998216331 868
10.9999998211861 833
11.019999820739 863
11.039999820292 807
11.059999819845 725
11.0799998193979 682
11.0999998189509 625
11.1199998185039 616
11.1399998180568 611
11.1599998176098 659
11.1799998171628 605
11.1999998167157 548
11.2199998162687 556
11.2399998158216 582
11.2599998153746 638
11.2799998149276 587
11.2999998144805 597
11.3199998140335 591
11.3399998135865 556
11.3599998131394 576
11.3799998126924 608
11.3999998122454 599
11.4199998117983 649
11.4399998113513 644
11.4599998109043 627
11.4799998104572 613
11.4999998100102 648
11.5199998095632 587
11.5399998091161 672
11.5599998086691 675
11.5799998082221 637
11.599999807775 663
11.619999807328 645
11.639999806881 645
11.6599998064339 607
11.6799998059869 560
11.6999998055398 601
11.7199998050928 557
11.7399998046458 609
11.7599998041987 557
11.7799998037517 580
11.7999998033047 603
11.8199998028576 543
11.8399998024106 596
11.8599998019636 551
11.8799998015165 540
11.8999998010695 576
11.9199998006225 558
11.9399998001754 595
11.9599997997284 582
11.9799997992814 622
11.9999997988343 570
12.0199997983873 589
12.0399997979403 563
12.0599997974932 594
12.0799997970462 591
12.0999997965992 583
12.1199997961521 602
12.1399997957051 592
12.159999795258 633
12.179999794811 590
12.199999794364 591
12.2199997939169 624
12.2399997934699 588
12.2599997930229 599
12.2799997925758 630
12.2999997921288 626
12.3199997916818 644
12.3399997912347 581
12.3599997907877 627
12.3799997903407 606
12.3999997898936 597
12.4199997894466 621
12.4399997889996 559
12.4599997885525 587
12.4799997881055 573
12.4999997876585 594
12.5199997872114 562
12.5399997867644 600
12.5599997863173 609
12.5799997858703 601
12.5999997854233 581
12.6199997849762 584
12.6399997845292 542
12.6599997840822 580
12.6799997836351 605
12.6999997831881 630
12.7199997827411 559
12.739999782294 580
12.759999781847 561
12.7799997814 561
12.7999997809529 587
12.8199997805059 580
12.8399997800589 615
12.8599997796118 588
12.8799997791648 596
12.8999997787178 574
12.9199997782707 531
12.9399997778237 622
12.9599997773767 608
12.9799997769296 561
12.9999997764826 578
13.0199997760355 585
13.0399997755885 569
13.0599997751415 558
13.0799997746944 566
13.0999997742474 579
13.1199997738004 598
13.1399997733533 604
13.1599997729063 615
13.1799997724593 580
13.1999997720122 586
13.2199997715652 622
13.2399997711182 579
13.2599997706711 620
13.2799997702241 624
13.2999997697771 685
13.31999976933 598
13.339999768883 627
13.359999768436 650
13.3799997679889 656
13.3999997675419 602
13.4199997670949 635
13.4399997666478 650
13.4599997662008 604
13.4799997657537 589
13.4999997653067 637
13.5199997648597 587
13.5399997644126 617
13.5599997639656 576
13.5799997635186 622
13.5999997630715 588
13.6199997626245 626
13.6399997621775 630
13.6599997617304 623
13.6799997612834 577
13.6999997608364 599
13.7199997603893 598
13.7399997599423 616
13.7599997594953 651
13.7799997590482 618
13.7999997586012 658
13.8199997581542 598
13.8399997577071 639
13.8599997572601 579
13.879999756813 608
13.899999756366 638
13.919999755919 612
13.9399997554719 651
13.9599997550249 596
13.9799997545779 627
13.9999997541308 608
14.0199997536838 608
14.0399997532368 612
14.0599997527897 639
14.0799997523427 651
14.0999997518957 642
14.1199997514486 646
14.1399997510016 625
14.1599997505546 653
14.1799997501075 652
14.1999997496605 668
14.2199997492135 630
14.2399997487664 656
14.2599997483194 684
14.2799997478724 689
14.2999997474253 654
14.3199997469783 700
14.3399997465312 697
14.3599997460842 690
14.3799997456372 706
14.3999997451901 695
14.4199997447431 744
14.4399997442961 697
14.459999743849 683
14.479999743402 732
14.499999742955 689
14.5199997425079 676
14.5399997420609 644
14.5599997416139 674
14.5799997411668 735
14.5999997407198 696
14.6199997402728 715
14.6399997398257 717
14.6599997393787 675
14.6799997389317 688
14.6999997384846 675
14.7199997380376 668
14.7399997375906 726
14.7599997371435 718
14.7799997366965 754
14.7999997362494 712
14.8199997358024 729
14.8399997353554 746
14.8599997349083 740
14.8799997344613 735
14.8999997340143 739
14.9199997335672 756
14.9399997331202 684
14.9599997326732 730
14.9799997322261 669
14.9999997317791 758
15.0199997313321 737
15.039999730885 739
15.059999730438 761
15.079999729991 720
15.0999997295439 704
15.1199997290969 735
15.1399997286499 689
15.1599997282028 687
15.1799997277558 764
15.1999997273088 731
15.2199997268617 735
15.2399997264147 780
15.2599997259676 788
15.2799997255206 769
15.2999997250736 763
15.3199997246265 749
15.3399997241795 730
15.3599997237325 711
15.3799997232854 733
15.3999997228384 763
15.4199997223914 763
15.4399997219443 712
15.4599997214973 756
15.4799997210503 735
15.4999997206032 763
15.5199997201562 709
15.5399997197092 774
15.5599997192621 732
15.5799997188151 747
15.5999997183681 710
15.619999717921 725
15.639999717474 722
15.659999717027 767
15.6799997165799 793
15.6999997161329 832
15.7199997156858 748
15.7399997152388 771
15.7599997147918 744
15.7799997143447 774
15.7999997138977 787
15.8199997134507 749
15.8399997130036 803
15.8599997125566 767
15.8799997121096 767
15.8999997116625 816
15.9199997112155 804
15.9399997107685 810
15.9599997103214 748
15.9799997098744 794
15.9999997094274 805
16.0199997089803 829
16.0399997085333 870
16.0599997080863 787
16.0799997076392 777
16.0999997071922 795
16.1199997067451 834
16.1399997062981 838
16.1599997058511 800
16.179999705404 797
16.199999704957 797
16.21999970451 832
16.2399997040629 865
16.2599997036159 822
16.2799997031689 855
16.2999997027218 837
16.3199997022748 894
16.3399997018278 824
16.3599997013807 886
16.3799997009337 844
16.3999997004867 848
16.4199997000396 896
16.4399996995926 858
16.4599996991456 870
16.4799996986985 878
16.4999996982515 870
16.5199996978045 862
16.5399996973574 885
16.5599996969104 876
16.5799996964633 880
16.5999996960163 863
16.6199996955693 876
16.6399996951222 859
16.6599996946752 869
16.6799996942282 905
16.6999996937811 929
16.7199996933341 959
16.7399996928871 872
16.75999969244 943
16.779999691993 960
16.799999691546 929
16.8199996910989 939
16.8399996906519 975
16.8599996902049 957
16.8799996897578 1015
16.8999996893108 1161
16.9199996888638 1338
16.9399996884167 1462
16.9599996879697 1579
16.9799996875226 1540
16.9999996870756 1617
17.0199996866286 1527
17.0399996861815 1375
17.0599996857345 1299
17.0799996852875 1138
17.0999996848404 1017
17.1199996843934 993
17.1399996839464 959
17.1599996834993 1006
17.1799996830523 939
17.1999996826053 943
17.2199996821582 984
17.2399996817112 976
17.2599996812642 953
17.2799996808171 967
17.2999996803701 954
17.3199996799231 1009
17.339999679476 996
17.359999679029 1003
17.379999678582 1003
17.3999996781349 982
17.4199996776879 1035
17.4399996772408 1008
17.4599996767938 970
17.4799996763468 948
17.4999996758997 977
17.5199996754527 994
17.5399996750057 1004
17.5599996745586 1000
17.5799996741116 1009
17.5999996736646 1034
17.6199996732175 1023
17.6399996727705 1028
17.6599996723235 1002
17.6799996718764 998
17.6999996714294 1007
17.7199996709824 984
17.7399996705353 1027
17.7599996700883 1046
17.7799996696413 966
17.7999996691942 1049
17.8199996687472 1090
17.8399996683002 1036
17.8599996678531 1027
17.8799996674061 1073
17.899999666959 1092
17.919999666512 1084
17.939999666065 1064
17.9599996656179 1049
17.9799996651709 1075
17.9999996647239 1050
18.0199996642768 1078
18.0399996638298 1087
18.0599996633828 1087
18.0799996629357 1080
18.0999996624887 1104
18.1199996620417 1044
18.1399996615946 1035
18.1599996611476 1080
18.1799996607006 1098
18.1999996602535 1030
18.2199996598065 1031
18.2399996593595 1105
18.2599996589124 1108
18.2799996584654 1098
18.2999996580184 1121
18.3199996575713 1124
18.3399996571243 1096
18.3599996566772 1140
18.3799996562302 1108
18.3999996557832 1151
18.4199996553361 1048
18.4399996548891 1117
18.4599996544421 1161
18.479999653995 1080
18.499999653548 1186
18.519999653101 1178
18.5399996526539 1137
18.5599996522069 1203
18.5799996517599 1140
18.5999996513128 1216
18.6199996508658 1124
18.6399996504188 1256
18.6599996499717 1214
18.6799996495247 1189
18.6999996490777 1193
18.7199996486306 1227
18.7399996481836 1183
18.7599996477366 1171
18.7799996472895 1207
18.7999996468425 1191
18.8199996463954 1141
18.8399996459484 1271
18.8599996455014 1215
18.8799996450543 1208
18.8999996446073 1196
18.9199996441603 1282
18.9399996437132 1332
18.9599996432662 1231
18.9799996428192 1263
18.9999996423721 1205
19.0199996419251 1257
19.0399996414781 1231
19.059999641031 1264
19.079999640584 1408
19.099999640137 1255
19.1199996396899 1356
19.1399996392429 1394
19.1599996387959 1326
19.1799996383488 1349
19.1999996379018 1344
19.2199996374547 1357
19.2399996370077 1350
19.2599996365607 1295
19.2799996361136 1333
19.2999996356666 1291
19.3199996352196 1327
19.3399996347725 1262
19.3599996343255 1384
19.3799996338785 1334
19.3999996334314 1365
19.4199996329844 1326
19.4399996325374 1371
19.4599996320903 1300
19.4799996316433 1409
19.4999996311963 1396
19.5199996307492 1416
19.5399996303022 1361
19.5599996298552 1476
19.5799996294081 1433
19.5999996289611 1472
19.6199996285141 1406
19.639999628067 1531
19.65999962762 1418
19.6799996271729 1379
19.6999996267259 1395
19.7199996262789 1366
19.7399996258318 1309
19.7599996253848 1365
19.7799996249378 1312
19.7999996244907 1365
19.8199996240437 1330
19.8399996235967 1330
19.8599996231496 1367
19.8799996227026 1414
19.8999996222556 1429
19.9199996218085 1406
19.9399996213615 1414
19.9599996209145 1403
19.9799996204674 1437
19.9999996200204 1484
