3 1630
3.01999999955297 1550
3.03999999910593 1437
3.0599999986589 1430
3.07999999821186 1354
3.09999999776483 1405
3.11999999731779 1350
3.13999999687076 1255
3.15999999642372 1297
3.17999999597669 1256
3.19999999552965 1267
3.21999999508262 1257
3.23999999463558 1277
3.25999999418855 1199
3.27999999374151 1240
3.29999999329448 1257
3.31999999284744 1218
3.33999999240041 1194
3.35999999195337 1151
3.37999999150634 1228
3.3999999910593 1171
3.41999999061227 1186
3.43999999016523 1178
3.4599999897182 1104
3.47999998927116 1140
3.49999998882413 1146
3.51999998837709 1141
3.53999998793006 1111
3.55999998748302 1053
3.57999998703599 999
3.59999998658895 1110
3.61999998614192 1080
3.63999998569489 1093
3.65999998524785 1052
3.67999998480082 1020
3.69999998435378 1046
3.71999998390675 1039
3.73999998345971 1036
3.75999998301268 1051
3.77999998256564 1070
3.79999998211861 1016
3.81999998167157 1029
3.83999998122454 1078
3.8599999807775 1024
3.87999998033047 1032
3.89999997988343 945
3.9199999794364 997
3.93999997898936 983
3.95999997854233 958
3.97999997809529 1014
3.99999997764826 1012
4.01999997720122 1022
4.03999997675419 1023
4.05999997630715 1014
4.07999997586012 1025
4.09999997541308 1028
4.11999997496605 991
4.13999997451901 1014
4.15999997407198 1003
4.17999997362494 952
4.19999997317791 946
4.21999997273087 952
4.23999997228384 993
4.25999997183681 951
4.27999997138977 920
4.29999997094274 922
4.3199999704957 926
4.33999997004867 938
4.35999996960163 880
4.3799999691546 885
4.39999996870756 891
4.41999996826053 907
4.43999996781349 882
4.45999996736646 898
4.47999996691942 859
4.49999996647239 847
4.51999996602535 864
4.53999996557832 802
4.55999996513128 837
4.57999996468425 869
4.59999996423721 834
4.61999996379018 834
4.63999996334314 844
4.65999996289611 840
4.67999996244907 883
4.69999996200204 853
4.719999961555 859
4.73999996110797 824
4.75999996066093 832
4.7799999602139 850
4.79999995976686 849
4.81999995931983 881
4.83999995887279 906
4.85999995842576 890
4.87999995797873 901
4.89999995753169 908
4.91999995708466 889
4.93999995663762 919
4.95999995619059 903
4.97999995574355 885
4.99999995529652 964
5.01999995484948 956
5.03999995440245 980
5.05999995395541 994
5.07999995350838 992
5.09999995306134 1003
5.11999995261431 931
5.13999995216727 1027
5.15999995172024 969
5.1799999512732 1041
5.19999995082617 988
5.21999995037913 1071
5.2399999499321 1099
5.25999994948506 1132
5.27999994903803 1150
5.29999994859099 1163
5.31999994814396 1215
5.33999994769692 1271
5.35999994724989 1317
5.37999994680285 1291
5.39999994635582 1359
5.41999994590878 1407
5.43999994546175 1463
5.45999994501471 1604
5.47999994456768 1698
5.49999994412065 1728
5.51999994367361 1559
5.53999994322658 1466
5.55999994277954 1441
5.57999994233251 1512
5.59999994188547 1463
5.61999994143844 1446
5.6399999409914 1565
5.65999994054437 1607
5.67999994009733 1598
5.6999999396503 1686
5.71999993920326 1691
5.73999993875623 1809
5.75999993830919 1832
5.77999993786216 1933
5.79999993741512 2012
5.81999993696809 2195
5.83999993652105 2102
5.85999993607402 2017
5.87999993562698 1750
5.89999993517995 1548
5.91999993473291 1397
5.93999993428588 1157
5.95999993383884 1057
5.97999993339181 999
5.99999993294477 951
6.01999993249774 871
6.0399999320507 845
6.05999993160367 894
6.07999993115663 835
6.0999999307096 814
6.11999993026257 774
6.13999992981553 786
6.1599999293685 738
6.17999992892146 760
6.19999992847443 784
6.21999992802739 732
6.23999992758036 740
6.25999992713332 754
6.27999992668629 727
6.29999992623925 710
6.31999992579222 747
6.33999992534518 737
6.35999992489815 682
6.37999992445111 685
6.39999992400408 703
6.41999992355704 682
6.43999992311001 692
6.45999992266297 732
6.47999992221594 695
6.4999999217689 681
6.51999992132187 697
6.53999992087483 739
6.5599999204278 698
6.57999991998076 684
6.59999991953373 705
6.61999991908669 698
6.63999991863966 699
6.65999991819262 736
6.67999991774559 770
6.69999991729855 674
6.71999991685152 690
6.73999991640449 753
6.75999991595745 734
6.77999991551042 777
6.79999991506338 748
6.81999991461635 695
6.83999991416931 726
6.85999991372228 722
6.87999991327524 690
6.89999991282821 699
6.91999991238117 666
6.93999991193414 649
6.9599999114871 657
6.97999991104007 654
6.99999991059303 643
7.019999910146 603
7.03999990969896 614
7.05999990925193 614
7.07999990880489 598
7.09999990835786 591
7.11999990791082 647
7.13999990746379 662
7.15999990701675 619
7.17999990656972 621
7.19999990612268 561
7.21999990567565 609
7.23999990522861 610
7.25999990478158 604
7.27999990433454 584
7.29999990388751 603
7.31999990344047 612
7.33999990299344 601
7.35999990254641 591
7.37999990209937 564
7.39999990165234 554
7.4199999012053 582
7.43999990075827 584
7.45999990031123 550
7.4799998998642 569
7.49999989941716 613
7.51999989897013 588
7.53999989852309 578
7.55999989807606 575
7.57999989762902 589
7.59999989718199 635
7.61999989673495 587
7.63999989628792 573
7.65999989584088 577
7.67999989539385 603
7.69999989494681 544
7.71999989449978 579
7.73999989405274 620
7.75999989360571 632
7.77999989315867 608
7.79999989271164 542
7.8199998922646 614
7.83999989181757 602
7.85999989137053 562
7.8799998909235 616
7.89999989047646 629
7.91999989002943 566
7.9399998895824 594
7.95999988913536 562
7.97999988868833 610
7.99999988824129 592
8.01999988779426 622
8.03999988734722 661
8.05999988690019 599
8.07999988645315 651
8.09999988600612 587
8.11999988555908 607
8.13999988511205 595
8.15999988466501 610
8.17999988421798 597
8.19999988377094 579
8.21999988332391 631
8.23999988287687 615
8.25999988242984 654
8.2799998819828 630
8.29999988153577 602
8.31999988108873 604
8.3399998806417 582
8.35999988019466 607
8.37999987974763 611
8.39999987930059 610
8.41999987885356 591
8.43999987840652 606
8.45999987795949 608
8.47999987751245 584
8.49999987706542 577
8.51999987661839 574
8.53999987617135 576
8.55999987572432 603
8.57999987527728 590
8.59999987483025 628
8.61999987438321 590
8.63999987393618 595
8.65999987348914 643
8.67999987304211 586
8.69999987259507 574
8.71999987214804 670
8.739999871701 632
8.75999987125397 588
8.77999987080693 598
8.7999998703599 571
8.81999986991286 605
8.83999986946583 542
8.85999986901879 641
8.87999986857176 668
8.89999986812472 636
8.91999986767769 609
8.93999986723065 637
8.95999986678362 602
8.97999986633658 628
8.99999986588955 679
9.01999986544251 651
9.03999986499548 632
9.05999986454844 659
9.07999986410141 668
9.09999986365438 718
9.11999986320734 689
9.13999986276031 667
9.15999986231327 684
9.17999986186624 756
9.1999998614192 743
9.21999986097217 766
9.23999986052513 763
9.2599998600781 856
9.27999985963106 799
9.29999985918403 860
9.31999985873699 961
9.33999985828996 1003
9.35999985784292 1075
9.37999985739589 1115
9.39999985694885 1173
9.41999985650182 1138
9.43999985605478 1036
9.45999985560775 911
9.47999985516071 814
9.49999985471368 706
9.51999985426664 713
9.53999985381961 698
9.55999985337257 666
9.57999985292554 718
9.5999998524785 692
9.61999985203147 683
9.63999985158443 632
9.6599998511374 669
9.67999985069037 653
9.69999985024333 641
9.7199998497963 688
9.73999984934926 655
9.75999984890223 655
9.77999984845519 710
9.79999984800816 684
9.81999984756112 691
9.83999984711409 644
9.85999984666705 649
9.87999984622002 699
9.89999984577298 666
9.91999984532595 664
9.93999984487891 734
9.95999984443188 661
9.97999984398484 657
9.99999984353781 692
10.0199998430908 677
10.0399998426437 660
10.0599998421967 699
10.0799998417497 673
10.0999998413026 710
10.1199998408556 741
10.1399998404086 744
10.1599998399615 734
10.1799998395145 719
10.1999998390675 750
10.2199998386204 801
10.2399998381734 767
10.2599998377264 759
10.2799998372793 761
10.2999998368323 756
10.3199998363853 732
10.3399998359382 681
10.3599998354912 642
10.3799998350441 663
10.3999998345971 637
10.4199998341501 655
10.439999833703 634
10.459999833256 635
10.479999832809 659
10.4999998323619 692
10.5199998319149 634
10.5399998314679 640
10.5599998310208 685
10.5799998305738 675
10.5999998301268 631
10.6199998296797 690
10.6399998292327 720
10.6599998287857 678
10.6799998283386 676
10.6999998278916 678
10.7199998274446 675
10.7399998269975 728
10.7599998265505 749
10.7799998261034 805
10.7999998256564 753
10.8199998252094 791
10.8399998247623 807
10.8599998243153 780
10.8799998238683 809
10.8999998234212 843
10.9199998229742 845
10.9399998225272 833
10.9599998220801 882
10.9799998216331 866
10.9999998211861 929
11.019999820739 889
11.039999820292 934
11.059999819845 827
11.0799998193979 774
11.0999998189509 793
11.1199998185039 684
11.1399998180568 694
11.1599998176098 691
11.1799998171628 651
11.1999998167157 638
11.2199998162687 645
11.2399998158216 643
11.2599998153746 675
11.2799998149276 674
11.2999998144805 644
11.3199998140335 659
11.3399998135865 685
11.3599998131394 652
11.3799998126924 699
11.3999998122454 675
11.4199998117983 732
11.4399998113513 699
11.4599998109043 715
11.4799998104572 685
11.4999998100102 706
11.5199998095632 724
11.5399998091161 719
11.5599998086691 705
11.5799998082221 737
11.599999807775 677
11.619999807328 700
11.639999806881 682
11.6599998064339 743
11.6799998059869 680
11.6999998055398 674
11.7199998050928 678
11.7399998046458 652
11.7599998041987 648
11.7799998037517 603
11.7999998033047 639
11.8199998028576 640
11.8399998024106 647
11.8599998019636 607
11.8799998015165 643
11.8999998010695 656
11.9199998006225 606
11.9399998001754 661
11.9599997997284 677
11.9799997992814 651
11.9999997988343 655
12.0199997983873 611
12.0399997979403 637
12.0599997974932 654
12.0799997970462 628
12.0999997965992 623
12.1199997961521 635
12.1399997957051 658
12.159999795258 634
12.179999794811 662
12.199999794364 654
12.2199997939169 628
12.2399997934699 662
12.2599997930229 691
12.2799997925758 701
12.2999997921288 689
12.3199997916818 715
12.3399997912347 640
12.3599997907877 646
12.3799997903407 646
12.3999997898936 644
12.4199997894466 664
12.4399997889996 716
12.4599997885525 627
12.4799997881055 639
12.4999997876585 672
12.5199997872114 654
12.5399997867644 633
12.5599997863173 599
12.5799997858703 646
12.5999997854233 588
12.6199997849762 629
12.6399997845292 628
12.6599997840822 619
12.6799997836351 650
12.6999997831881 620
12.7199997827411 653
12.739999782294 662
12.759999781847 629
12.7799997814 660
12.7999997809529 609
12.8199997805059 650
12.8399997800589 610
12.8599997796118 677
12.8799997791648 657
12.8999997787178 623
12.9199997782707 625
12.9399997778237 640
12.9599997773767 646
12.9799997769296 613
12.9999997764826 652
13.0199997760355 676
13.0399997755885 634
13.0599997751415 650
13.0799997746944 641
13.0999997742474 648
13.1199997738004 661
13.1399997733533 647
13.1599997729063 669
13.1799997724593 684
13.1999997720122 657
13.2199997715652 720
13.2399997711182 703
13.2599997706711 674
13.2799997702241 674
13.2999997697771 689
13.31999976933 705
13.339999768883 721
13.359999768436 699
13.3799997679889 680
13.3999997675419 741
13.4199997670949 718
13.4399997666478 659
13.4599997662008 688
13.4799997657537 682
13.4999997653067 725
13.5199997648597 710
13.5399997644126 723
13.5599997639656 669
13.5799997635186 724
13.5999997630715 683
13.6199997626245 708
13.6399997621775 667
13.6599997617304 709
13.6799997612834 704
13.6999997608364 678
13.7199997603893 706
13.7399997599423 677
13.7599997594953 689
13.7799997590482 704
13.7999997586012 666
13.8199997581542 709
13.8399997577071 688
13.8599997572601 721
13.879999756813 664
13.899999756366 707
13.919999755919 678
13.9399997554719 712
13.9599997550249 730
13.9799997545779 698
13.9999997541308 724
14.0199997536838 728
14.0399997532368 708
14.0599997527897 752
14.0799997523427 698
14.0999997518957 731
14.1199997514486 713
14.1399997510016 729
14.1599997505546 769
14.1799997501075 753
14.1999997496605 726
14.2199997492135 712
14.2399997487664 762
14.2599997483194 800
14.2799997478724 751
14.2999997474253 744
14.3199997469783 764
14.3399997465312 735
14.3599997460842 764
14.3799997456372 794
14.3999997451901 753
14.4199997447431 784
14.4399997442961 821
14.459999743849 864
14.479999743402 804
14.499999742955 763
14.5199997425079 770
14.5399997420609 775
14.5599997416139 753
14.5799997411668 795
14.5999997407198 786
14.6199997402728 748
14.6399997398257 720
14.6599997393787 781
14.6799997389317 818
14.6999997384846 790
14.7199997380376 811
14.7399997375906 814
14.7599997371435 802
14.7799997366965 851
14.7999997362494 801
14.8199997358024 785
14.8399997353554 817
14.8599997349083 835
14.8799997344613 799
14.8999997340143 817
14.9199997335672 857
14.9399997331202 831
14.9599997326732 837
14.9799997322261 799
14.9999997317791 816
15.0199997313321 796
15.039999730885 845
15.059999730438 847
15.079999729991 854
15.0999997295439 826
15.1199997290969 855
15.1399997286499 848
15.1599997282028 775
15.1799997277558 881
15.1999997273088 860
15.2199997268617 856
15.2399997264147 833
15.2599997259676 861
15.2799997255206 836
15.2999997250736 843
15.3199997246265 822
15.3399997241795 856
15.3599997237325 841
15.3799997232854 837
15.3999997228384 814
15.4199997223914 887
15.4399997219443 813
15.4599997214973 895
15.4799997210503 858
15.4999997206032 846
15.5199997201562 831
15.5399997197092 861
15.5599997192621 891
15.5799997188151 822
15.5999997183681 887
15.619999717921 894
15.639999717474 819
15.659999717027 906
15.6799997165799 891
15.6999997161329 868
15.7199997156858 892
15.7399997152388 852
15.7599997147918 864
15.7799997143447 913
15.7999997138977 940
15.8199997134507 886
15.8399997130036 888
15.8599997125566 900
15.8799997121096 883
15.8999997116625 908
15.9199997112155 904
15.9399997107685 891
15.9599997103214 882
15.9799997098744 1003
15.9999997094274 964
16.0199997089803 892
16.0399997085333 934
16.0599997080863 883
16.0799997076392 943
16.0999997071922 964
16.1199997067451 928
16.1399997062981 938
16.1599997058511 1022
16.179999705404 948
16.199999704957 998
16.21999970451 980
16.2399997040629 990
16.2599997036159 977
16.2799997031689 986
16.2999997027218 1011
16.3199997022748 996
16.3399997018278 1016
16.3599997013807 1041
16.3799997009337 974
16.3999997004867 977
16.4199997000396 983
16.4399996995926 1027
16.4599996991456 1006
16.4799996986985 982
16.4999996982515 1007
16.5199996978045 1027
16.5399996973574 1019
16.5599996969104 996
16.5799996964633 985
16.5999996960163 989
16.6199996955693 1001
16.6399996951222 1072
16.6599996946752 1071
16.6799996942282 1061
16.6999996937811 1036
16.7199996933341 1057
16.7399996928871 1052
16.75999969244 1080
16.779999691993 1114
16.799999691546 1071
16.8199996910989 1065
16.8399996906519 1069
16.8599996902049 1049
16.8799996897578 1087
16.8999996893108 1121
16.9199996888638 1185
16.9399996884167 1166
16.9599996879697 1167
16.9799996875226 1230
16.9999996870756 1340
17.0199996866286 1303
17.0399996861815 1254
17.0599996857345 1302
17.0799996852875 1171
17.0999996848404 1130
17.1199996843934 1183
17.1399996839464 1142
17.1599996834993 1117
17.1799996830523 1096
17.1999996826053 1164
17.2199996821582 1153
17.2399996817112 1177
17.2599996812642 1197
17.2799996808171 1147
17.2999996803701 1176
17.3199996799231 1123
17.339999679476 1192
17.359999679029 1192
17.379999678582 1175
17.3999996781349 1198
17.4199996776879 1196
17.4399996772408 1212
17.4599996767938 1188
17.4799996763468 1154
17.4999996758997 1227
17.5199996754527 1137
17.5399996750057 1120
17.5599996745586 1204
17.5799996741116 1227
17.5999996736646 1290
17.6199996732175 1192
17.6399996727705 1217
17.6599996723235 1251
17.6799996718764 1228
17.6999996714294 1195
17.7199996709824 1256
17.7399996705353 1224
17.7599996700883 1246
17.7799996696413 1270
17.7999996691942 1272
17.8199996687472 1251
17.8399996683002 1245
17.8599996678531 1289
17.8799996674061 1284
17.899999666959 1321
17.919999666512 1289
17.939999666065 1236
17.9599996656179 1265
17.9799996651709 1331
17.9999996647239 1299
18.0199996642768 1289
18.0399996638298 1253
18.0599996633828 1327
18.0799996629357 1259
18.0999996624887 1289
18.1199996620417 1321
18.1399996615946 1312
18.1599996611476 1246
18.1799996607006 1294
18.1999996602535 1327
18.2199996598065 1402
18.2399996593595 1382
18.2599996589124 1294
18.2799996584654 1353
18.2999996580184 1308
18.3199996575713 1359
18.3399996571243 1380
18.3599996566772 1397
18.3799996562302 1380
18.3999996557832 1458
18.4199996553361 1311
18.4399996548891 1415
18.4599996544421 1346
18.479999653995 1334
18.499999653548 1400
18.519999653101 1422
18.5399996526539 1386
18.5599996522069 1384
18.5799996517599 1382
18.5999996513128 1381
18.6199996508658 1424
18.6399996504188 1442
18.6599996499717 1436
18.6799996495247 1455
18.6999996490777 1451
18.7199996486306 1430
18.7399996481836 1503
18.7599996477366 1501
18.7799996472895 1488
18.7999996468425 1516
18.8199996463954 1461
18.8399996459484 1534
18.8599996455014 1458
18.8799996450543 1494
18.8999996446073 1510
18.9199996441603 1542
18.9399996437132 1445
18.9599996432662 1476
18.9799996428192 1546
18.9999996423721 1505
19.0199996419251 1533
19.0399996414781 1518
19.059999641031 1544
19.079999640584 1597
19.099999640137 1569
19.1199996396899 1631
19.1399996392429 1596
19.1599996387959 1596
19.1799996383488 1708
19.1999996379018 1679
19.2199996374547 1613
19.2399996370077 1611
19.2599996365607 1635
19.2799996361136 1600
19.2999996356666 1618
19.3199996352196 1566
19.3399996347725 1581
19.3599996343255 1641
19.3799996338785 1538
19.3999996334314 1573
19.4199996329844 1605
19.4399996325374 1682
19.4599996320903 1635
19.4799996316433 1728
19.4999996311963 1674
19.5199996307492 1690
19.5399996303022 1818
19.5599996298552 1768
19.5799996294081 1805
19.5999996289611 1781
19.6199996285141 1687
19.639999628067 1805
19.65999962762 1703
19.6799996271729 1723
19.6999996267259 1731
19.7199996262789 1699
19.7399996258318 1711
19.7599996253848 1691
19.7799996249378 1734
19.7999996244907 1606
19.8199996240437 1715
19.8399996235967 1708
19.8599996231496 1789
19.8799996227026 1660
19.8999996222556 1682
19.9199996218085 1650
19.9399996213615 1711
19.9599996209145 1697
19.9799996204674 1741
19.9999996200204 1727
