3 2143
3.01999999955297 2109
3.03999999910593 2052
3.0599999986589 2005
3.07999999821186 1903
3.09999999776483 1903
3.11999999731779 1774
3.13999999687076 1855
3.15999999642372 1911
3.17999999597669 1829
3.19999999552965 1789
3.21999999508262 1749
3.23999999463558 1685
3.25999999418855 1729
3.27999999374151 1690
3.29999999329448 1720
3.31999999284744 1641
3.33999999240041 1605
3.35999999195337 1602
3.37999999150634 1544
3.3999999910593 1582
3.41999999061227 1504
3.43999999016523 1510
3.4599999897182 1560
3.47999998927116 1558
3.49999998882413 1483
3.51999998837709 1513
3.53999998793006 1498
3.55999998748302 1493
3.57999998703599 1429
3.59999998658895 1482
3.61999998614192 1412
3.63999998569489 1462
3.65999998524785 1399
3.67999998480082 1459
3.69999998435378 1424
3.71999998390675 1356
3.73999998345971 1287
3.75999998301268 1337
3.77999998256564 1327
3.79999998211861 1364
3.81999998167157 1338
3.83999998122454 1341
3.8599999807775 1383
3.87999998033047 1308
3.89999997988343 1365
3.9199999794364 1279
3.93999997898936 1276
3.95999997854233 1289
3.97999997809529 1320
3.99999997764826 1358
4.01999997720122 1372
4.03999997675419 1309
4.05999997630715 1271
4.07999997586012 1273
4.09999997541308 1311
4.11999997496605 1310
4.13999997451901 1308
4.15999997407198 1291
4.17999997362494 1277
4.19999997317791 1282
4.21999997273087 1265
4.23999997228384 1194
4.25999997183681 1250
4.27999997138977 1214
4.29999997094274 1281
4.3199999704957 1164
4.33999997004867 1264
4.35999996960163 1243
4.3799999691546 1241
4.39999996870756 1193
4.41999996826053 1181
4.43999996781349 1211
4.45999996736646 1158
4.47999996691942 1197
4.49999996647239 1199
4.51999996602535 1218
4.53999996557832 1231
4.55999996513128 1218
4.57999996468425 1261
4.59999996423721 1234
4.61999996379018 1223
4.63999996334314 1225
4.65999996289611 1230
4.67999996244907 1220
4.69999996200204 1270
4.719999961555 1188
4.73999996110797 1189
4.75999996066093 1229
4.7799999602139 1216
4.79999995976686 1239
4.81999995931983 1220
4.83999995887279 1207
4.85999995842576 1248
4.87999995797873 1278
4.89999995753169 1307
4.91999995708466 1306
4.93999995663762 1314
4.95999995619059 1270
4.97999995574355 1394
4.99999995529652 1250
5.01999995484948 1301
5.03999995440245 1281
5.05999995395541 1258
5.07999995350838 1264
5.09999995306134 1374
5.11999995261431 1324
5.13999995216727 1349
5.15999995172024 1262
5.1799999512732 1336
5.19999995082617 1335
5.21999995037913 1394
5.2399999499321 1420
5.25999994948506 1389
5.27999994903803 1483
5.29999994859099 1449
5.31999994814396 1478
5.33999994769692 1587
5.35999994724989 1570
5.37999994680285 1565
5.39999994635582 1548
5.41999994590878 1656
5.43999994546175 1675
5.45999994501471 1604
5.47999994456768 1593
5.49999994412065 1604
5.51999994367361 1552
5.53999994322658 1535
5.55999994277954 1480
5.57999994233251 1610
5.59999994188547 1567
5.61999994143844 1630
5.6399999409914 1617
5.65999994054437 1654
5.67999994009733 1746
5.6999999396503 1767
5.71999993920326 1824
5.73999993875623 1894
5.75999993830919 1915
5.77999993786216 1840
5.79999993741512 1801
5.81999993696809 1836
5.83999993652105 1719
5.85999993607402 1509
5.87999993562698 1388
5.89999993517995 1349
5.91999993473291 1235
5.93999993428588 1161
5.95999993383884 1161
5.97999993339181 1107
5.99999993294477 1055
6.01999993249774 1045
6.0399999320507 1017
6.05999993160367 1047
6.07999993115663 1000
6.0999999307096 1011
6.11999993026257 969
6.13999992981553 951
6.1599999293685 992
6.17999992892146 965
6.19999992847443 928
6.21999992802739 904
6.23999992758036 926
6.25999992713332 936
6.27999992668629 894
6.29999992623925 969
6.31999992579222 900
6.33999992534518 923
6.35999992489815 853
6.37999992445111 874
6.39999992400408 871
6.41999992355704 906
6.43999992311001 827
6.45999992266297 904
6.47999992221594 934
6.4999999217689 926
6.51999992132187 881
6.53999992087483 899
6.5599999204278 888
6.57999991998076 820
6.59999991953373 855
6.61999991908669 889
6.63999991863966 904
6.65999991819262 840
6.67999991774559 877
6.69999991729855 877
6.71999991685152 843
6.73999991640449 871
6.75999991595745 828
6.77999991551042 818
6.79999991506338 869
6.81999991461635 812
6.83999991416931 789
6.85999991372228 820
6.87999991327524 731
6.89999991282821 779
6.91999991238117 766
6.93999991193414 747
6.9599999114871 785
6.97999991104007 741
6.99999991059303 731
7.019999910146 721
7.03999990969896 745
7.05999990925193 723
7.07999990880489 734
7.09999990835786 705
7.11999990791082 735
7.13999990746379 734
7.15999990701675 742
7.17999990656972 696
7.19999990612268 710
7.21999990567565 703
7.23999990522861 721
7.25999990478158 733
7.27999990433454 764
7.29999990388751 720
7.31999990344047 702
7.33999990299344 650
7.35999990254641 679
7.37999990209937 735
7.39999990165234 706
7.4199999012053 713
7.43999990075827 696
7.45999990031123 711
7.4799998998642 718
7.49999989941716 688
7.51999989897013 733
7.53999989852309 688
7.55999989807606 724
7.57999989762902 677
7.59999989718199 712
7.61999989673495 695
7.63999989628792 703
7.65999989584088 690
7.67999989539385 699
7.69999989494681 692
7.71999989449978 711
7.73999989405274 658
7.75999989360571 633
7.77999989315867 691
7.79999989271164 697
7.8199998922646 704
7.83999989181757 747
7.85999989137053 687
7.8799998909235 718
7.89999989047646 713
7.91999989002943 672
7.9399998895824 731
7.95999988913536 670
7.97999988868833 681
7.99999988824129 649
8.01999988779426 655
8.03999988734722 649
8.05999988690019 690
8.07999988645315 658
8.09999988600612 707
8.11999988555908 678
8.13999988511205 699
8.15999988466501 685
8.17999988421798 696
8.19999988377094 745
8.21999988332391 651
8.23999988287687 703
8.25999988242984 724
8.2799998819828 708
8.29999988153577 706
8.31999988108873 697
8.3399998806417 718
8.35999988019466 697
8.37999987974763 707
8.39999987930059 679
8.41999987885356 712
8.43999987840652 713
8.45999987795949 696
8.47999987751245 689
8.49999987706542 696
8.51999987661839 709
8.53999987617135 682
8.55999987572432 670
8.57999987527728 725
8.59999987483025 717
8.61999987438321 667
8.63999987393618 663
8.65999987348914 671
8.67999987304211 695
8.69999987259507 703
8.71999987214804 740
8.739999871701 748
8.75999987125397 729
8.77999987080693 715
8.7999998703599 749
8.81999986991286 737
8.83999986946583 688
8.85999986901879 698
8.87999986857176 676
8.89999986812472 731
8.91999986767769 791
8.93999986723065 761
8.95999986678362 777
8.97999986633658 725
8.99999986588955 704
9.01999986544251 753
9.03999986499548 714
9.05999986454844 727
9.07999986410141 818
9.09999986365438 787
9.11999986320734 834
9.13999986276031 847
9.15999986231327 867
9.17999986186624 906
9.1999998614192 857
9.21999986097217 882
9.23999986052513 935
9.2599998600781 945
9.27999985963106 928
9.29999985918403 997
9.31999985873699 1018
9.33999985828996 1066
9.35999985784292 1022
9.37999985739589 1021
9.39999985694885 968
9.41999985650182 894
9.43999985605478 813
9.45999985560775 842
9.47999985516071 787
9.49999985471368 812
9.51999985426664 774
9.53999985381961 794
9.55999985337257 819
9.57999985292554 782
9.5999998524785 789
9.61999985203147 789
9.63999985158443 742
9.6599998511374 760
9.67999985069037 766
9.69999985024333 851
9.7199998497963 749
9.73999984934926 766
9.75999984890223 781
9.77999984845519 825
9.79999984800816 777
9.81999984756112 814
9.83999984711409 808
9.85999984666705 746
9.87999984622002 781
9.89999984577298 805
9.91999984532595 848
9.93999984487891 797
9.95999984443188 787
9.97999984398484 720
9.99999984353781 773
10.0199998430908 769
10.0399998426437 837
10.0599998421967 807
10.0799998417497 776
10.0999998413026 841
10.1199998408556 759
10.1399998404086 822
10.1599998399615 885
10.1799998395145 834
10.1999998390675 844
10.2199998386204 828
10.2399998381734 779
10.2599998377264 759
10.2799998372793 776
10.2999998368323 757
10.3199998363853 754
10.3399998359382 774
10.3599998354912 798
10.3799998350441 759
10.3999998345971 726
10.4199998341501 755
10.439999833703 768
10.459999833256 739
10.479999832809 770
10.4999998323619 744
10.5199998319149 743
10.5399998314679 749
10.5599998310208 816
10.5799998305738 781
10.5999998301268 779
10.6199998296797 761
10.6399998292327 771
10.6599998287857 782
10.6799998283386 806
10.6999998278916 773
10.7199998274446 768
10.7399998269975 764
10.7599998265505 841
10.7799998261034 836
10.7999998256564 863
10.8199998252094 862
10.8399998247623 802
10.8599998243153 871
10.8799998238683 908
10.8999998234212 836
10.9199998229742 908
10.9399998225272 884
10.9599998220801 873
10.9799998216331 864
10.9999998211861 830
11.019999820739 855
11.039999820292 820
11.059999819845 783
11.0799998193979 737
11.0999998189509 713
11.1199998185039 720
11.1399998180568 763
11.1599998176098 759
11.1799998171628 746
11.1999998167157 715
11.2199998162687 740
11.2399998158216 747
11.2599998153746 700
11.2799998149276 676
11.2999998144805 724
11.3199998140335 713
11.3399998135865 711
11.3599998131394 723
11.3799998126924 697
11.3999998122454 716
11.4199998117983 746
11.4399998113513 720
11.4599998109043 748
11.4799998104572 750
11.4999998100102 749
11.5199998095632 744
11.5399998091161 704
11.5599998086691 801
11.5799998082221 719
11.599999807775 772
11.619999807328 726
11.639999806881 722
11.6599998064339 702
11.6799998059869 715
11.6999998055398 708
11.7199998050928 669
11.7399998046458 713
11.7599998041987 679
11.7799998037517 701
11.7999998033047 730
11.8199998028576 699
11.8399998024106 694
11.8599998019636 666
11.8799998015165 675
11.8999998010695 639
11.9199998006225 684
11.9399998001754 701
11.9599997997284 726
11.9799997992814 687
11.9999997988343 644
12.0199997983873 754
12.0399997979403 645
12.0599997974932 687
12.0799997970462 703
12.0999997965992 725
12.1199997961521 708
12.1399997957051 653
12.159999795258 699
12.179999794811 723
12.199999794364 725
12.2199997939169 711
12.2399997934699 717
12.2599997930229 693
12.2799997925758 694
12.2999997921288 758
12.3199997916818 670
12.3399997912347 729
12.3599997907877 674
12.3799997903407 670
12.3999997898936 678
12.4199997894466 686
12.4399997889996 692
12.4599997885525 679
12.4799997881055 671
12.4999997876585 677
12.5199997872114 664
12.5399997867644 704
12.5599997863173 710
12.5799997858703 694
12.5999997854233 694
12.6199997849762 655
12.6399997845292 713
12.6599997840822 708
12.6799997836351 675
12.6999997831881 664
12.7199997827411 673
12.739999782294 649
12.759999781847 698
12.7799997814 698
12.7999997809529 729
12.8199997805059 700
12.8399997800589 708
12.8599997796118 684
12.8799997791648 678
12.8999997787178 686
12.9199997782707 678
12.9399997778237 698
12.9599997773767 743
12.9799997769296 700
12.9999997764826 712
13.0199997760355 659
13.0399997755885 677
13.0599997751415 708
13.0799997746944 666
13.0999997742474 707
13.1199997738004 725
13.1399997733533 711
13.1599997729063 709
13.1799997724593 685
13.1999997720122 746
13.2199997715652 706
13.2399997711182 711
13.2599997706711 720
13.2799997702241 719
13.2999997697771 745
13.31999976933 769
13.339999768883 741
13.359999768436 777
13.3799997679889 757
13.3999997675419 750
13.4199997670949 735
13.4399997666478 746
13.4599997662008 740
13.4799997657537 734
13.4999997653067 706
13.5199997648597 730
13.5399997644126 759
13.5599997639656 795
13.5799997635186 729
13.5999997630715 713
13.6199997626245 751
13.6399997621775 732
13.6599997617304 747
13.6799997612834 754
13.6999997608364 760
13.7199997603893 756
13.7399997599423 729
13.7599997594953 707
13.7799997590482 744
13.7999997586012 758
13.8199997581542 748
13.8399997577071 740
13.8599997572601 751
13.879999756813 732
13.899999756366 770
13.919999755919 718
13.9399997554719 736
13.9599997550249 742
13.9799997545779 718
13.9999997541308 784
14.0199997536838 754
14.0399997532368 713
14.0599997527897 737
14.0799997523427 751
14.0999997518957 796
14.1199997514486 787
14.1399997510016 783
14.1599997505546 779
14.1799997501075 764
14.1999997496605 760
14.2199997492135 754
14.2399997487664 743
14.2599997483194 773
14.2799997478724 779
14.2999997474253 810
14.3199997469783 833
14.3399997465312 832
14.3599997460842 809
14.3799997456372 785
14.3999997451901 815
14.4199997447431 823
14.4399997442961 796
14.459999743849 823
14.479999743402 810
14.499999742955 811
14.5199997425079 776
14.5399997420609 785
14.5599997416139 811
14.5799997411668 817
14.5999997407198 847
14.6199997402728 813
14.6399997398257 849
14.6599997393787 806
14.6799997389317 832
14.6999997384846 812
14.7199997380376 857
14.7399997375906 774
14.7599997371435 832
14.7799997366965 813
14.7999997362494 857
14.8199997358024 813
14.8399997353554 769
14.8599997349083 816
14.8799997344613 865
14.8999997340143 836
14.9199997335672 838
14.9399997331202 842
14.9599997326732 859
14.9799997322261 843
14.9999997317791 830
15.0199997313321 874
15.039999730885 834
15.059999730438 794
15.079999729991 867
15.0999997295439 863
15.1199997290969 829
15.1399997286499 790
15.1599997282028 887
15.1799997277558 833
15.1999997273088 861
15.2199997268617 850
15.2399997264147 887
15.2599997259676 842
15.2799997255206 871
15.2999997250736 843
15.3199997246265 865
15.3399997241795 871
15.3599997237325 817
15.3799997232854 890
15.3999997228384 903
15.4199997223914 884
15.4399997219443 836
15.4599997214973 892
15.4799997210503 851
15.4999997206032 909
15.5199997201562 875
15.5399997197092 901
15.5599997192621 910
15.5799997188151 901
15.5999997183681 870
15.619999717921 892
15.639999717474 936
15.659999717027 848
15.6799997165799 933
15.6999997161329 878
15.7199997156858 945
15.7399997152388 877
15.7599997147918 886
15.7799997143447 906
15.7999997138977 896
15.8199997134507 919
15.8399997130036 817
15.8599997125566 863
15.8799997121096 882
15.8999997116625 858
15.9199997112155 915
15.9399997107685 941
15.9599997103214 951
15.9799997098744 904
15.9999997094274 904
16.0199997089803 927
16.0399997085333 926
16.0599997080863 937
16.0799997076392 926
16.0999997071922 962
16.1199997067451 930
16.1399997062981 923
16.1599997058511 949
16.179999705404 913
16.199999704957 972
16.21999970451 930
16.2399997040629 965
16.2599997036159 924
16.2799997031689 970
16.2999997027218 968
16.3199997022748 964
16.3399997018278 951
16.3599997013807 999
16.3799997009337 1025
16.3999997004867 945
16.4199997000396 1004
16.4399996995926 989
16.4599996991456 989
16.4799996986985 1003
16.4999996982515 1029
16.5199996978045 976
16.5399996973574 964
16.5599996969104 1016
16.5799996964633 976
16.5999996960163 1040
16.6199996955693 1002
16.6399996951222 984
16.6599996946752 1056
16.6799996942282 1022
16.6999996937811 1032
16.7199996933341 1006
16.7399996928871 1138
16.75999969244 1035
16.779999691993 1082
16.799999691546 1106
16.8199996910989 1098
16.8399996906519 1171
16.8599996902049 1227
16.8799996897578 1253
16.8999996893108 1400
16.9199996888638 1512
16.9399996884167 1645
16.9599996879697 1760
16.9799996875226 1739
16.9999996870756 1714
17.0199996866286 1565
17.0399996861815 1485
17.0599996857345 1335
17.0799996852875 1280
17.0999996848404 1204
17.1199996843934 1140
17.1399996839464 1084
17.1599996834993 1137
17.1799996830523 1110
17.1999996826053 1069
17.2199996821582 1132
17.2399996817112 1133
17.2599996812642 1106
17.2799996808171 1151
17.2999996803701 1139
17.3199996799231 1086
17.339999679476 1078
17.359999679029 1171
17.379999678582 1163
17.3999996781349 1166
17.4199996776879 1107
17.4399996772408 1163
17.4599996767938 1136
17.4799996763468 1101
17.4999996758997 1084
17.5199996754527 1160
17.5399996750057 1154
17.5599996745586 1131
17.5799996741116 1120
17.5999996736646 1148
17.6199996732175 1170
17.6399996727705 1117
17.6599996723235 1154
17.6799996718764 1144
17.6999996714294 1144
17.7199996709824 1132
17.7399996705353 1147
17.7599996700883 1148
17.7799996696413 1163
17.7999996691942 1187
17.8199996687472 1130
17.8399996683002 1160
17.8599996678531 1179
17.8799996674061 1204
17.899999666959 1233
17.919999666512 1153
17.939999666065 1232
17.9599996656179 1204
17.9799996651709 1242
17.9999996647239 1227
18.0199996642768 1183
18.0399996638298 1199
18.0599996633828 1201
18.0799996629357 1222
18.0999996624887 1236
18.1199996620417 1211
18.1399996615946 1155
18.1599996611476 1205
18.1799996607006 1168
18.1999996602535 1219
18.2199996598065 1261
18.2399996593595 1216
18.2599996589124 1215
18.2799996584654 1255
18.2999996580184 1240
18.3199996575713 1268
18.3399996571243 1271
18.3599996566772 1247
18.3799996562302 1280
18.3999996557832 1254
18.4199996553361 1361
18.4399996548891 1296
18.4599996544421 1266
18.479999653995 1294
18.499999653548 1314
18.519999653101 1306
18.5399996526539 1304
18.5599996522069 1277
18.5799996517599 1314
18.5999996513128 1248
18.6199996508658 1298
18.6399996504188 1296
18.6599996499717 1345
18.6799996495247 1370
18.6999996490777 1291
18.7199996486306 1327
18.7399996481836 1305
18.7599996477366 1295
18.7799996472895 1351
18.7999996468425 1340
18.8199996463954 1318
18.8399996459484 1351
18.8599996455014 1392
18.8799996450543 1378
18.8999996446073 1395
18.9199996441603 1388
18.9399996437132 1412
18.9599996432662 1394
18.9799996428192 1380
18.9999996423721 1371
19.0199996419251 1355
19.0399996414781 1396
19.059999641031 1462
19.079999640584 1460
19.099999640137 1474
19.1199996396899 1475
19.1399996392429 1419
19.1599996387959 1398
19.1799996383488 1412
19.1999996379018 1495
19.2199996374547 1390
19.2399996370077 1387
19.2599996365607 1429
19.2799996361136 1380
19.2999996356666 1445
19.3199996352196 1448
19.3399996347725 1405
19.3599996343255 1532
19.3799996338785 1437
19.3999996334314 1474
19.4199996329844 1503
19.4399996325374 1482
19.4599996320903 1506
19.4799996316433 1487
19.4999996311963 1523
19.5199996307492 1478
19.5399996303022 1489
19.5599996298552 1544
19.5799996294081 1541
19.5999996289611 1524
19.6199996285141 1483
19.639999628067 1441
19.65999962762 1488
19.6799996271729 1361
19.6999996267259 1472
19.7199996262789 1484
19.7399996258318 1433
19.7599996253848 1552
19.7799996249378 1505
19.7999996244907 1516
19.8199996240437 1486
19.8399996235967 1527
19.8599996231496 1567
19.8799996227026 1504
19.8999996222556 1506
19.9199996218085 1515
19.9399996213615 1508
19.9599996209145 1514
19.9799996204674 1508
19.9999996200204 1472
