3 1656
3.01999999955297 1480
3.03999999910593 1524
3.0599999986589 1384
3.07999999821186 1328
3.09999999776483 1370
3.11999999731779 1315
3.13999999687076 1386
3.15999999642372 1338
3.17999999597669 1280
3.19999999552965 1270
3.21999999508262 1212
3.23999999463558 1219
3.25999999418855 1201
3.27999999374151 1223
3.29999999329448 1236
3.31999999284744 1215
3.33999999240041 1215
3.35999999195337 1239
3.37999999150634 1125
3.3999999910593 1164
3.41999999061227 1188
3.43999999016523 1165
3.4599999897182 1157
3.47999998927116 1129
3.49999998882413 1129
3.51999998837709 1178
3.53999998793006 1152
3.55999998748302 1112
3.57999998703599 1134
3.59999998658895 1160
3.61999998614192 1180
3.63999998569489 1169
3.65999998524785 1145
3.67999998480082 1045
3.69999998435378 1151
3.71999998390675 1066
3.73999998345971 1043
3.75999998301268 1122
3.77999998256564 1086
3.79999998211861 1090
3.81999998167157 1095
3.83999998122454 1119
3.8599999807775 1090
3.87999998033047 1101
3.89999997988343 1114
3.9199999794364 1103
3.93999997898936 1108
3.95999997854233 1068
3.97999997809529 1139
3.99999997764826 1104
4.01999997720122 1111
4.03999997675419 1140
4.05999997630715 1104
4.07999997586012 1115
4.09999997541308 1075
4.11999997496605 1101
4.13999997451901 1165
4.15999997407198 1132
4.17999997362494 1101
4.19999997317791 1081
4.21999997273087 1075
4.23999997228384 1044
4.25999997183681 1114
4.27999997138977 1056
4.29999997094274 1017
4.3199999704957 998
4.33999997004867 1015
4.35999996960163 972
4.3799999691546 1045
4.39999996870756 1055
4.41999996826053 982
4.43999996781349 947
4.45999996736646 991
4.47999996691942 948
4.49999996647239 966
4.51999996602535 991
4.53999996557832 950
4.55999996513128 1032
4.57999996468425 1020
4.59999996423721 946
4.61999996379018 1002
4.63999996334314 961
4.65999996289611 1005
4.67999996244907 999
4.69999996200204 1006
4.719999961555 970
4.73999996110797 1027
4.75999996066093 970
4.7799999602139 981
4.79999995976686 1079
4.81999995931983 1027
4.83999995887279 1011
4.85999995842576 1016
4.87999995797873 1037
4.89999995753169 1048
4.91999995708466 1049
4.93999995663762 1088
4.95999995619059 1105
4.97999995574355 1145
4.99999995529652 1074
5.01999995484948 1012
5.03999995440245 1175
5.05999995395541 1093
5.07999995350838 1091
5.09999995306134 1077
5.11999995261431 1195
5.13999995216727 1145
5.15999995172024 1122
5.1799999512732 1148
5.19999995082617 1187
5.21999995037913 1248
5.2399999499321 1209
5.25999994948506 1249
5.27999994903803 1273
5.29999994859099 1419
5.31999994814396 1382
5.33999994769692 1375
5.35999994724989 1373
5.37999994680285 1482
5.39999994635582 1569
5.41999994590878 1632
5.43999994546175 1710
5.45999994501471 1806
5.47999994456768 1960
5.49999994412065 2042
5.51999994367361 1931
5.53999994322658 1795
5.55999994277954 1665
5.57999994233251 1580
5.59999994188547 1630
5.61999994143844 1642
5.6399999409914 1708
5.65999994054437 1701
5.67999994009733 1803
5.6999999396503 1785
5.71999993920326 1904
5.73999993875623 1963
5.75999993830919 2109
5.77999993786216 2173
5.79999993741512 2334
5.81999993696809 2516
5.83999993652105 2509
5.85999993607402 2363
5.87999993562698 2249
5.89999993517995 1963
5.91999993473291 1642
5.93999993428588 1432
5.95999993383884 1268
5.97999993339181 1147
5.99999993294477 1070
6.01999993249774 989
6.0399999320507 965
6.05999993160367 885
6.07999993115663 947
6.0999999307096 927
6.11999993026257 871
6.13999992981553 829
6.1599999293685 836
6.17999992892146 857
6.19999992847443 869
6.21999992802739 835
6.23999992758036 883
6.25999992713332 880
6.27999992668629 801
6.29999992623925 880
6.31999992579222 798
6.33999992534518 837
6.35999992489815 837
6.37999992445111 858
6.39999992400408 785
6.41999992355704 753
6.43999992311001 810
6.45999992266297 769
6.47999992221594 836
6.4999999217689 816
6.51999992132187 807
6.53999992087483 828
6.5599999204278 796
6.57999991998076 782
6.59999991953373 782
6.61999991908669 852
6.63999991863966 798
6.65999991819262 840
6.67999991774559 836
6.69999991729855 841
6.71999991685152 867
6.73999991640449 792
6.75999991595745 817
6.77999991551042 895
6.79999991506338 845
6.81999991461635 837
6.83999991416931 919
6.85999991372228 847
6.87999991327524 881
6.89999991282821 823
6.91999991238117 807
6.93999991193414 758
6.9599999114871 725
6.97999991104007 722
6.99999991059303 758
7.019999910146 717
7.03999990969896 683
7.05999990925193 709
7.07999990880489 693
7.09999990835786 741
7.11999990791082 680
7.13999990746379 675
7.15999990701675 755
7.17999990656972 655
7.19999990612268 718
7.21999990567565 691
7.23999990522861 703
7.25999990478158 665
7.27999990433454 682
7.29999990388751 728
7.31999990344047 694
7.33999990299344 671
7.35999990254641 666
7.37999990209937 649
7.39999990165234 656
7.4199999012053 614
7.43999990075827 687
7.45999990031123 696
7.4799998998642 732
7.49999989941716 674
7.51999989897013 693
7.53999989852309 662
7.55999989807606 646
7.57999989762902 691
7.59999989718199 648
7.61999989673495 684
7.63999989628792 714
7.65999989584088 683
7.67999989539385 624
7.69999989494681 672
7.71999989449978 739
7.73999989405274 684
7.75999989360571 685
7.77999989315867 728
7.79999989271164 681
7.8199998922646 687
7.83999989181757 665
7.85999989137053 645
7.8799998909235 692
7.89999989047646 746
7.91999989002943 644
7.9399998895824 687
7.95999988913536 703
7.97999988868833 704
7.99999988824129 713
8.01999988779426 679
8.03999988734722 683
8.05999988690019 744
8.07999988645315 689
8.09999988600612 669
8.11999988555908 670
8.13999988511205 688
8.15999988466501 722
8.17999988421798 728
8.19999988377094 701
8.21999988332391 702
8.23999988287687 678
8.25999988242984 736
8.2799998819828 712
8.29999988153577 705
8.31999988108873 642
8.3399998806417 686
8.35999988019466 696
8.37999987974763 705
8.39999987930059 717
8.41999987885356 680
8.43999987840652 676
8.45999987795949 679
8.47999987751245 746
8.49999987706542 678
8.51999987661839 717
8.53999987617135 713
8.55999987572432 698
8.57999987527728 703
8.59999987483025 618
8.61999987438321 732
8.63999987393618 689
8.65999987348914 686
8.67999987304211 669
8.69999987259507 703
8.71999987214804 681
8.739999871701 699
8.75999987125397 687
8.77999987080693 707
8.7999998703599 713
8.81999986991286 742
8.83999986946583 717
8.85999986901879 708
8.87999986857176 694
8.89999986812472 732
8.91999986767769 679
8.93999986723065 737
8.95999986678362 748
8.97999986633658 719
8.99999986588955 737
9.01999986544251 790
9.03999986499548 746
9.05999986454844 760
9.07999986410141 744
9.09999986365438 740
9.11999986320734 784
9.13999986276031 781
9.15999986231327 832
9.17999986186624 798
9.1999998614192 826
9.21999986097217 870
9.23999986052513 878
9.2599998600781 911
9.27999985963106 921
9.29999985918403 1012
9.31999985873699 1048
9.33999985828996 1074
9.35999985784292 1098
9.37999985739589 1229
9.39999985694885 1310
9.41999985650182 1391
9.43999985605478 1234
9.45999985560775 1068
9.47999985516071 896
9.49999985471368 889
9.51999985426664 812
9.53999985381961 782
9.55999985337257 811
9.57999985292554 729
9.5999998524785 742
9.61999985203147 765
9.63999985158443 773
9.6599998511374 759
9.67999985069037 756
9.69999985024333 808
9.7199998497963 777
9.73999984934926 793
9.75999984890223 741
9.77999984845519 775
9.79999984800816 770
9.81999984756112 752
9.83999984711409 761
9.85999984666705 803
9.87999984622002 744
9.89999984577298 793
9.91999984532595 822
9.93999984487891 783
9.95999984443188 775
9.97999984398484 785
9.99999984353781 733
10.0199998430908 780
10.0399998426437 751
10.0599998421967 780
10.0799998417497 836
10.0999998413026 790
10.1199998408556 803
10.1399998404086 814
10.1599998399615 847
10.1799998395145 894
10.1999998390675 868
10.2199998386204 892
10.2399998381734 889
10.2599998377264 886
10.2799998372793 886
10.2999998368323 826
10.3199998363853 808
10.3399998359382 837
10.3599998354912 764
10.3799998350441 808
10.3999998345971 835
10.4199998341501 828
10.439999833703 752
10.459999833256 803
10.479999832809 774
10.4999998323619 766
10.5199998319149 735
10.5399998314679 712
10.5599998310208 764
10.5799998305738 752
10.5999998301268 754
10.6199998296797 777
10.6399998292327 797
10.6599998287857 801
10.6799998283386 809
10.6999998278916 803
10.7199998274446 839
10.7399998269975 794
10.7599998265505 855
10.7799998261034 836
10.7999998256564 840
10.8199998252094 921
10.8399998247623 918
10.8599998243153 985
10.8799998238683 1025
10.8999998234212 926
10.9199998229742 928
10.9399998225272 983
10.9599998220801 972
10.9799998216331 1035
10.9999998211861 1110
11.019999820739 1135
11.039999820292 1125
11.059999819845 1077
11.0799998193979 961
11.0999998189509 878
11.1199998185039 836
11.1399998180568 786
11.1599998176098 801
11.1799998171628 772
11.1999998167157 808
11.2199998162687 777
11.2399998158216 794
11.2599998153746 753
11.2799998149276 729
11.2999998144805 773
11.3199998140335 789
11.3399998135865 744
11.3599998131394 797
11.3799998126924 792
11.3999998122454 781
11.4199998117983 823
11.4399998113513 843
11.4599998109043 794
11.4799998104572 810
11.4999998100102 793
11.5199998095632 828
11.5399998091161 859
11.5599998086691 811
11.5799998082221 902
11.599999807775 817
11.619999807328 837
11.639999806881 859
11.6599998064339 819
11.6799998059869 803
11.6999998055398 773
11.7199998050928 744
11.7399998046458 751
11.7599998041987 820
11.7799998037517 768
11.7999998033047 754
11.8199998028576 747
11.8399998024106 731
11.8599998019636 755
11.8799998015165 732
11.8999998010695 768
11.9199998006225 772
11.9399998001754 761
11.9599997997284 731
11.9799997992814 700
11.9999997988343 788
12.0199997983873 759
12.0399997979403 753
12.0599997974932 743
12.0799997970462 722
12.0999997965992 744
12.1199997961521 774
12.1399997957051 799
12.159999795258 816
12.179999794811 776
12.199999794364 805
12.2199997939169 805
12.2399997934699 826
12.2599997930229 818
12.2799997925758 808
12.2999997921288 836
12.3199997916818 830
12.3399997912347 788
12.3599997907877 774
12.3799997903407 780
12.3999997898936 771
12.4199997894466 804
12.4399997889996 788
12.4599997885525 815
12.4799997881055 812
12.4999997876585 797
12.5199997872114 765
12.5399997867644 755
12.5599997863173 792
12.5799997858703 773
12.5999997854233 771
12.6199997849762 772
12.6399997845292 748
12.6599997840822 746
12.6799997836351 740
12.6999997831881 767
12.7199997827411 799
12.739999782294 796
12.759999781847 728
12.7799997814 715
12.7999997809529 798
12.8199997805059 801
12.8399997800589 796
12.8599997796118 789
12.8799997791648 764
12.8999997787178 721
12.9199997782707 761
12.9399997778237 798
12.9599997773767 832
12.9799997769296 774
12.9999997764826 752
13.0199997760355 787
13.0399997755885 805
13.0599997751415 800
13.0799997746944 818
13.0999997742474 810
13.1199997738004 760
13.1399997733533 807
13.1599997729063 804
13.1799997724593 800
13.1999997720122 829
13.2199997715652 827
13.2399997711182 801
13.2599997706711 823
13.2799997702241 866
13.2999997697771 851
13.31999976933 811
13.339999768883 787
13.359999768436 831
13.3799997679889 901
13.3999997675419 848
13.4199997670949 884
13.4399997666478 867
13.4599997662008 906
13.4799997657537 851
13.4999997653067 872
13.5199997648597 828
13.5399997644126 836
13.5599997639656 835
13.5799997635186 838
13.5999997630715 808
13.6199997626245 852
13.6399997621775 826
13.6599997617304 838
13.6799997612834 901
13.6999997608364 850
13.7199997603893 843
13.7399997599423 821
13.7599997594953 892
13.7799997590482 906
13.7999997586012 879
13.8199997581542 853
13.8399997577071 850
13.8599997572601 897
13.879999756813 854
13.899999756366 865
13.919999755919 852
13.9399997554719 828
13.9599997550249 892
13.9799997545779 824
13.9999997541308 829
14.0199997536838 901
14.0399997532368 924
14.0599997527897 894
14.0799997523427 869
14.0999997518957 937
14.1199997514486 905
14.1399997510016 902
14.1599997505546 970
14.1799997501075 995
14.1999997496605 941
14.2199997492135 917
14.2399997487664 915
14.2599997483194 929
14.2799997478724 972
14.2999997474253 912
14.3199997469783 949
14.3399997465312 934
14.3599997460842 954
14.3799997456372 953
14.3999997451901 929
14.4199997447431 924
14.4399997442961 982
14.459999743849 1039
14.479999743402 994
14.499999742955 987
14.5199997425079 970
14.5399997420609 984
14.5599997416139 900
14.5799997411668 940
14.5999997407198 966
14.6199997402728 949
14.6399997398257 957
14.6599997393787 977
14.6799997389317 955
14.6999997384846 949
14.7199997380376 924
14.7399997375906 975
14.7599997371435 979
14.7799997366965 1002
14.7999997362494 958
14.8199997358024 988
14.8399997353554 974
14.8599997349083 1015
14.8799997344613 1013
14.8999997340143 1012
14.9199997335672 973
14.9399997331202 1031
14.9599997326732 1060
14.9799997322261 997
14.9999997317791 1048
15.0199997313321 1028
15.039999730885 1042
15.059999730438 1001
15.079999729991 1019
15.0999997295439 1022
15.1199997290969 1072
15.1399997286499 1113
15.1599997282028 1050
15.1799997277558 1038
15.1999997273088 1087
15.2199997268617 1026
15.2399997264147 1089
15.2599997259676 1093
15.2799997255206 1073
15.2999997250736 1057
15.3199997246265 1046
15.3399997241795 1043
15.3599997237325 1030
15.3799997232854 1090
15.3999997228384 1099
15.4199997223914 1063
15.4399997219443 1069
15.4599997214973 1021
15.4799997210503 1090
15.4999997206032 1100
15.5199997201562 1073
15.5399997197092 1097
15.5599997192621 1080
15.5799997188151 1120
15.5999997183681 1153
15.619999717921 1115
15.639999717474 1092
15.659999717027 1092
15.6799997165799 1049
15.6999997161329 1102
15.7199997156858 1142
15.7399997152388 1090
15.7599997147918 1140
15.7799997143447 1062
15.7999997138977 1127
15.8199997134507 1111
15.8399997130036 1120
15.8599997125566 1144
15.8799997121096 1180
15.8999997116625 1149
15.9199997112155 1182
15.9399997107685 1199
15.9599997103214 1121
15.9799997098744 1144
15.9999997094274 1110
16.0199997089803 1134
16.0399997085333 1134
16.0599997080863 1152
16.0799997076392 1138
16.0999997071922 1154
16.1199997067451 1185
16.1399997062981 1160
16.1599997058511 1233
16.179999705404 1162
16.199999704957 1230
16.21999970451 1228
16.2399997040629 1260
16.2599997036159 1170
16.2799997031689 1235
16.2999997027218 1176
16.3199997022748 1156
16.3399997018278 1274
16.3599997013807 1260
16.3799997009337 1332
16.3999997004867 1215
16.4199997000396 1307
16.4399996995926 1276
16.4599996991456 1239
16.4799996986985 1299
16.4999996982515 1327
16.5199996978045 1304
16.5399996973574 1239
16.5599996969104 1283
16.5799996964633 1312
16.5999996960163 1296
16.6199996955693 1295
16.6399996951222 1280
16.6599996946752 1347
16.6799996942282 1338
16.6999996937811 1319
16.7199996933341 1287
16.7399996928871 1317
16.75999969244 1421
16.779999691993 1326
16.799999691546 1336
16.8199996910989 1326
16.8399996906519 1356
16.8599996902049 1396
16.8799996897578 1431
16.8999996893108 1459
16.9199996888638 1440
16.9399996884167 1577
16.9599996879697 1590
16.9799996875226 1794
16.9999996870756 1911
17.0199996866286 2068
17.0399996861815 2036
17.0599996857345 2129
17.0799996852875 2036
17.0999996848404 1995
17.1199996843934 1785
17.1399996839464 1619
17.1599996834993 1493
17.1799996830523 1487
17.1999996826053 1477
17.2199996821582 1412
17.2399996817112 1463
17.2599996812642 1430
17.2799996808171 1421
17.2999996803701 1437
17.3199996799231 1497
17.339999679476 1453
17.359999679029 1481
17.379999678582 1433
17.3999996781349 1435
17.4199996776879 1498
17.4399996772408 1450
17.4599996767938 1464
17.4799996763468 1422
17.4999996758997 1517
17.5199996754527 1486
17.5399996750057 1488
17.5599996745586 1430
17.5799996741116 1485
17.5999996736646 1507
17.6199996732175 1476
17.6399996727705 1531
17.6599996723235 1516
17.6799996718764 1448
17.6999996714294 1535
17.7199996709824 1545
17.7399996705353 1568
17.7599996700883 1514
17.7799996696413 1500
17.7999996691942 1526
17.8199996687472 1569
17.8399996683002 1580
17.8599996678531 1638
17.8799996674061 1500
17.899999666959 1546
17.919999666512 1511
17.939999666065 1547
17.9599996656179 1526
17.9799996651709 1580
17.9999996647239 1568
18.0199996642768 1523
18.0399996638298 1602
18.0599996633828 1571
18.0799996629357 1566
18.0999996624887 1583
18.1199996620417 1564
18.1399996615946 1590
18.1599996611476 1595
18.1799996607006 1551
18.1999996602535 1686
18.2199996598065 1635
18.2399996593595 1658
18.2599996589124 1593
18.2799996584654 1691
18.2999996580184 1601
18.3199996575713 1657
18.3399996571243 1671
18.3599996566772 1599
18.3799996562302 1705
18.3999996557832 1625
18.4199996553361 1670
18.4399996548891 1669
18.4599996544421 1722
18.479999653995 1676
18.499999653548 1632
18.519999653101 1695
18.5399996526539 1736
18.5599996522069 1727
18.5799996517599 1662
18.5999996513128 1717
18.6199996508658 1650
18.6399996504188 1683
18.6599996499717 1756
18.6799996495247 1690
18.6999996490777 1741
18.7199996486306 1733
18.7399996481836 1729
18.7599996477366 1759
18.7799996472895 1796
18.7999996468425 1786
18.8199996463954 1770
18.8399996459484 1789
18.8599996455014 1776
18.8799996450543 1760
18.8999996446073 1737
18.9199996441603 1727
18.9399996437132 1779
18.9599996432662 1768
18.9799996428192 1852
18.9999996423721 1762
19.0199996419251 1822
19.0399996414781 1762
19.059999641031 1805
19.079999640584 1913
19.099999640137 1889
19.1199996396899 1816
19.1399996392429 1904
19.1599996387959 1864
19.1799996383488 1933
19.1999996379018 1907
19.2199996374547 1956
19.2399996370077 1911
19.2599996365607 1924
19.2799996361136 1903
19.2999996356666 1826
19.3199996352196 1868
19.3399996347725 1903
19.3599996343255 1902
19.3799996338785 1906
19.3999996334314 1836
19.4199996329844 1895
19.4399996325374 1862
19.4599996320903 2024
19.4799996316433 1950
19.4999996311963 1971
19.5199996307492 2000
19.5399996303022 2002
19.5599996298552 2091
19.5799996294081 1965
19.5999996289611 2073
19.6199996285141 1958
19.639999628067 2013
19.65999962762 2087
19.6799996271729 1904
19.6999996267259 1888
19.7199996262789 1907
19.7399996258318 1896
19.7599996253848 1936
19.7799996249378 1957
19.7999996244907 1885
19.8199996240437 1918
19.8399996235967 1972
19.8599996231496 1905
19.8799996227026 1882
19.8999996222556 2009
19.9199996218085 1996
19.9399996213615 2029
19.9599996209145 1993
19.9799996204674 1964
19.9999996200204 1955
