3 1873
3.01999999955297 1793
3.03999999910593 1687
3.0599999986589 1654
3.07999999821186 1619
3.09999999776483 1496
3.11999999731779 1539
3.13999999687076 1445
3.15999999642372 1480
3.17999999597669 1439
3.19999999552965 1427
3.21999999508262 1406
3.23999999463558 1415
3.25999999418855 1371
3.27999999374151 1373
3.29999999329448 1369
3.31999999284744 1347
3.33999999240041 1291
3.35999999195337 1228
3.37999999150634 1286
3.3999999910593 1305
3.41999999061227 1254
3.43999999016523 1251
3.4599999897182 1241
3.47999998927116 1239
3.49999998882413 1295
3.51999998837709 1195
3.53999998793006 1164
3.55999998748302 1146
3.57999998703599 1147
3.59999998658895 1128
3.61999998614192 1075
3.63999998569489 1057
3.65999998524785 1135
3.67999998480082 1053
3.69999998435378 1066
3.71999998390675 1074
3.73999998345971 1073
3.75999998301268 1055
3.77999998256564 1055
3.79999998211861 998
3.81999998167157 1016
3.83999998122454 1028
3.8599999807775 1024
3.87999998033047 953
3.89999997988343 941
3.9199999794364 951
3.93999997898936 966
3.95999997854233 996
3.97999997809529 956
3.99999997764826 1010
4.01999997720122 984
4.03999997675419 944
4.05999997630715 966
4.07999997586012 961
4.09999997541308 1001
4.11999997496605 898
4.13999997451901 931
4.15999997407198 970
4.17999997362494 918
4.19999997317791 864
4.21999997273087 824
4.23999997228384 886
4.25999997183681 808
4.27999997138977 818
4.29999997094274 869
4.3199999704957 813
4.33999997004867 773
4.35999996960163 777
4.3799999691546 750
4.39999996870756 787
4.41999996826053 803
4.43999996781349 758
4.45999996736646 757
4.47999996691942 730
4.49999996647239 766
4.51999996602535 775
4.53999996557832 786
4.55999996513128 769
4.57999996468425 744
4.59999996423721 815
4.61999996379018 774
4.63999996334314 759
4.65999996289611 720
4.67999996244907 718
4.69999996200204 748
4.719999961555 716
4.73999996110797 725
4.75999996066093 769
4.7799999602139 755
4.79999995976686 663
4.81999995931983 723
4.83999995887279 742
4.85999995842576 707
4.87999995797873 753
4.89999995753169 762
4.91999995708466 750
4.93999995663762 746
4.95999995619059 806
4.97999995574355 744
4.99999995529652 759
5.01999995484948 740
5.03999995440245 801
5.05999995395541 755
5.07999995350838 757
5.09999995306134 757
5.11999995261431 836
5.13999995216727 748
5.15999995172024 790
5.1799999512732 836
5.19999995082617 807
5.21999995037913 814
5.2399999499321 885
5.25999994948506 881
5.27999994903803 850
5.29999994859099 913
5.31999994814396 944
5.33999994769692 977
5.35999994724989 970
5.37999994680285 1068
5.39999994635582 1057
5.41999994590878 1117
5.43999994546175 1036
5.45999994501471 1008
5.47999994456768 985
5.49999994412065 1002
5.51999994367361 1008
5.53999994322658 1006
5.55999994277954 1057
5.57999994233251 1061
5.59999994188547 1136
5.61999994143844 1117
5.6399999409914 1158
5.65999994054437 1294
5.67999994009733 1277
5.6999999396503 1392
5.71999993920326 1403
5.73999993875623 1554
5.75999993830919 1621
5.77999993786216 1560
5.79999993741512 1398
5.81999993696809 1234
5.83999993652105 1103
5.85999993607402 953
5.87999993562698 891
5.89999993517995 751
5.91999993473291 781
5.93999993428588 745
5.95999993383884 714
5.97999993339181 771
5.99999993294477 708
6.01999993249774 671
6.0399999320507 718
6.05999993160367 707
6.07999993115663 716
6.0999999307096 692
6.11999993026257 627
6.13999992981553 639
6.1599999293685 691
6.17999992892146 676
6.19999992847443 660
6.21999992802739 615
6.23999992758036 642
6.25999992713332 641
6.27999992668629 649
6.29999992623925 643
6.31999992579222 629
6.33999992534518 670
6.35999992489815 671
6.37999992445111 614
6.39999992400408 592
6.41999992355704 650
6.43999992311001 667
6.45999992266297 693
6.47999992221594 655
6.4999999217689 664
6.51999992132187 669
6.53999992087483 643
6.5599999204278 639
6.57999991998076 635
6.59999991953373 644
6.61999991908669 650
6.63999991863966 684
6.65999991819262 648
6.67999991774559 640
6.69999991729855 672
6.71999991685152 689
6.73999991640449 658
6.75999991595745 663
6.77999991551042 661
6.79999991506338 653
6.81999991461635 659
6.83999991416931 626
6.85999991372228 620
6.87999991327524 581
6.89999991282821 604
6.91999991238117 582
6.93999991193414 593
6.9599999114871 581
6.97999991104007 634
6.99999991059303 627
7.019999910146 590
7.03999990969896 568
7.05999990925193 575
7.07999990880489 549
7.09999990835786 571
7.11999990791082 591
7.13999990746379 609
7.15999990701675 616
7.17999990656972 545
7.19999990612268 591
7.21999990567565 558
7.23999990522861 611
7.25999990478158 562
7.27999990433454 539
7.29999990388751 568
7.31999990344047 576
7.33999990299344 610
7.35999990254641 553
7.37999990209937 558
7.39999990165234 586
7.4199999012053 545
7.43999990075827 532
7.45999990031123 586
7.4799998998642 568
7.49999989941716 551
7.51999989897013 556
7.53999989852309 552
7.55999989807606 601
7.57999989762902 574
7.59999989718199 587
7.61999989673495 607
7.63999989628792 587
7.65999989584088 599
7.67999989539385 550
7.69999989494681 564
7.71999989449978 577
7.73999989405274 529
7.75999989360571 549
7.77999989315867 595
7.79999989271164 557
7.8199998922646 553
7.83999989181757 557
7.85999989137053 559
7.8799998909235 609
7.89999989047646 605
7.91999989002943 523
7.9399998895824 574
7.95999988913536 627
7.97999988868833 570
7.99999988824129 571
8.01999988779426 555
8.03999988734722 552
8.05999988690019 581
8.07999988645315 518
8.09999988600612 560
8.11999988555908 586
8.13999988511205 609
8.15999988466501 557
8.17999988421798 554
8.19999988377094 609
8.21999988332391 569
8.23999988287687 563
8.25999988242984 561
8.2799998819828 566
8.29999988153577 575
8.31999988108873 565
8.3399998806417 557
8.35999988019466 578
8.37999987974763 590
8.39999987930059 568
8.41999987885356 590
8.43999987840652 555
8.45999987795949 526
8.47999987751245 546
8.49999987706542 577
8.51999987661839 555
8.53999987617135 563
8.55999987572432 553
8.57999987527728 564
8.59999987483025 583
8.61999987438321 553
8.63999987393618 570
8.65999987348914 585
8.67999987304211 583
8.69999987259507 616
8.71999987214804 564
8.739999871701 582
8.75999987125397 593
8.77999987080693 570
8.7999998703599 595
8.81999986991286 621
8.83999986946583 614
8.85999986901879 633
8.87999986857176 604
8.89999986812472 582
8.91999986767769 581
8.93999986723065 594
8.95999986678362 627
8.97999986633658 601
8.99999986588955 597
9.01999986544251 674
9.03999986499548 618
9.05999986454844 618
9.07999986410141 630
9.09999986365438 645
9.11999986320734 690
9.13999986276031 675
9.15999986231327 730
9.17999986186624 714
9.1999998614192 735
9.21999986097217 812
9.23999986052513 792
9.2599998600781 899
9.27999985963106 923
9.29999985918403 1013
9.31999985873699 992
9.33999985828996 952
9.35999985784292 907
9.37999985739589 793
9.39999985694885 682
9.41999985650182 633
9.43999985605478 614
9.45999985560775 632
9.47999985516071 618
9.49999985471368 603
9.51999985426664 648
9.53999985381961 583
9.55999985337257 632
9.57999985292554 588
9.5999998524785 627
9.61999985203147 584
9.63999985158443 603
9.6599998511374 605
9.67999985069037 633
9.69999985024333 595
9.7199998497963 610
9.73999984934926 621
9.75999984890223 623
9.77999984845519 610
9.79999984800816 640
9.81999984756112 594
9.83999984711409 620
9.85999984666705 625
9.87999984622002 653
9.89999984577298 638
9.91999984532595 662
9.93999984487891 619
9.95999984443188 595
9.97999984398484 660
9.99999984353781 615
10.0199998430908 622
10.0399998426437 641
10.0599998421967 651
10.0799998417497 670
10.0999998413026 691
10.1199998408556 698
10.1399998404086 682
10.1599998399615 680
10.1799998395145 728
10.1999998390675 686
10.2199998386204 633
10.2399998381734 638
10.2599998377264 601
10.2799998372793 628
10.2999998368323 606
10.3199998363853 652
10.3399998359382 593
10.3599998354912 617
10.3799998350441 598
10.3999998345971 604
10.4199998341501 606
10.439999833703 607
10.459999833256 604
10.479999832809 613
10.4999998323619 617
10.5199998319149 575
10.5399998314679 650
10.5599998310208 615
10.5799998305738 623
10.5999998301268 606
10.6199998296797 640
10.6399998292327 649
10.6599998287857 705
10.6799998283386 714
10.6999998278916 679
10.7199998274446 696
10.7399998269975 720
10.7599998265505 724
10.7799998261034 793
10.7999998256564 711
10.8199998252094 703
10.8399998247623 734
10.8599998243153 826
10.8799998238683 834
10.8999998234212 806
10.9199998229742 903
10.9399998225272 923
10.9599998220801 800
10.9799998216331 792
10.9999998211861 737
11.019999820739 672
11.039999820292 638
11.059999819845 660
11.0799998193979 677
11.0999998189509 610
11.1199998185039 582
11.1399998180568 615
11.1599998176098 586
11.1799998171628 602
11.1999998167157 600
11.2199998162687 598
11.2399998158216 596
11.2599998153746 617
11.2799998149276 658
11.2999998144805 641
11.3199998140335 655
11.3399998135865 610
11.3599998131394 657
11.3799998126924 670
11.3999998122454 668
11.4199998117983 645
11.4399998113513 707
11.4599998109043 685
11.4799998104572 718
11.4999998100102 679
11.5199998095632 657
11.5399998091161 666
11.5599998086691 630
11.5799998082221 565
11.599999807775 594
11.619999807328 600
11.639999806881 644
11.6599998064339 584
11.6799998059869 587
11.6999998055398 622
11.7199998050928 607
11.7399998046458 621
11.7599998041987 561
11.7799998037517 581
11.7999998033047 591
11.8199998028576 603
11.8399998024106 557
11.8599998019636 590
11.8799998015165 589
11.8999998010695 569
11.9199998006225 603
11.9399998001754 590
11.9599997997284 657
11.9799997992814 656
11.9999997988343 621
12.0199997983873 608
12.0399997979403 621
12.0599997974932 621
12.0799997970462 594
12.0999997965992 638
12.1199997961521 620
12.1399997957051 620
12.159999795258 631
12.179999794811 613
12.199999794364 675
12.2199997939169 653
12.2399997934699 603
12.2599997930229 612
12.2799997925758 613
12.2999997921288 652
12.3199997916818 633
12.3399997912347 644
12.3599997907877 634
12.3799997903407 650
12.3999997898936 604
12.4199997894466 614
12.4399997889996 622
12.4599997885525 603
12.4799997881055 586
12.4999997876585 583
12.5199997872114 606
12.5399997867644 648
12.5599997863173 604
12.5799997858703 608
12.5999997854233 602
12.6199997849762 602
12.6399997845292 603
12.6599997840822 590
12.6799997836351 589
12.6999997831881 650
12.7199997827411 571
12.739999782294 582
12.759999781847 572
12.7799997814 630
12.7999997809529 598
12.8199997805059 606
12.8399997800589 618
12.8599997796118 583
12.8799997791648 625
12.8999997787178 608
12.9199997782707 601
12.9399997778237 595
12.9599997773767 608
12.9799997769296 605
12.9999997764826 626
13.0199997760355 594
13.0399997755885 613
13.0599997751415 606
13.0799997746944 598
13.0999997742474 618
13.1199997738004 570
13.1399997733533 630
13.1599997729063 629
13.1799997724593 653
13.1999997720122 660
13.2199997715652 652
13.2399997711182 609
13.2599997706711 632
13.2799997702241 650
13.2999997697771 675
13.31999976933 694
13.339999768883 649
13.359999768436 670
13.3799997679889 640
13.3999997675419 656
13.4199997670949 657
13.4399997666478 668
13.4599997662008 635
13.4799997657537 669
13.4999997653067 643
13.5199997648597 664
13.5399997644126 709
13.5599997639656 663
13.5799997635186 687
13.5999997630715 667
13.6199997626245 656
13.6399997621775 614
13.6599997617304 630
13.6799997612834 640
13.6999997608364 619
13.7199997603893 711
13.7399997599423 642
13.7599997594953 658
13.7799997590482 692
13.7999997586012 673
13.8199997581542 662
13.8399997577071 671
13.8599997572601 653
13.879999756813 638
13.899999756366 660
13.919999755919 673
13.9399997554719 663
13.9599997550249 668
13.9799997545779 649
13.9999997541308 685
14.0199997536838 669
14.0399997532368 696
14.0599997527897 755
14.0799997523427 697
14.0999997518957 708
14.1199997514486 715
14.1399997510016 699
14.1599997505546 698
14.1799997501075 674
14.1999997496605 668
14.2199997492135 716
14.2399997487664 712
14.2599997483194 661
14.2799997478724 700
14.2999997474253 728
14.3199997469783 726
14.3399997465312 678
14.3599997460842 773
14.3799997456372 734
14.3999997451901 735
14.4199997447431 738
14.4399997442961 686
14.459999743849 664
14.479999743402 781
14.499999742955 762
14.5199997425079 697
14.5399997420609 704
14.5599997416139 779
14.5799997411668 683
14.5999997407198 780
14.6199997402728 741
14.6399997398257 691
14.6599997393787 724
14.6799997389317 696
14.6999997384846 758
14.7199997380376 729
14.7399997375906 755
14.7599997371435 772
14.7799997366965 737
14.7999997362494 750
14.8199997358024 767
14.8399997353554 758
14.8599997349083 787
14.8799997344613 725
14.8999997340143 771
14.9199997335672 757
14.9399997331202 774
14.9599997326732 781
14.9799997322261 745
14.9999997317791 732
15.0199997313321 717
15.039999730885 731
15.059999730438 751
15.079999729991 719
15.0999997295439 717
15.1199997290969 730
15.1399997286499 747
15.1599997282028 755
15.1799997277558 784
15.1999997273088 767
15.2199997268617 741
15.2399997264147 777
15.2599997259676 780
15.2799997255206 821
15.2999997250736 763
15.3199997246265 773
15.3399997241795 741
15.3599997237325 784
15.3799997232854 756
15.3999997228384 776
15.4199997223914 795
15.4399997219443 774
15.4599997214973 773
15.4799997210503 804
15.4999997206032 790
15.5199997201562 773
15.5399997197092 772
15.5599997192621 733
15.5799997188151 757
15.5999997183681 802
15.619999717921 774
15.639999717474 740
15.659999717027 807
15.6799997165799 766
15.6999997161329 820
15.7199997156858 820
15.7399997152388 779
15.7599997147918 810
15.7799997143447 815
15.7999997138977 807
15.8199997134507 818
15.8399997130036 789
15.8599997125566 774
15.8799997121096 805
15.8999997116625 803
15.9199997112155 827
15.9399997107685 821
15.9599997103214 820
15.9799997098744 820
15.9999997094274 890
16.0199997089803 820
16.0399997085333 857
16.0599997080863 845
16.0799997076392 859
16.0999997071922 853
16.1199997067451 864
16.1399997062981 847
16.1599997058511 892
16.179999705404 861
16.199999704957 861
16.21999970451 854
16.2399997040629 877
16.2599997036159 921
16.2799997031689 851
16.2999997027218 920
16.3199997022748 867
16.3399997018278 875
16.3599997013807 873
16.3799997009337 895
16.3999997004867 901
16.4199997000396 854
16.4399996995926 904
16.4599996991456 879
16.4799996986985 869
16.4999996982515 894
16.5199996978045 887
16.5399996973574 871
16.5599996969104 872
16.5799996964633 861
16.5999996960163 848
16.6199996955693 945
16.6399996951222 884
16.6599996946752 912
16.6799996942282 910
16.6999996937811 903
16.7199996933341 917
16.7399996928871 942
16.75999969244 990
16.779999691993 972
16.799999691546 928
16.8199996910989 998
16.8399996906519 968
16.8599996902049 981
16.8799996897578 1023
16.8999996893108 1052
16.9199996888638 1017
16.9399996884167 1005
16.9599996879697 966
16.9799996875226 1013
16.9999996870756 956
17.0199996866286 984
17.0399996861815 950
17.0599996857345 932
17.0799996852875 948
17.0999996848404 974
17.1199996843934 945
17.1399996839464 972
17.1599996834993 966
17.1799996830523 990
17.1999996826053 980
17.2199996821582 980
17.2399996817112 1052
17.2599996812642 964
17.2799996808171 1024
17.2999996803701 955
17.3199996799231 979
17.339999679476 998
17.359999679029 977
17.379999678582 983
17.3999996781349 993
17.4199996776879 1030
17.4399996772408 1030
17.4599996767938 1010
17.4799996763468 1048
17.4999996758997 1061
17.5199996754527 1002
17.5399996750057 992
17.5599996745586 1029
17.5799996741116 987
17.5999996736646 999
17.6199996732175 1058
17.6399996727705 1017
17.6599996723235 989
17.6799996718764 1017
17.6999996714294 1018
17.7199996709824 1005
17.7399996705353 1092
17.7599996700883 1056
17.7799996696413 1029
17.7999996691942 1000
17.8199996687472 1109
17.8399996683002 1032
17.8599996678531 1020
17.8799996674061 1036
17.899999666959 1120
17.919999666512 1071
17.939999666065 1085
17.9599996656179 1026
17.9799996651709 1056
17.9999996647239 1055
18.0199996642768 1068
18.0399996638298 1033
18.0599996633828 1100
18.0799996629357 1145
18.0999996624887 1100
18.1199996620417 1116
18.1399996615946 1080
18.1599996611476 1098
18.1799996607006 1111
18.1999996602535 1105
18.2199996598065 1172
18.2399996593595 1095
18.2599996589124 1105
18.2799996584654 1126
18.2999996580184 1121
18.3199996575713 1093
18.3399996571243 1089
18.3599996566772 1156
18.3799996562302 1178
18.3999996557832 1140
18.4199996553361 1112
18.4399996548891 1107
18.4599996544421 1143
18.479999653995 1190
18.499999653548 1121
18.519999653101 1158
18.5399996526539 1137
18.5599996522069 1154
18.5799996517599 1218
18.5999996513128 1174
18.6199996508658 1184
18.6399996504188 1215
18.6599996499717 1155
18.6799996495247 1159
18.6999996490777 1182
18.7199996486306 1210
18.7399996481836 1188
18.7599996477366 1211
18.7799996472895 1233
18.7999996468425 1265
18.8199996463954 1207
18.8399996459484 1184
18.8599996455014 1300
18.8799996450543 1233
18.8999996446073 1232
18.9199996441603 1275
18.9399996437132 1233
18.9599996432662 1213
18.9799996428192 1336
18.9999996423721 1291
19.0199996419251 1317
19.0399996414781 1368
19.059999641031 1313
19.079999640584 1360
19.099999640137 1320
19.1199996396899 1302
19.1399996392429 1304
19.1599996387959 1310
19.1799996383488 1276
19.1999996379018 1282
19.2199996374547 1313
19.2399996370077 1251
19.2599996365607 1282
19.2799996361136 1277
19.2999996356666 1305
19.3199996352196 1302
19.3399996347725 1355
19.3599996343255 1361
19.3799996338785 1356
19.3999996334314 1299
19.4199996329844 1373
19.4399996325374 1395
19.4599996320903 1456
19.4799996316433 1436
19.4999996311963 1339
19.5199996307492 1398
19.5399996303022 1307
19.5599996298552 1409
19.5799996294081 1368
19.5999996289611 1302
19.6199996285141 1343
19.639999628067 1366
19.65999962762 1288
19.6799996271729 1309
19.6999996267259 1284
19.7199996262789 1254
19.7399996258318 1313
19.7599996253848 1325
19.7799996249378 1291
19.7999996244907 1344
19.8199996240437 1375
19.8399996235967 1298
19.8599996231496 1369
19.8799996227026 1311
19.8999996222556 1300
19.9199996218085 1409
19.9399996213615 1268
19.9599996209145 1312
19.9799996204674 1330
19.9999996200204 1249
