3 2160
3.01999999955297 1958
3.03999999910593 1843
3.0599999986589 1729
3.07999999821186 1584
3.09999999776483 1492
3.11999999731779 1481
3.13999999687076 1458
3.15999999642372 1461
3.17999999597669 1434
3.19999999552965 1432
3.21999999508262 1415
3.23999999463558 1393
3.25999999418855 1338
3.27999999374151 1434
3.29999999329448 1318
3.31999999284744 1285
3.33999999240041 1339
3.35999999195337 1289
3.37999999150634 1320
3.3999999910593 1284
3.41999999061227 1244
3.43999999016523 1259
3.4599999897182 1288
3.47999998927116 1242
3.49999998882413 1245
3.51999998837709 1206
3.53999998793006 1141
3.55999998748302 1190
3.57999998703599 1183
3.59999998658895 1133
3.61999998614192 1180
3.63999998569489 1159
3.65999998524785 1156
3.67999998480082 1133
3.69999998435378 1114
3.71999998390675 1165
3.73999998345971 1106
3.75999998301268 1113
3.77999998256564 1071
3.79999998211861 1062
3.81999998167157 1063
3.83999998122454 1029
3.8599999807775 1041
3.87999998033047 1072
3.89999997988343 1036
3.9199999794364 1080
3.93999997898936 1031
3.95999997854233 1002
3.97999997809529 1048
3.99999997764826 1016
4.01999997720122 1018
4.03999997675419 991
4.05999997630715 960
4.07999997586012 969
4.09999997541308 951
4.11999997496605 944
4.13999997451901 933
4.15999997407198 889
4.17999997362494 964
4.19999997317791 932
4.21999997273087 918
4.23999997228384 921
4.25999997183681 880
4.27999997138977 851
4.29999997094274 883
4.3199999704957 899
4.33999997004867 872
4.35999996960163 906
4.3799999691546 900
4.39999996870756 891
4.41999996826053 892
4.43999996781349 883
4.45999996736646 927
4.47999996691942 886
4.49999996647239 896
4.51999996602535 854
4.53999996557832 855
4.55999996513128 865
4.57999996468425 858
4.59999996423721 827
4.61999996379018 886
4.63999996334314 891
4.65999996289611 888
4.67999996244907 853
4.69999996200204 820
4.719999961555 771
4.73999996110797 816
4.75999996066093 824
4.7799999602139 820
4.79999995976686 785
4.81999995931983 797
4.83999995887279 809
4.85999995842576 753
4.87999995797873 791
4.89999995753169 810
4.91999995708466 831
4.93999995663762 821
4.95999995619059 802
4.97999995574355 776
4.99999995529652 784
5.01999995484948 829
5.03999995440245 804
5.05999995395541 808
5.07999995350838 757
5.09999995306134 819
5.11999995261431 823
5.13999995216727 752
5.15999995172024 771
5.1799999512732 772
5.19999995082617 799
5.21999995037913 772
5.2399999499321 762
5.25999994948506 788
5.27999994903803 814
5.29999994859099 756
5.31999994814396 769
5.33999994769692 764
5.35999994724989 785
5.37999994680285 751
5.39999994635582 736
5.41999994590878 745
5.43999994546175 773
5.45999994501471 748
5.47999994456768 727
5.49999994412065 763
5.51999994367361 737
5.53999994322658 788
5.55999994277954 741
5.57999994233251 759
5.59999994188547 732
5.61999994143844 775
5.6399999409914 737
5.65999994054437 806
5.67999994009733 767
5.6999999396503 724
5.71999993920326 740
5.73999993875623 778
5.75999993830919 735
5.77999993786216 763
5.79999993741512 750
5.81999993696809 765
5.83999993652105 764
5.85999993607402 789
5.87999993562698 768
5.89999993517995 734
5.91999993473291 723
5.93999993428588 742
5.95999993383884 737
5.97999993339181 756
5.99999993294477 736
6.01999993249774 788
6.0399999320507 769
6.05999993160367 725
6.07999993115663 749
6.0999999307096 731
6.11999993026257 776
6.13999992981553 748
6.1599999293685 775
6.17999992892146 740
6.19999992847443 719
6.21999992802739 739
6.23999992758036 775
6.25999992713332 758
6.27999992668629 751
6.29999992623925 743
6.31999992579222 745
6.33999992534518 781
6.35999992489815 758
6.37999992445111 774
6.39999992400408 811
6.41999992355704 736
6.43999992311001 762
6.45999992266297 734
6.47999992221594 761
6.4999999217689 756
6.51999992132187 771
6.53999992087483 754
6.5599999204278 685
6.57999991998076 748
6.59999991953373 730
6.61999991908669 787
6.63999991863966 755
6.65999991819262 724
6.67999991774559 731
6.69999991729855 778
6.71999991685152 774
6.73999991640449 774
6.75999991595745 709
6.77999991551042 745
6.79999991506338 760
6.81999991461635 770
6.83999991416931 795
6.85999991372228 747
6.87999991327524 731
6.89999991282821 729
6.91999991238117 762
6.93999991193414 757
6.9599999114871 802
6.97999991104007 745
6.99999991059303 790
7.019999910146 712
7.03999990969896 759
7.05999990925193 722
7.07999990880489 743
7.09999990835786 784
7.11999990791082 778
7.13999990746379 765
7.15999990701675 721
7.17999990656972 722
7.19999990612268 753
7.21999990567565 752
7.23999990522861 755
7.25999990478158 774
7.27999990433454 741
7.29999990388751 762
7.31999990344047 783
7.33999990299344 748
7.35999990254641 764
7.37999990209937 842
7.39999990165234 746
7.4199999012053 769
7.43999990075827 788
7.45999990031123 755
7.4799998998642 749
7.49999989941716 728
7.51999989897013 695
7.53999989852309 766
7.55999989807606 723
7.57999989762902 767
7.59999989718199 786
7.61999989673495 756
7.63999989628792 801
7.65999989584088 754
7.67999989539385 810
7.69999989494681 767
7.71999989449978 721
7.73999989405274 793
7.75999989360571 733
7.77999989315867 780
7.79999989271164 749
7.8199998922646 726
7.83999989181757 746
7.85999989137053 798
7.8799998909235 775
7.89999989047646 751
7.91999989002943 704
7.9399998895824 742
7.95999988913536 768
7.97999988868833 803
7.99999988824129 780
8.01999988779426 805
8.03999988734722 789
8.05999988690019 701
8.07999988645315 791
8.09999988600612 755
8.11999988555908 770
8.13999988511205 793
8.15999988466501 768
8.17999988421798 793
8.19999988377094 769
8.21999988332391 722
8.23999988287687 754
8.25999988242984 715
8.2799998819828 745
8.29999988153577 727
8.31999988108873 770
8.3399998806417 700
8.35999988019466 733
8.37999987974763 716
8.39999987930059 729
8.41999987885356 824
8.43999987840652 727
8.45999987795949 787
8.47999987751245 749
8.49999987706542 794
8.51999987661839 761
8.53999987617135 773
8.55999987572432 780
8.57999987527728 802
8.59999987483025 725
8.61999987438321 727
8.63999987393618 792
8.65999987348914 774
8.67999987304211 766
8.69999987259507 836
8.71999987214804 845
8.739999871701 763
8.75999987125397 820
8.77999987080693 823
8.7999998703599 790
8.81999986991286 771
8.83999986946583 850
8.85999986901879 786
8.87999986857176 770
8.89999986812472 824
8.91999986767769 834
8.93999986723065 851
8.95999986678362 844
8.97999986633658 846
8.99999986588955 831
9.01999986544251 817
9.03999986499548 828
9.05999986454844 814
9.07999986410141 861
9.09999986365438 839
9.11999986320734 808
9.13999986276031 788
9.15999986231327 830
9.17999986186624 859
9.1999998614192 815
9.21999986097217 778
9.23999986052513 756
9.2599998600781 770
9.27999985963106 792
9.29999985918403 787
9.31999985873699 768
9.33999985828996 762
9.35999985784292 773
9.37999985739589 749
9.39999985694885 722
9.41999985650182 763
9.43999985605478 772
9.45999985560775 738
9.47999985516071 782
9.49999985471368 738
9.51999985426664 766
9.53999985381961 709
9.55999985337257 785
9.57999985292554 762
9.5999998524785 729
9.61999985203147 729
9.63999985158443 722
9.6599998511374 726
9.67999985069037 737
9.69999985024333 743
9.7199998497963 680
9.73999984934926 695
9.75999984890223 734
9.77999984845519 710
9.79999984800816 732
9.81999984756112 744
9.83999984711409 687
9.85999984666705 703
9.87999984622002 734
9.89999984577298 695
9.91999984532595 782
9.93999984487891 733
9.95999984443188 719
9.97999984398484 751
9.99999984353781 702
10.0199998430908 772
10.0399998426437 738
10.0599998421967 691
10.0799998417497 711
10.0999998413026 734
10.1199998408556 746
10.1399998404086 681
10.1599998399615 743
10.1799998395145 676
10.1999998390675 738
10.2199998386204 757
10.2399998381734 690
10.2599998377264 777
10.2799998372793 744
10.2999998368323 734
10.3199998363853 700
10.3399998359382 718
10.3599998354912 712
10.3799998350441 685
10.3999998345971 696
10.4199998341501 673
10.439999833703 726
10.459999833256 740
10.479999832809 713
10.4999998323619 713
10.5199998319149 760
10.5399998314679 685
10.5599998310208 737
10.5799998305738 721
10.5999998301268 694
10.6199998296797 729
10.6399998292327 746
10.6599998287857 724
10.6799998283386 769
10.6999998278916 743
10.7199998274446 740
10.7399998269975 692
10.7599998265505 751
10.7799998261034 705
10.7999998256564 722
10.8199998252094 700
10.8399998247623 706
10.8599998243153 753
10.8799998238683 736
10.8999998234212 743
10.9199998229742 757
10.9399998225272 724
10.9599998220801 695
10.9799998216331 707
10.9999998211861 758
11.019999820739 685
11.039999820292 744
11.059999819845 767
11.0799998193979 757
11.0999998189509 700
11.1199998185039 703
11.1399998180568 765
11.1599998176098 688
11.1799998171628 693
11.1999998167157 708
11.2199998162687 750
11.2399998158216 731
11.2599998153746 685
11.2799998149276 775
11.2999998144805 689
11.3199998140335 721
11.3399998135865 659
11.3599998131394 754
11.3799998126924 728
11.3999998122454 713
11.4199998117983 775
11.4399998113513 734
11.4599998109043 732
11.4799998104572 717
11.4999998100102 707
11.5199998095632 743
11.5399998091161 751
11.5599998086691 735
11.5799998082221 720
11.599999807775 737
11.619999807328 719
11.639999806881 730
11.6599998064339 717
11.6799998059869 659
11.6999998055398 734
11.7199998050928 766
11.7399998046458 749
11.7599998041987 737
11.7799998037517 727
11.7999998033047 764
11.8199998028576 746
11.8399998024106 676
11.8599998019636 727
11.8799998015165 739
11.8999998010695 726
11.9199998006225 764
11.9399998001754 755
11.9599997997284 677
11.9799997992814 769
11.9999997988343 747
12.0199997983873 697
12.0399997979403 711
12.0599997974932 739
12.0799997970462 745
12.0999997965992 773
12.1199997961521 757
12.1399997957051 729
12.159999795258 710
12.179999794811 767
12.199999794364 747
12.2199997939169 747
12.2399997934699 727
12.2599997930229 757
12.2799997925758 708
12.2999997921288 732
12.3199997916818 770
12.3399997912347 751
12.3599997907877 741
12.3799997903407 714
12.3999997898936 758
12.4199997894466 724
12.4399997889996 758
12.4599997885525 743
12.4799997881055 728
12.4999997876585 782
12.5199997872114 743
12.5399997867644 788
12.5599997863173 764
12.5799997858703 785
12.5999997854233 824
12.6199997849762 737
12.6399997845292 745
12.6599997840822 768
12.6799997836351 763
12.6999997831881 772
12.7199997827411 728
12.739999782294 751
12.759999781847 774
12.7799997814 731
12.7999997809529 745
12.8199997805059 732
12.8399997800589 764
12.8599997796118 764
12.8799997791648 734
12.8999997787178 803
12.9199997782707 734
12.9399997778237 773
12.9599997773767 813
12.9799997769296 746
12.9999997764826 754
13.0199997760355 781
13.0399997755885 737
13.0599997751415 754
13.0799997746944 769
13.0999997742474 729
13.1199997738004 771
13.1399997733533 781
13.1599997729063 800
13.1799997724593 759
13.1999997720122 727
13.2199997715652 740
13.2399997711182 761
13.2599997706711 789
13.2799997702241 759
13.2999997697771 713
13.31999976933 712
13.339999768883 762
13.359999768436 754
13.3799997679889 805
13.3999997675419 774
13.4199997670949 780
13.4399997666478 751
13.4599997662008 788
13.4799997657537 777
13.4999997653067 772
13.5199997648597 741
13.5399997644126 761
13.5599997639656 812
13.5799997635186 750
13.5999997630715 752
13.6199997626245 814
13.6399997621775 805
13.6599997617304 791
13.6799997612834 782
13.6999997608364 748
13.7199997603893 745
13.7399997599423 808
13.7599997594953 802
13.7799997590482 796
13.7999997586012 817
13.8199997581542 785
13.8399997577071 811
13.8599997572601 761
13.879999756813 774
13.899999756366 807
13.919999755919 782
13.9399997554719 832
13.9599997550249 809
13.9799997545779 779
13.9999997541308 828
14.0199997536838 805
14.0399997532368 798
14.0599997527897 803
14.0799997523427 784
14.0999997518957 837
14.1199997514486 751
14.1399997510016 838
14.1599997505546 805
14.1799997501075 849
14.1999997496605 819
14.2199997492135 813
14.2399997487664 817
14.2599997483194 779
14.2799997478724 811
14.2999997474253 776
14.3199997469783 795
14.3399997465312 821
14.3599997460842 796
14.3799997456372 842
14.3999997451901 851
14.4199997447431 793
14.4399997442961 811
14.459999743849 857
14.479999743402 828
14.499999742955 849
14.5199997425079 810
14.5399997420609 814
14.5599997416139 807
14.5799997411668 811
14.5999997407198 840
14.6199997402728 840
14.6399997398257 803
14.6599997393787 871
14.6799997389317 806
14.6999997384846 860
14.7199997380376 834
14.7399997375906 857
14.7599997371435 849
14.7799997366965 831
14.7999997362494 855
14.8199997358024 852
14.8399997353554 818
14.8599997349083 907
14.8799997344613 860
14.8999997340143 837
14.9199997335672 905
14.9399997331202 844
14.9599997326732 866
14.9799997322261 883
14.9999997317791 879
15.0199997313321 896
15.039999730885 827
15.059999730438 836
15.079999729991 877
15.0999997295439 845
15.1199997290969 900
15.1399997286499 916
15.1599997282028 892
15.1799997277558 897
15.1999997273088 872
15.2199997268617 869
15.2399997264147 861
15.2599997259676 910
15.2799997255206 884
15.2999997250736 952
15.3199997246265 914
15.3399997241795 904
15.3599997237325 904
15.3799997232854 965
15.3999997228384 855
15.4199997223914 917
15.4399997219443 938
15.4599997214973 845
15.4799997210503 922
15.4999997206032 924
15.5199997201562 919
15.5399997197092 919
15.5599997192621 929
15.5799997188151 923
15.5999997183681 946
15.619999717921 930
15.639999717474 886
15.659999717027 960
15.6799997165799 933
15.6999997161329 941
15.7199997156858 957
15.7399997152388 919
15.7599997147918 888
15.7799997143447 948
15.7999997138977 923
15.8199997134507 982
15.8399997130036 964
15.8599997125566 929
15.8799997121096 998
15.8999997116625 1010
15.9199997112155 977
15.9399997107685 969
15.9599997103214 955
15.9799997098744 1015
15.9999997094274 943
16.0199997089803 996
16.0399997085333 962
16.0599997080863 1026
16.0799997076392 1016
16.0999997071922 994
16.1199997067451 994
16.1399997062981 996
16.1599997058511 982
16.179999705404 986
16.199999704957 1039
16.21999970451 1046
16.2399997040629 1010
16.2599997036159 1029
16.2799997031689 1042
16.2999997027218 996
16.3199997022748 1005
16.3399997018278 1030
16.3599997013807 1075
16.3799997009337 1083
16.3999997004867 1064
16.4199997000396 1080
16.4399996995926 1070
16.4599996991456 1037
16.4799996986985 1036
16.4999996982515 1077
16.5199996978045 1058
16.5399996973574 1055
16.5599996969104 1045
16.5799996964633 988
16.5999996960163 1071
16.6199996955693 1067
16.6399996951222 1057
16.6599996946752 1100
16.6799996942282 1056
16.6999996937811 1075
16.7199996933341 1101
16.7399996928871 1108
16.75999969244 1142
16.779999691993 1121
16.799999691546 1112
16.8199996910989 1188
16.8399996906519 1175
16.8599996902049 1184
16.8799996897578 1218
16.8999996893108 1207
16.9199996888638 1269
16.9399996884167 1212
16.9599996879697 1296
16.9799996875226 1260
16.9999996870756 1342
17.0199996866286 1432
17.0399996861815 1425
17.0599996857345 1511
17.0799996852875 1512
17.0999996848404 1464
17.1199996843934 1482
17.1399996839464 1562
17.1599996834993 1570
17.1799996830523 1589
17.1999996826053 1505
17.2199996821582 1492
17.2399996817112 1394
17.2599996812642 1326
17.2799996808171 1225
17.2999996803701 1217
17.3199996799231 1173
17.339999679476 1227
17.359999679029 1240
17.379999678582 1222
17.3999996781349 1254
17.4199996776879 1266
17.4399996772408 1271
17.4599996767938 1193
17.4799996763468 1182
17.4999996758997 1198
17.5199996754527 1265
17.5399996750057 1175
17.5599996745586 1190
17.5799996741116 1235
17.5999996736646 1271
17.6199996732175 1256
17.6399996727705 1230
17.6599996723235 1283
17.6799996718764 1313
17.6999996714294 1324
17.7199996709824 1275
17.7399996705353 1324
17.7599996700883 1252
17.7799996696413 1273
17.7999996691942 1334
17.8199996687472 1246
17.8399996683002 1241
17.8599996678531 1305
17.8799996674061 1284
17.899999666959 1322
17.919999666512 1273
17.939999666065 1336
17.9599996656179 1286
17.9799996651709 1300
17.9999996647239 1378
18.0199996642768 1352
18.0399996638298 1359
18.0599996633828 1378
18.0799996629357 1324
18.0999996624887 1332
18.1199996620417 1379
18.1399996615946 1402
18.1599996611476 1351
18.1799996607006 1333
18.1999996602535 1361
18.2199996598065 1368
18.2399996593595 1419
18.2599996589124 1399
18.2799996584654 1400
18.2999996580184 1353
18.3199996575713 1384
18.3399996571243 1435
18.3599996566772 1414
18.3799996562302 1407
18.3999996557832 1431
18.4199996553361 1470
18.4399996548891 1499
18.4599996544421 1410
18.479999653995 1445
18.499999653548 1494
18.519999653101 1392
18.5399996526539 1421
18.5599996522069 1521
18.5799996517599 1474
18.5999996513128 1444
18.6199996508658 1521
18.6399996504188 1536
18.6599996499717 1458
18.6799996495247 1446
18.6999996490777 1466
18.7199996486306 1511
18.7399996481836 1496
18.7599996477366 1538
18.7799996472895 1569
18.7999996468425 1573
18.8199996463954 1564
18.8399996459484 1526
18.8599996455014 1539
18.8799996450543 1536
18.8999996446073 1607
18.9199996441603 1621
18.9399996437132 1574
18.9599996432662 1498
18.9799996428192 1580
18.9999996423721 1574
19.0199996419251 1590
19.0399996414781 1622
19.059999641031 1558
19.079999640584 1553
19.099999640137 1552
19.1199996396899 1628
19.1399996392429 1565
19.1599996387959 1682
19.1799996383488 1645
19.1999996379018 1626
19.2199996374547 1605
19.2399996370077 1590
19.2599996365607 1548
19.2799996361136 1630
19.2999996356666 1659
19.3199996352196 1633
19.3399996347725 1538
19.3599996343255 1700
19.3799996338785 1587
19.3999996334314 1647
19.4199996329844 1634
19.4399996325374 1698
19.4599996320903 1629
19.4799996316433 1677
19.4999996311963 1730
19.5199996307492 1706
19.5399996303022 1693
19.5599996298552 1702
19.5799996294081 1688
19.5999996289611 1773
19.6199996285141 1768
19.639999628067 1716
19.65999962762 1668
19.6799996271729 1742
19.6999996267259 1702
19.7199996262789 1768
19.7399996258318 1817
19.7599996253848 1793
19.7799996249378 1709
19.7999996244907 1750
19.8199996240437 1755
19.8399996235967 1752
19.8599996231496 1681
19.8799996227026 1804
19.8999996222556 1783
19.9199996218085 1793
19.9399996213615 1743
19.9599996209145 1852
19.9799996204674 1812
19.9999996200204 1821
