3 2066
3.01999999955297 1829
3.03999999910593 1767
3.0599999986589 1683
3.07999999821186 1572
3.09999999776483 1543
3.11999999731779 1488
3.13999999687076 1493
3.15999999642372 1526
3.17999999597669 1531
3.19999999552965 1442
3.21999999508262 1436
3.23999999463558 1408
3.25999999418855 1426
3.27999999374151 1415
3.29999999329448 1345
3.31999999284744 1455
3.33999999240041 1348
3.35999999195337 1372
3.37999999150634 1424
3.3999999910593 1354
3.41999999061227 1406
3.43999999016523 1353
3.4599999897182 1388
3.47999998927116 1359
3.49999998882413 1384
3.51999998837709 1333
3.53999998793006 1357
3.55999998748302 1340
3.57999998703599 1368
3.59999998658895 1314
3.61999998614192 1339
3.63999998569489 1384
3.65999998524785 1321
3.67999998480082 1340
3.69999998435378 1277
3.71999998390675 1287
3.73999998345971 1265
3.75999998301268 1271
3.77999998256564 1259
3.79999998211861 1346
3.81999998167157 1338
3.83999998122454 1247
3.8599999807775 1272
3.87999998033047 1286
3.89999997988343 1239
3.9199999794364 1324
3.93999997898936 1354
3.95999997854233 1308
3.97999997809529 1325
3.99999997764826 1238
4.01999997720122 1311
4.03999997675419 1347
4.05999997630715 1230
4.07999997586012 1292
4.09999997541308 1317
4.11999997496605 1327
4.13999997451901 1284
4.15999997407198 1304
4.17999997362494 1262
4.19999997317791 1290
4.21999997273087 1243
4.23999997228384 1323
4.25999997183681 1296
4.27999997138977 1328
4.29999997094274 1246
4.3199999704957 1311
4.33999997004867 1326
4.35999996960163 1261
4.3799999691546 1295
4.39999996870756 1328
4.41999996826053 1359
4.43999996781349 1347
4.45999996736646 1326
4.47999996691942 1299
4.49999996647239 1338
4.51999996602535 1351
4.53999996557832 1381
4.55999996513128 1378
4.57999996468425 1355
4.59999996423721 1332
4.61999996379018 1382
4.63999996334314 1359
4.65999996289611 1341
4.67999996244907 1370
4.69999996200204 1333
4.719999961555 1314
4.73999996110797 1284
4.75999996066093 1326
4.7799999602139 1378
4.79999995976686 1425
4.81999995931983 1395
4.83999995887279 1335
4.85999995842576 1383
4.87999995797873 1389
4.89999995753169 1425
4.91999995708466 1397
4.93999995663762 1360
4.95999995619059 1359
4.97999995574355 1388
4.99999995529652 1399
5.01999995484948 1431
5.03999995440245 1403
5.05999995395541 1384
5.07999995350838 1443
5.09999995306134 1397
5.11999995261431 1431
5.13999995216727 1372
5.15999995172024 1296
5.1799999512732 1343
5.19999995082617 1428
5.21999995037913 1467
5.2399999499321 1482
5.25999994948506 1413
5.27999994903803 1452
5.29999994859099 1477
5.31999994814396 1400
5.33999994769692 1390
5.35999994724989 1403
5.37999994680285 1437
5.39999994635582 1503
5.41999994590878 1374
5.43999994546175 1391
5.45999994501471 1344
5.47999994456768 1452
5.49999994412065 1401
5.51999994367361 1452
5.53999994322658 1430
5.55999994277954 1394
5.57999994233251 1354
5.59999994188547 1431
5.61999994143844 1396
5.6399999409914 1357
5.65999994054437 1393
5.67999994009733 1406
5.6999999396503 1421
5.71999993920326 1365
5.73999993875623 1381
5.75999993830919 1359
5.77999993786216 1378
5.79999993741512 1378
5.81999993696809 1344
5.83999993652105 1378
5.85999993607402 1388
5.87999993562698 1359
5.89999993517995 1347
5.91999993473291 1276
5.93999993428588 1262
5.95999993383884 1245
5.97999993339181 1300
5.99999993294477 1269
6.01999993249774 1296
6.0399999320507 1254
6.05999993160367 1225
6.07999993115663 1237
6.0999999307096 1207
6.11999993026257 1272
6.13999992981553 1207
6.1599999293685 1237
6.17999992892146 1200
6.19999992847443 1211
6.21999992802739 1197
6.23999992758036 1172
6.25999992713332 1212
6.27999992668629 1259
6.29999992623925 1244
6.31999992579222 1195
6.33999992534518 1161
6.35999992489815 1130
6.37999992445111 1101
6.39999992400408 1185
6.41999992355704 1199
6.43999992311001 1197
6.45999992266297 1156
6.47999992221594 1083
6.4999999217689 1113
6.51999992132187 1137
6.53999992087483 1045
6.5599999204278 1114
6.57999991998076 1137
6.59999991953373 1069
6.61999991908669 1042
6.63999991863966 1088
6.65999991819262 1113
6.67999991774559 1057
6.69999991729855 1045
6.71999991685152 1041
6.73999991640449 1039
6.75999991595745 1004
6.77999991551042 1036
6.79999991506338 1055
6.81999991461635 1041
6.83999991416931 1004
6.85999991372228 989
6.87999991327524 1001
6.89999991282821 1010
6.91999991238117 1093
6.93999991193414 1010
6.9599999114871 1049
6.97999991104007 982
6.99999991059303 967
7.019999910146 1005
7.03999990969896 975
7.05999990925193 1022
7.07999990880489 957
7.09999990835786 1015
7.11999990791082 970
7.13999990746379 973
7.15999990701675 976
7.17999990656972 1022
7.19999990612268 986
7.21999990567565 939
7.23999990522861 936
7.25999990478158 906
7.27999990433454 962
7.29999990388751 928
7.31999990344047 996
7.33999990299344 953
7.35999990254641 930
7.37999990209937 932
7.39999990165234 935
7.4199999012053 903
7.43999990075827 918
7.45999990031123 926
7.4799998998642 915
7.49999989941716 949
7.51999989897013 915
7.53999989852309 903
7.55999989807606 954
7.57999989762902 967
7.59999989718199 896
7.61999989673495 941
7.63999989628792 876
7.65999989584088 913
7.67999989539385 950
7.69999989494681 958
7.71999989449978 920
7.73999989405274 962
7.75999989360571 947
7.77999989315867 861
7.79999989271164 877
7.8199998922646 912
7.83999989181757 904
7.85999989137053 894
7.8799998909235 884
7.89999989047646 899
7.91999989002943 908
7.9399998895824 853
7.95999988913536 881
7.97999988868833 891
7.99999988824129 886
8.01999988779426 881
8.03999988734722 885
8.05999988690019 885
8.07999988645315 931
8.09999988600612 901
8.11999988555908 908
8.13999988511205 878
8.15999988466501 911
8.17999988421798 910
8.19999988377094 905
8.21999988332391 920
8.23999988287687 899
8.25999988242984 935
8.2799998819828 904
8.29999988153577 873
8.31999988108873 865
8.3399998806417 944
8.35999988019466 903
8.37999987974763 836
8.39999987930059 887
8.41999987885356 918
8.43999987840652 937
8.45999987795949 870
8.47999987751245 891
8.49999987706542 825
8.51999987661839 851
8.53999987617135 849
8.55999987572432 825
8.57999987527728 875
8.59999987483025 893
8.61999987438321 867
8.63999987393618 826
8.65999987348914 796
8.67999987304211 896
8.69999987259507 830
8.71999987214804 861
8.739999871701 889
8.75999987125397 907
8.77999987080693 895
8.7999998703599 836
8.81999986991286 897
8.83999986946583 871
8.85999986901879 874
8.87999986857176 962
8.89999986812472 903
8.91999986767769 890
8.93999986723065 886
8.95999986678362 858
8.97999986633658 840
8.99999986588955 886
9.01999986544251 870
9.03999986499548 867
9.05999986454844 861
9.07999986410141 897
9.09999986365438 872
9.11999986320734 859
9.13999986276031 874
9.15999986231327 850
9.17999986186624 889
9.1999998614192 873
9.21999986097217 869
9.23999986052513 838
9.2599998600781 874
9.27999985963106 903
9.29999985918403 922
9.31999985873699 904
9.33999985828996 890
9.35999985784292 866
9.37999985739589 885
9.39999985694885 866
9.41999985650182 850
9.43999985605478 864
9.45999985560775 884
9.47999985516071 954
9.49999985471368 917
9.51999985426664 947
9.53999985381961 895
9.55999985337257 925
9.57999985292554 912
9.5999998524785 928
9.61999985203147 930
9.63999985158443 913
9.6599998511374 961
9.67999985069037 921
9.69999985024333 933
9.7199998497963 890
9.73999984934926 930
9.75999984890223 928
9.77999984845519 926
9.79999984800816 971
9.81999984756112 951
9.83999984711409 902
9.85999984666705 917
9.87999984622002 945
9.89999984577298 936
9.91999984532595 920
9.93999984487891 923
9.95999984443188 923
9.97999984398484 871
9.99999984353781 979
10.0199998430908 960
10.0399998426437 902
10.0599998421967 917
10.0799998417497 956
10.0999998413026 967
10.1199998408556 937
10.1399998404086 884
10.1599998399615 898
10.1799998395145 989
10.1999998390675 928
10.2199998386204 924
10.2399998381734 880
10.2599998377264 893
10.2799998372793 936
10.2999998368323 936
10.3199998363853 877
10.3399998359382 940
10.3599998354912 910
10.3799998350441 942
10.3999998345971 896
10.4199998341501 916
10.439999833703 926
10.459999833256 869
10.479999832809 945
10.4999998323619 894
10.5199998319149 904
10.5399998314679 922
10.5599998310208 857
10.5799998305738 910
10.5999998301268 859
10.6199998296797 865
10.6399998292327 918
10.6599998287857 864
10.6799998283386 939
10.6999998278916 890
10.7199998274446 893
10.7399998269975 907
10.7599998265505 913
10.7799998261034 947
10.7999998256564 915
10.8199998252094 908
10.8399998247623 905
10.8599998243153 978
10.8799998238683 942
10.8999998234212 902
10.9199998229742 849
10.9399998225272 909
10.9599998220801 892
10.9799998216331 920
10.9999998211861 912
11.019999820739 915
11.039999820292 927
11.059999819845 917
11.0799998193979 886
11.0999998189509 917
11.1199998185039 894
11.1399998180568 911
11.1599998176098 917
11.1799998171628 881
11.1999998167157 952
11.2199998162687 923
11.2399998158216 923
11.2599998153746 941
11.2799998149276 929
11.2999998144805 893
11.3199998140335 917
11.3399998135865 934
11.3599998131394 916
11.3799998126924 925
11.3999998122454 910
11.4199998117983 947
11.4399998113513 920
11.4599998109043 924
11.4799998104572 899
11.4999998100102 916
11.5199998095632 932
11.5399998091161 885
11.5599998086691 927
11.5799998082221 897
11.599999807775 924
11.619999807328 938
11.639999806881 897
11.6599998064339 909
11.6799998059869 922
11.6999998055398 943
11.7199998050928 921
11.7399998046458 935
11.7599998041987 842
11.7799998037517 919
11.7999998033047 939
11.8199998028576 936
11.8399998024106 855
11.8599998019636 941
11.8799998015165 924
11.8999998010695 852
11.9199998006225 907
11.9399998001754 947
11.9599997997284 896
11.9799997992814 926
11.9999997988343 929
12.0199997983873 918
12.0399997979403 880
12.0599997974932 869
12.0799997970462 944
12.0999997965992 943
12.1199997961521 952
12.1399997957051 943
12.159999795258 913
12.179999794811 886
12.199999794364 868
12.2199997939169 908
12.2399997934699 931
12.2599997930229 871
12.2799997925758 885
12.2999997921288 928
12.3199997916818 925
12.3399997912347 919
12.3599997907877 931
12.3799997903407 945
12.3999997898936 895
12.4199997894466 910
12.4399997889996 876
12.4599997885525 923
12.4799997881055 946
12.4999997876585 925
12.5199997872114 957
12.5399997867644 960
12.5599997863173 978
12.5799997858703 934
12.5999997854233 946
12.6199997849762 936
12.6399997845292 918
12.6599997840822 986
12.6799997836351 885
12.6999997831881 1003
12.7199997827411 922
12.739999782294 964
12.759999781847 945
12.7799997814 968
12.7999997809529 943
12.8199997805059 947
12.8399997800589 915
12.8599997796118 930
12.8799997791648 947
12.8999997787178 910
12.9199997782707 943
12.9399997778237 967
12.9599997773767 967
12.9799997769296 891
12.9999997764826 924
13.0199997760355 992
13.0399997755885 961
13.0599997751415 944
13.0799997746944 941
13.0999997742474 974
13.1199997738004 1014
13.1399997733533 1000
13.1599997729063 1014
13.1799997724593 969
13.1999997720122 992
13.2199997715652 991
13.2399997711182 933
13.2599997706711 991
13.2799997702241 991
13.2999997697771 982
13.31999976933 947
13.339999768883 963
13.359999768436 988
13.3799997679889 1001
13.3999997675419 956
13.4199997670949 956
13.4399997666478 980
13.4599997662008 991
13.4799997657537 969
13.4999997653067 1019
13.5199997648597 957
13.5399997644126 971
13.5599997639656 974
13.5799997635186 1053
13.5999997630715 998
13.6199997626245 973
13.6399997621775 1028
13.6599997617304 1014
13.6799997612834 960
13.6999997608364 984
13.7199997603893 987
13.7399997599423 1000
13.7599997594953 1042
13.7799997590482 1019
13.7999997586012 976
13.8199997581542 1052
13.8399997577071 1031
13.8599997572601 1045
13.879999756813 1058
13.899999756366 1050
13.919999755919 1038
13.9399997554719 1050
13.9599997550249 998
13.9799997545779 1041
13.9999997541308 1038
14.0199997536838 984
14.0399997532368 1036
14.0599997527897 1061
14.0799997523427 1020
14.0999997518957 1065
14.1199997514486 1025
14.1399997510016 1045
14.1599997505546 1009
14.1799997501075 1050
14.1999997496605 1060
14.2199997492135 1080
14.2399997487664 1038
14.2599997483194 1055
14.2799997478724 1113
14.2999997474253 1058
14.3199997469783 1015
14.3399997465312 1057
14.3599997460842 1020
14.3799997456372 1020
14.3999997451901 1085
14.4199997447431 1101
14.4399997442961 1025
14.459999743849 1101
14.479999743402 1038
14.499999742955 1061
14.5199997425079 1061
14.5399997420609 1035
14.5599997416139 1096
14.5799997411668 1083
14.5999997407198 1086
14.6199997402728 1075
14.6399997398257 1105
14.6599997393787 1087
14.6799997389317 1112
14.6999997384846 1037
14.7199997380376 1124
14.7399997375906 1070
14.7599997371435 1064
14.7799997366965 1088
14.7999997362494 1141
14.8199997358024 1124
14.8399997353554 1056
14.8599997349083 1103
14.8799997344613 1103
14.8999997340143 1080
14.9199997335672 1061
14.9399997331202 1099
14.9599997326732 1078
14.9799997322261 1100
14.9999997317791 1071
15.0199997313321 1129
15.039999730885 1198
15.059999730438 1117
15.079999729991 1123
15.0999997295439 1122
15.1199997290969 1115
15.1399997286499 1085
15.1599997282028 1130
15.1799997277558 1110
15.1999997273088 1139
15.2199997268617 1119
15.2399997264147 1142
15.2599997259676 1120
15.2799997255206 1138
15.2999997250736 1115
15.3199997246265 1079
15.3399997241795 1181
15.3599997237325 1149
15.3799997232854 1124
15.3999997228384 1153
15.4199997223914 1055
15.4399997219443 1117
15.4599997214973 1158
15.4799997210503 1108
15.4999997206032 1183
15.5199997201562 1112
15.5399997197092 1199
15.5599997192621 1158
15.5799997188151 1188
15.5999997183681 1165
15.619999717921 1222
15.639999717474 1206
15.659999717027 1171
15.6799997165799 1191
15.6999997161329 1150
15.7199997156858 1161
15.7399997152388 1195
15.7599997147918 1148
15.7799997143447 1109
15.7999997138977 1210
15.8199997134507 1169
15.8399997130036 1213
15.8599997125566 1238
15.8799997121096 1174
15.8999997116625 1201
15.9199997112155 1191
15.9399997107685 1175
15.9599997103214 1216
15.9799997098744 1229
15.9999997094274 1205
16.0199997089803 1256
16.0399997085333 1230
16.0599997080863 1247
16.0799997076392 1209
16.0999997071922 1268
16.1199997067451 1213
16.1399997062981 1202
16.1599997058511 1224
16.179999705404 1292
16.199999704957 1265
16.21999970451 1188
16.2399997040629 1254
16.2599997036159 1221
16.2799997031689 1256
16.2999997027218 1237
16.3199997022748 1214
16.3399997018278 1283
16.3599997013807 1306
16.3799997009337 1280
16.3999997004867 1314
16.4199997000396 1254
16.4399996995926 1263
16.4599996991456 1257
16.4799996986985 1184
16.4999996982515 1250
16.5199996978045 1276
16.5399996973574 1297
16.5599996969104 1255
16.5799996964633 1267
16.5999996960163 1266
16.6199996955693 1315
16.6399996951222 1284
16.6599996946752 1328
16.6799996942282 1260
16.6999996937811 1262
16.7199996933341 1322
16.7399996928871 1303
16.75999969244 1327
16.779999691993 1316
16.799999691546 1355
16.8199996910989 1283
16.8399996906519 1294
16.8599996902049 1366
16.8799996897578 1412
16.8999996893108 1425
16.9199996888638 1468
16.9399996884167 1379
16.9599996879697 1384
16.9799996875226 1384
16.9999996870756 1377
17.0199996866286 1365
17.0399996861815 1430
17.0599996857345 1398
17.0799996852875 1438
17.0999996848404 1375
17.1199996843934 1368
17.1399996839464 1336
17.1599996834993 1364
17.1799996830523 1385
17.1999996826053 1415
17.2199996821582 1381
17.2399996817112 1416
17.2599996812642 1426
17.2799996808171 1413
17.2999996803701 1414
17.3199996799231 1412
17.339999679476 1413
17.359999679029 1354
17.379999678582 1387
17.3999996781349 1406
17.4199996776879 1444
17.4399996772408 1451
17.4599996767938 1479
17.4799996763468 1436
17.4999996758997 1448
17.5199996754527 1409
17.5399996750057 1495
17.5599996745586 1515
17.5799996741116 1502
17.5999996736646 1511
17.6199996732175 1460
17.6399996727705 1518
17.6599996723235 1431
17.6799996718764 1525
17.6999996714294 1450
17.7199996709824 1474
17.7399996705353 1442
17.7599996700883 1514
17.7799996696413 1498
17.7999996691942 1456
17.8199996687472 1494
17.8399996683002 1560
17.8599996678531 1501
17.8799996674061 1492
17.899999666959 1521
17.919999666512 1411
17.939999666065 1501
17.9599996656179 1481
17.9799996651709 1509
17.9999996647239 1521
18.0199996642768 1655
18.0399996638298 1533
18.0599996633828 1503
18.0799996629357 1526
18.0999996624887 1589
18.1199996620417 1521
18.1399996615946 1533
18.1599996611476 1609
18.1799996607006 1560
18.1999996602535 1531
18.2199996598065 1637
18.2399996593595 1590
18.2599996589124 1594
18.2799996584654 1585
18.2999996580184 1609
18.3199996575713 1619
18.3399996571243 1606
18.3599996566772 1609
18.3799996562302 1580
18.3999996557832 1628
18.4199996553361 1615
18.4399996548891 1667
18.4599996544421 1674
18.479999653995 1586
18.499999653548 1579
18.519999653101 1616
18.5399996526539 1654
18.5599996522069 1694
18.5799996517599 1733
18.5999996513128 1689
18.6199996508658 1631
18.6399996504188 1577
18.6599996499717 1685
18.6799996495247 1667
18.6999996490777 1621
18.7199996486306 1645
18.7399996481836 1602
18.7599996477366 1704
18.7799996472895 1611
18.7999996468425 1715
18.8199996463954 1671
18.8399996459484 1677
18.8599996455014 1723
18.8799996450543 1608
18.8999996446073 1637
18.9199996441603 1730
18.9399996437132 1719
18.9599996432662 1699
18.9799996428192 1726
18.9999996423721 1737
19.0199996419251 1698
19.0399996414781 1717
19.059999641031 1695
19.079999640584 1764
19.099999640137 1742
19.1199996396899 1711
19.1399996392429 1742
19.1599996387959 1775
19.1799996383488 1730
19.1999996379018 1718
19.2199996374547 1718
19.2399996370077 1723
19.2599996365607 1813
19.2799996361136 1809
19.2999996356666 1721
19.3199996352196 1695
19.3399996347725 1782
19.3599996343255 1791
19.3799996338785 1738
19.3999996334314 1783
19.4199996329844 1883
19.4399996325374 1800
19.4599996320903 1781
19.4799996316433 1880
19.4999996311963 1786
19.5199996307492 1831
19.5399996303022 1843
19.5599996298552 1764
19.5799996294081 1784
19.5999996289611 1809
19.6199996285141 1847
19.639999628067 1757
19.65999962762 1814
19.6799996271729 1772
19.6999996267259 1873
19.7199996262789 1776
19.7399996258318 1855
19.7599996253848 1837
19.7799996249378 1833
19.7999996244907 1821
19.8199996240437 1778
19.8399996235967 1823
19.8599996231496 1810
19.8799996227026 1782
19.8999996222556 1864
19.9199996218085 1858
19.9399996213615 1853
19.9599996209145 1811
19.9799996204674 1865
19.9999996200204 1888
