3 2278
3.01999999955297 2260
3.03999999910593 1971
3.0599999986589 1871
3.07999999821186 1796
3.09999999776483 1774
3.11999999731779 1744
3.13999999687076 1623
3.15999999642372 1586
3.17999999597669 1566
3.19999999552965 1584
3.21999999508262 1671
3.23999999463558 1519
3.25999999418855 1530
3.27999999374151 1550
3.29999999329448 1547
3.31999999284744 1504
3.33999999240041 1528
3.35999999195337 1587
3.37999999150634 1501
3.3999999910593 1482
3.41999999061227 1544
3.43999999016523 1483
3.4599999897182 1568
3.47999998927116 1503
3.49999998882413 1479
3.51999998837709 1480
3.53999998793006 1506
3.55999998748302 1442
3.57999998703599 1499
3.59999998658895 1540
3.61999998614192 1488
3.63999998569489 1468
3.65999998524785 1500
3.67999998480082 1531
3.69999998435378 1513
3.71999998390675 1514
3.73999998345971 1626
3.75999998301268 1644
3.77999998256564 1461
3.79999998211861 1653
3.81999998167157 1587
3.83999998122454 1548
3.8599999807775 1568
3.87999998033047 1610
3.89999997988343 1654
3.9199999794364 1665
3.93999997898936 1702
3.95999997854233 1734
3.97999997809529 1793
3.99999997764826 1868
4.01999997720122 1933
4.03999997675419 1948
4.05999997630715 1993
4.07999997586012 1970
4.09999997541308 2121
4.11999997496605 2092
4.13999997451901 2039
4.15999997407198 1900
4.17999997362494 1820
4.19999997317791 1704
4.21999997273087 1573
4.23999997228384 1516
4.25999997183681 1398
4.27999997138977 1366
4.29999997094274 1311
4.3199999704957 1280
4.33999997004867 1314
4.35999996960163 1219
4.3799999691546 1254
4.39999996870756 1209
4.41999996826053 1184
4.43999996781349 1186
4.45999996736646 1176
4.47999996691942 1204
4.49999996647239 1189
4.51999996602535 1178
4.53999996557832 1178
4.55999996513128 1206
4.57999996468425 1173
4.59999996423721 1222
4.61999996379018 1187
4.63999996334314 1199
4.65999996289611 1209
4.67999996244907 1241
4.69999996200204 1207
4.719999961555 1280
4.73999996110797 1277
4.75999996066093 1313
4.7799999602139 1305
4.79999995976686 1343
4.81999995931983 1336
4.83999995887279 1299
4.85999995842576 1342
4.87999995797873 1400
4.89999995753169 1416
4.91999995708466 1473
4.93999995663762 1588
4.95999995619059 1533
4.97999995574355 1560
4.99999995529652 1631
5.01999995484948 1702
5.03999995440245 1699
5.05999995395541 1817
5.07999995350838 1812
5.09999995306134 1933
5.11999995261431 2026
5.13999995216727 2073
5.15999995172024 2212
5.1799999512732 2356
5.19999995082617 2439
5.21999995037913 2608
5.2399999499321 2690
5.25999994948506 2956
5.27999994903803 3076
5.29999994859099 3239
5.31999994814396 3495
5.33999994769692 3722
5.35999994724989 4126
5.37999994680285 4799
5.39999994635582 5279
5.41999994590878 5621
5.43999994546175 5422
5.45999994501471 4865
5.47999994456768 4392
5.49999994412065 4090
5.51999994367361 4145
5.53999994322658 4113
5.55999994277954 4370
5.57999994233251 4670
5.59999994188547 4955
5.61999994143844 5282
5.6399999409914 5683
5.65999994054437 6214
5.67999994009733 6961
5.6999999396503 7678
5.71999993920326 8586
5.73999993875623 9549
5.75999993830919 10410
5.77999993786216 10679
5.79999993741512 10222
5.81999993696809 8851
5.83999993652105 6975
5.85999993607402 5124
5.87999993562698 3926
5.89999993517995 3016
5.91999993473291 2478
5.93999993428588 2141
5.95999993383884 1976
5.97999993339181 1723
5.99999993294477 1601
6.01999993249774 1551
6.0399999320507 1499
6.05999993160367 1486
6.07999993115663 1415
6.0999999307096 1384
6.11999993026257 1397
6.13999992981553 1335
6.1599999293685 1328
6.17999992892146 1306
6.19999992847443 1288
6.21999992802739 1307
6.23999992758036 1276
6.25999992713332 1273
6.27999992668629 1172
6.29999992623925 1283
6.31999992579222 1283
6.33999992534518 1199
6.35999992489815 1245
6.37999992445111 1239
6.39999992400408 1272
6.41999992355704 1254
6.43999992311001 1290
6.45999992266297 1215
6.47999992221594 1225
6.4999999217689 1331
6.51999992132187 1396
6.53999992087483 1342
6.5599999204278 1365
6.57999991998076 1392
6.59999991953373 1434
6.61999991908669 1488
6.63999991863966 1512
6.65999991819262 1552
6.67999991774559 1669
6.69999991729855 1735
6.71999991685152 1775
6.73999991640449 1790
6.75999991595745 1889
6.77999991551042 1746
6.79999991506338 1719
6.81999991461635 1521
6.83999991416931 1391
6.85999991372228 1338
6.87999991327524 1226
6.89999991282821 1203
6.91999991238117 1179
6.93999991193414 1080
6.9599999114871 1164
6.97999991104007 1101
6.99999991059303 1052
7.019999910146 1013
7.03999990969896 1041
7.05999990925193 1011
7.07999990880489 1022
7.09999990835786 978
7.11999990791082 999
7.13999990746379 1028
7.15999990701675 1050
7.17999990656972 1048
7.19999990612268 999
7.21999990567565 982
7.23999990522861 968
7.25999990478158 1030
7.27999990433454 999
7.29999990388751 974
7.31999990344047 1029
7.33999990299344 1009
7.35999990254641 1024
7.37999990209937 1018
7.39999990165234 978
7.4199999012053 975
7.43999990075827 991
7.45999990031123 987
7.4799998998642 939
7.49999989941716 986
7.51999989897013 983
7.53999989852309 945
7.55999989807606 954
7.57999989762902 1037
7.59999989718199 947
7.61999989673495 1003
7.63999989628792 967
7.65999989584088 980
7.67999989539385 969
7.69999989494681 989
7.71999989449978 998
7.73999989405274 984
7.75999989360571 939
7.77999989315867 970
7.79999989271164 999
7.8199998922646 1030
7.83999989181757 1083
7.85999989137053 1047
7.8799998909235 1026
7.89999989047646 992
7.91999989002943 1065
7.9399998895824 1064
7.95999988913536 1045
7.97999988868833 1072
7.99999988824129 1093
8.01999988779426 1079
8.03999988734722 1090
8.05999988690019 1066
8.07999988645315 1151
8.09999988600612 1093
8.11999988555908 1092
8.13999988511205 1189
8.15999988466501 1167
8.17999988421798 1126
8.19999988377094 1069
8.21999988332391 1091
8.23999988287687 1053
8.25999988242984 1032
8.2799998819828 1052
8.29999988153577 1057
8.31999988108873 1051
8.3399998806417 966
8.35999988019466 1076
8.37999987974763 1047
8.39999987930059 1031
8.41999987885356 1019
8.43999987840652 970
8.45999987795949 978
8.47999987751245 1061
8.49999987706542 1058
8.51999987661839 961
8.53999987617135 991
8.55999987572432 996
8.57999987527728 1002
8.59999987483025 1003
8.61999987438321 1008
8.63999987393618 1004
8.65999987348914 991
8.67999987304211 1062
8.69999987259507 1020
8.71999987214804 1066
8.739999871701 1043
8.75999987125397 1071
8.77999987080693 969
8.7999998703599 1039
8.81999986991286 1116
8.83999986946583 1103
8.85999986901879 1127
8.87999986857176 1092
8.89999986812472 1136
8.91999986767769 1115
8.93999986723065 1176
8.95999986678362 1185
8.97999986633658 1219
8.99999986588955 1191
9.01999986544251 1281
9.03999986499548 1305
9.05999986454844 1353
9.07999986410141 1401
9.09999986365438 1421
9.11999986320734 1548
9.13999986276031 1636
9.15999986231327 1687
9.17999986186624 1755
9.1999998614192 1898
9.21999986097217 1998
9.23999986052513 2216
9.2599998600781 2527
9.27999985963106 2938
9.29999985918403 3294
9.31999985873699 3597
9.33999985828996 3850
9.35999985784292 3380
9.37999985739589 2772
9.39999985694885 2066
9.41999985650182 1594
9.43999985605478 1381
9.45999985560775 1249
9.47999985516071 1156
9.49999985471368 1101
9.51999985426664 1175
9.53999985381961 1114
9.55999985337257 1191
9.57999985292554 1109
9.5999998524785 1122
9.61999985203147 1136
9.63999985158443 1129
9.6599998511374 1157
9.67999985069037 1167
9.69999985024333 1127
9.7199998497963 1137
9.73999984934926 1169
9.75999984890223 1160
9.77999984845519 1208
9.79999984800816 1217
9.81999984756112 1167
9.83999984711409 1229
9.85999984666705 1148
9.87999984622002 1173
9.89999984577298 1196
9.91999984532595 1199
9.93999984487891 1232
9.95999984443188 1288
9.97999984398484 1258
9.99999984353781 1334
10.0199998430908 1349
10.0399998426437 1448
10.0599998421967 1399
10.0799998417497 1509
10.0999998413026 1523
10.1199998408556 1632
10.1399998404086 1709
10.1599998399615 1817
10.1799998395145 1886
10.1999998390675 1738
10.2199998386204 1671
10.2399998381734 1532
10.2599998377264 1434
10.2799998372793 1320
10.2999998368323 1252
10.3199998363853 1218
10.3399998359382 1196
10.3599998354912 1196
10.3799998350441 1179
10.3999998345971 1105
10.4199998341501 1108
10.439999833703 1123
10.459999833256 1150
10.479999832809 1043
10.4999998323619 1151
10.5199998319149 1171
10.5399998314679 1246
10.5599998310208 1192
10.5799998305738 1225
10.5999998301268 1219
10.6199998296797 1239
10.6399998292327 1382
10.6599998287857 1386
10.6799998283386 1464
10.6999998278916 1563
10.7199998274446 1548
10.7399998269975 1688
10.7599998265505 1828
10.7799998261034 1828
10.7999998256564 1828
10.8199998252094 1784
10.8399998247623 1742
10.8599998243153 1893
10.8799998238683 2029
10.8999998234212 1997
10.9199998229742 2346
10.9399998225272 2522
10.9599998220801 2633
10.9799998216331 2485
10.9999998211861 2335
11.019999820739 1917
11.039999820292 1572
11.059999819845 1383
11.0799998193979 1281
11.0999998189509 1221
11.1199998185039 1273
11.1399998180568 1221
11.1599998176098 1232
11.1799998171628 1209
11.1999998167157 1180
11.2199998162687 1228
11.2399998158216 1178
11.2599998153746 1195
11.2799998149276 1258
11.2999998144805 1250
11.3199998140335 1281
11.3399998135865 1321
11.3599998131394 1366
11.3799998126924 1416
11.3999998122454 1445
11.4199998117983 1536
11.4399998113513 1524
11.4599998109043 1630
11.4799998104572 1575
11.4999998100102 1605
11.5199998095632 1608
11.5399998091161 1524
11.5599998086691 1442
11.5799998082221 1377
11.599999807775 1278
11.619999807328 1272
11.639999806881 1298
11.6599998064339 1155
11.6799998059869 1180
11.6999998055398 1158
11.7199998050928 1124
11.7399998046458 1105
11.7599998041987 1127
11.7799998037517 1121
11.7999998033047 1095
11.8199998028576 1136
11.8399998024106 1104
11.8599998019636 1091
11.8799998015165 1098
11.8999998010695 1097
11.9199998006225 1164
11.9399998001754 1149
11.9599997997284 1140
11.9799997992814 1176
11.9999997988343 1136
12.0199997983873 1199
12.0399997979403 1273
12.0599997974932 1236
12.0799997970462 1260
12.0999997965992 1267
12.1199997961521 1244
12.1399997957051 1329
12.159999795258 1366
12.179999794811 1365
12.199999794364 1325
12.2199997939169 1318
12.2399997934699 1308
12.2599997930229 1300
12.2799997925758 1225
12.2999997921288 1202
12.3199997916818 1189
12.3399997912347 1211
12.3599997907877 1185
12.3799997903407 1149
12.3999997898936 1172
12.4199997894466 1101
12.4399997889996 1128
12.4599997885525 1147
12.4799997881055 1101
12.4999997876585 1075
12.5199997872114 1095
12.5399997867644 1087
12.5599997863173 1140
12.5799997858703 1133
12.5999997854233 1030
12.6199997849762 1111
12.6399997845292 1055
12.6599997840822 1005
12.6799997836351 1055
12.6999997831881 1079
12.7199997827411 1001
12.739999782294 1003
12.759999781847 1045
12.7799997814 1074
12.7999997809529 1105
12.8199997805059 1065
12.8399997800589 1075
12.8599997796118 1065
12.8799997791648 1026
12.8999997787178 1090
12.9199997782707 1039
12.9399997778237 1100
12.9599997773767 1107
12.9799997769296 1026
12.9999997764826 1109
13.0199997760355 1062
13.0399997755885 1049
13.0599997751415 1116
13.0799997746944 1127
13.0999997742474 1129
13.1199997738004 1088
13.1399997733533 1161
13.1599997729063 1130
13.1799997724593 1131
13.1999997720122 1134
13.2199997715652 1123
13.2399997711182 1121
13.2599997706711 1209
13.2799997702241 1162
13.2999997697771 1218
13.31999976933 1228
13.339999768883 1190
13.359999768436 1210
13.3799997679889 1173
13.3999997675419 1231
13.4199997670949 1221
13.4399997666478 1204
13.4599997662008 1193
13.4799997657537 1172
13.4999997653067 1161
13.5199997648597 1135
13.5399997644126 1206
13.5599997639656 1177
13.5799997635186 1123
13.5999997630715 1126
13.6199997626245 1096
13.6399997621775 1095
13.6599997617304 1126
13.6799997612834 1143
13.6999997608364 1101
13.7199997603893 1126
13.7399997599423 1092
13.7599997594953 1130
13.7799997590482 1063
13.7999997586012 1159
13.8199997581542 1134
13.8399997577071 1150
13.8599997572601 1081
13.879999756813 1123
13.899999756366 1132
13.919999755919 1116
13.9399997554719 1130
13.9599997550249 1149
13.9799997545779 1146
13.9999997541308 1125
14.0199997536838 1152
14.0399997532368 1136
14.0599997527897 1136
14.0799997523427 1185
14.0999997518957 1181
14.1199997514486 1184
14.1399997510016 1209
14.1599997505546 1178
14.1799997501075 1204
14.1999997496605 1222
14.2199997492135 1260
14.2399997487664 1239
14.2599997483194 1203
14.2799997478724 1224
14.2999997474253 1284
14.3199997469783 1206
14.3399997465312 1316
14.3599997460842 1307
14.3799997456372 1313
14.3999997451901 1382
14.4199997447431 1282
14.4399997442961 1187
14.459999743849 1171
14.479999743402 1168
14.499999742955 1188
14.5199997425079 1213
14.5399997420609 1231
14.5599997416139 1202
14.5799997411668 1227
14.5999997407198 1206
14.6199997402728 1231
14.6399997398257 1260
14.6599997393787 1241
14.6799997389317 1321
14.6999997384846 1222
14.7199997380376 1244
14.7399997375906 1276
14.7599997371435 1295
14.7799997366965 1328
14.7999997362494 1314
14.8199997358024 1306
14.8399997353554 1333
14.8599997349083 1367
14.8799997344613 1343
14.8999997340143 1313
14.9199997335672 1321
14.9399997331202 1269
14.9599997326732 1268
14.9799997322261 1243
14.9999997317791 1210
15.0199997313321 1208
15.039999730885 1246
15.059999730438 1267
15.079999729991 1225
15.0999997295439 1280
15.1199997290969 1239
15.1399997286499 1302
15.1599997282028 1326
15.1799997277558 1328
15.1999997273088 1260
15.2199997268617 1312
15.2399997264147 1289
15.2599997259676 1374
15.2799997255206 1312
15.2999997250736 1277
15.3199997246265 1263
15.3399997241795 1415
15.3599997237325 1242
15.3799997232854 1370
15.3999997228384 1234
15.4199997223914 1275
15.4399997219443 1282
15.4599997214973 1279
15.4799997210503 1267
15.4999997206032 1336
15.5199997201562 1317
15.5399997197092 1232
15.5599997192621 1297
15.5799997188151 1320
15.5999997183681 1254
15.619999717921 1275
15.639999717474 1337
15.659999717027 1381
15.6799997165799 1356
15.6999997161329 1329
15.7199997156858 1289
15.7399997152388 1294
15.7599997147918 1312
15.7799997143447 1298
15.7999997138977 1346
15.8199997134507 1348
15.8399997130036 1348
15.8599997125566 1370
15.8799997121096 1333
15.8999997116625 1324
15.9199997112155 1301
15.9399997107685 1354
15.9599997103214 1353
15.9799997098744 1379
15.9999997094274 1341
16.0199997089803 1407
16.0399997085333 1423
16.0599997080863 1357
16.0799997076392 1368
16.0999997071922 1366
16.1199997067451 1438
16.1399997062981 1499
16.1599997058511 1506
16.179999705404 1479
16.199999704957 1497
16.21999970451 1485
16.2399997040629 1449
16.2599997036159 1470
16.2799997031689 1516
16.2999997027218 1506
16.3199997022748 1480
16.3399997018278 1485
16.3599997013807 1552
16.3799997009337 1378
16.3999997004867 1482
16.4199997000396 1402
16.4399996995926 1477
16.4599996991456 1492
16.4799996986985 1446
16.4999996982515 1431
16.5199996978045 1491
16.5399996973574 1478
16.5599996969104 1482
16.5799996964633 1509
16.5999996960163 1503
16.6199996955693 1468
16.6399996951222 1462
16.6599996946752 1498
16.6799996942282 1496
16.6999996937811 1538
16.7199996933341 1551
16.7399996928871 1427
16.75999969244 1549
16.779999691993 1624
16.799999691546 1547
16.8199996910989 1666
16.8399996906519 1691
16.8599996902049 1747
16.8799996897578 1907
16.8999996893108 1942
16.9199996888638 2078
16.9399996884167 2310
16.9599996879697 2722
16.9799996875226 2917
16.9999996870756 3122
17.0199996866286 3101
17.0399996861815 2675
17.0599996857345 2283
17.0799996852875 1928
17.0999996848404 1725
17.1199996843934 1632
17.1399996839464 1603
17.1599996834993 1633
17.1799996830523 1676
17.1999996826053 1561
17.2199996821582 1596
17.2399996817112 1622
17.2599996812642 1691
17.2799996808171 1752
17.2999996803701 1647
17.3199996799231 1638
17.339999679476 1652
17.359999679029 1621
17.379999678582 1528
17.3999996781349 1629
17.4199996776879 1656
17.4399996772408 1642
17.4599996767938 1610
17.4799996763468 1680
17.4999996758997 1614
17.5199996754527 1697
17.5399996750057 1598
17.5599996745586 1652
17.5799996741116 1646
17.5999996736646 1692
17.6199996732175 1670
17.6399996727705 1666
17.6599996723235 1693
17.6799996718764 1625
17.6999996714294 1670
17.7199996709824 1650
17.7399996705353 1741
17.7599996700883 1713
17.7799996696413 1653
17.7999996691942 1742
17.8199996687472 1700
17.8399996683002 1715
17.8599996678531 1728
17.8799996674061 1796
17.899999666959 1694
17.919999666512 1705
17.939999666065 1749
17.9599996656179 1705
17.9799996651709 1733
17.9999996647239 1676
18.0199996642768 1744
18.0399996638298 1791
18.0599996633828 1754
18.0799996629357 1705
18.0999996624887 1668
18.1199996620417 1695
18.1399996615946 1813
18.1599996611476 1785
18.1799996607006 1750
18.1999996602535 1703
18.2199996598065 1725
18.2399996593595 1726
18.2599996589124 1791
18.2799996584654 1822
18.2999996580184 1719
18.3199996575713 1785
18.3399996571243 1781
18.3599996566772 1828
18.3799996562302 1845
18.3999996557832 1749
18.4199996553361 1817
18.4399996548891 1798
18.4599996544421 1746
18.479999653995 1760
18.499999653548 1775
18.519999653101 1840
18.5399996526539 1759
18.5599996522069 1849
18.5799996517599 1770
18.5999996513128 1868
18.6199996508658 1880
18.6399996504188 1918
18.6599996499717 1902
18.6799996495247 1980
18.6999996490777 1950
18.7199996486306 1877
18.7399996481836 2033
18.7599996477366 2031
18.7799996472895 1989
18.7999996468425 1934
18.8199996463954 1982
18.8399996459484 1895
18.8599996455014 1985
18.8799996450543 1988
18.8999996446073 2049
18.9199996441603 1995
18.9399996437132 2007
18.9599996432662 2057
18.9799996428192 2034
18.9999996423721 2037
19.0199996419251 2130
19.0399996414781 2127
19.059999641031 2152
19.079999640584 2241
19.099999640137 2333
19.1199996396899 2137
19.1399996392429 2098
19.1599996387959 2164
19.1799996383488 2084
19.1999996379018 2079
19.2199996374547 2054
19.2399996370077 2103
19.2599996365607 2028
19.2799996361136 2015
19.2999996356666 2014
19.3199996352196 2068
19.3399996347725 2110
19.3599996343255 2080
19.3799996338785 2115
19.3999996334314 2210
19.4199996329844 2214
19.4399996325374 2165
19.4599996320903 2234
19.4799996316433 2299
19.4999996311963 2247
19.5199996307492 2392
19.5399996303022 2360
19.5599996298552 2354
19.5799996294081 2308
19.5999996289611 2297
19.6199996285141 2140
19.639999628067 2156
19.65999962762 2110
19.6799996271729 2049
19.6999996267259 2116
19.7199996262789 2068
19.7399996258318 2171
19.7599996253848 2139
19.7799996249378 2144
19.7999996244907 2138
19.8199996240437 2251
19.8399996235967 2253
19.8599996231496 2153
19.8799996227026 2254
19.8999996222556 2272
19.9199996218085 2161
19.9399996213615 2193
19.9599996209145 2137
19.9799996204674 2152
19.9999996200204 2099
