3 2170
3.01999999955297 1969
3.03999999910593 1779
3.0599999986589 1766
3.07999999821186 1727
3.09999999776483 1649
3.11999999731779 1602
3.13999999687076 1581
3.15999999642372 1493
3.17999999597669 1447
3.19999999552965 1527
3.21999999508262 1469
3.23999999463558 1467
3.25999999418855 1409
3.27999999374151 1366
3.29999999329448 1430
3.31999999284744 1301
3.33999999240041 1373
3.35999999195337 1429
3.37999999150634 1345
3.3999999910593 1408
3.41999999061227 1427
3.43999999016523 1384
3.4599999897182 1352
3.47999998927116 1361
3.49999998882413 1322
3.51999998837709 1295
3.53999998793006 1365
3.55999998748302 1330
3.57999998703599 1213
3.59999998658895 1261
3.61999998614192 1251
3.63999998569489 1244
3.65999998524785 1315
3.67999998480082 1221
3.69999998435378 1208
3.71999998390675 1197
3.73999998345971 1244
3.75999998301268 1126
3.77999998256564 1205
3.79999998211861 1220
3.81999998167157 1186
3.83999998122454 1154
3.8599999807775 1181
3.87999998033047 1192
3.89999997988343 1165
3.9199999794364 1146
3.93999997898936 1179
3.95999997854233 1183
3.97999997809529 1165
3.99999997764826 1104
4.01999997720122 1146
4.03999997675419 1094
4.05999997630715 1138
4.07999997586012 1112
4.09999997541308 1089
4.11999997496605 1074
4.13999997451901 1133
4.15999997407198 1084
4.17999997362494 1072
4.19999997317791 1056
4.21999997273087 1069
4.23999997228384 1097
4.25999997183681 1036
4.27999997138977 1076
4.29999997094274 1116
4.3199999704957 1084
4.33999997004867 989
4.35999996960163 1072
4.3799999691546 1036
4.39999996870756 1101
4.41999996826053 1029
4.43999996781349 1089
4.45999996736646 1047
4.47999996691942 1027
4.49999996647239 1017
4.51999996602535 1042
4.53999996557832 1010
4.55999996513128 1052
4.57999996468425 1015
4.59999996423721 976
4.61999996379018 992
4.63999996334314 999
4.65999996289611 1030
4.67999996244907 1014
4.69999996200204 1028
4.719999961555 996
4.73999996110797 999
4.75999996066093 985
4.7799999602139 1009
4.79999995976686 951
4.81999995931983 1032
4.83999995887279 1014
4.85999995842576 965
4.87999995797873 1021
4.89999995753169 1044
4.91999995708466 1013
4.93999995663762 1036
4.95999995619059 999
4.97999995574355 956
4.99999995529652 964
5.01999995484948 1018
5.03999995440245 965
5.05999995395541 961
5.07999995350838 987
5.09999995306134 957
5.11999995261431 960
5.13999995216727 971
5.15999995172024 956
5.1799999512732 966
5.19999995082617 962
5.21999995037913 945
5.2399999499321 977
5.25999994948506 974
5.27999994903803 991
5.29999994859099 1039
5.31999994814396 944
5.33999994769692 997
5.35999994724989 981
5.37999994680285 929
5.39999994635582 988
5.41999994590878 980
5.43999994546175 936
5.45999994501471 960
5.47999994456768 959
5.49999994412065 982
5.51999994367361 949
5.53999994322658 985
5.55999994277954 965
5.57999994233251 960
5.59999994188547 952
5.61999994143844 978
5.6399999409914 966
5.65999994054437 1024
5.67999994009733 998
5.6999999396503 1015
5.71999993920326 976
5.73999993875623 1026
5.75999993830919 898
5.77999993786216 975
5.79999993741512 1047
5.81999993696809 1005
5.83999993652105 1006
5.85999993607402 981
5.87999993562698 983
5.89999993517995 982
5.91999993473291 999
5.93999993428588 995
5.95999993383884 1050
5.97999993339181 985
5.99999993294477 984
6.01999993249774 1010
6.0399999320507 975
6.05999993160367 965
6.07999993115663 1047
6.0999999307096 988
6.11999993026257 1013
6.13999992981553 978
6.1599999293685 977
6.17999992892146 965
6.19999992847443 974
6.21999992802739 953
6.23999992758036 972
6.25999992713332 983
6.27999992668629 1014
6.29999992623925 982
6.31999992579222 999
6.33999992534518 954
6.35999992489815 998
6.37999992445111 928
6.39999992400408 1012
6.41999992355704 984
6.43999992311001 995
6.45999992266297 1012
6.47999992221594 963
6.4999999217689 1017
6.51999992132187 1002
6.53999992087483 992
6.5599999204278 1020
6.57999991998076 1004
6.59999991953373 976
6.61999991908669 1005
6.63999991863966 995
6.65999991819262 1014
6.67999991774559 1093
6.69999991729855 1023
6.71999991685152 1001
6.73999991640449 1018
6.75999991595745 957
6.77999991551042 1029
6.79999991506338 989
6.81999991461635 997
6.83999991416931 986
6.85999991372228 1095
6.87999991327524 1029
6.89999991282821 1078
6.91999991238117 973
6.93999991193414 987
6.9599999114871 1044
6.97999991104007 1050
6.99999991059303 1029
7.019999910146 985
7.03999990969896 1016
7.05999990925193 1042
7.07999990880489 1029
7.09999990835786 968
7.11999990791082 998
7.13999990746379 1031
7.15999990701675 981
7.17999990656972 1093
7.19999990612268 1021
7.21999990567565 981
7.23999990522861 1036
7.25999990478158 1072
7.27999990433454 1049
7.29999990388751 1053
7.31999990344047 1016
7.33999990299344 993
7.35999990254641 1002
7.37999990209937 1068
7.39999990165234 1033
7.4199999012053 1072
7.43999990075827 1025
7.45999990031123 1071
7.4799998998642 986
7.49999989941716 1080
7.51999989897013 1068
7.53999989852309 1064
7.55999989807606 1008
7.57999989762902 1012
7.59999989718199 1019
7.61999989673495 1013
7.63999989628792 1034
7.65999989584088 1023
7.67999989539385 1051
7.69999989494681 996
7.71999989449978 1038
7.73999989405274 1110
7.75999989360571 1119
7.77999989315867 1045
7.79999989271164 1061
7.8199998922646 1031
7.83999989181757 1018
7.85999989137053 1058
7.8799998909235 1000
7.89999989047646 1063
7.91999989002943 998
7.9399998895824 1079
7.95999988913536 1044
7.97999988868833 1032
7.99999988824129 1018
8.01999988779426 1023
8.03999988734722 979
8.05999988690019 1016
8.07999988645315 988
8.09999988600612 1069
8.11999988555908 1064
8.13999988511205 1062
8.15999988466501 1051
8.17999988421798 1058
8.19999988377094 1048
8.21999988332391 1065
8.23999988287687 1049
8.25999988242984 1057
8.2799998819828 1038
8.29999988153577 1023
8.31999988108873 1035
8.3399998806417 1054
8.35999988019466 1030
8.37999987974763 1059
8.39999987930059 1025
8.41999987885356 1038
8.43999987840652 1052
8.45999987795949 1031
8.47999987751245 1028
8.49999987706542 1054
8.51999987661839 1084
8.53999987617135 1093
8.55999987572432 1029
8.57999987527728 1027
8.59999987483025 1129
8.61999987438321 1071
8.63999987393618 1096
8.65999987348914 1045
8.67999987304211 1050
8.69999987259507 1056
8.71999987214804 1058
8.739999871701 1066
8.75999987125397 1057
8.77999987080693 1073
8.7999998703599 1022
8.81999986991286 1053
8.83999986946583 1067
8.85999986901879 1106
8.87999986857176 1109
8.89999986812472 1095
8.91999986767769 1041
8.93999986723065 1096
8.95999986678362 1056
8.97999986633658 1026
8.99999986588955 1018
9.01999986544251 1080
9.03999986499548 1072
9.05999986454844 1096
9.07999986410141 1059
9.09999986365438 1055
9.11999986320734 1100
9.13999986276031 1072
9.15999986231327 1064
9.17999986186624 1058
9.1999998614192 1088
9.21999986097217 1074
9.23999986052513 1103
9.2599998600781 1186
9.27999985963106 1072
9.29999985918403 1107
9.31999985873699 1064
9.33999985828996 1082
9.35999985784292 1110
9.37999985739589 1035
9.39999985694885 1074
9.41999985650182 1080
9.43999985605478 1121
9.45999985560775 1143
9.47999985516071 1068
9.49999985471368 1076
9.51999985426664 1153
9.53999985381961 1077
9.55999985337257 1066
9.57999985292554 1098
9.5999998524785 1145
9.61999985203147 1083
9.63999985158443 1104
9.6599998511374 1140
9.67999985069037 1104
9.69999985024333 1055
9.7199998497963 1069
9.73999984934926 1053
9.75999984890223 1074
9.77999984845519 1100
9.79999984800816 1096
9.81999984756112 1124
9.83999984711409 1044
9.85999984666705 1146
9.87999984622002 1110
9.89999984577298 1137
9.91999984532595 1057
9.93999984487891 1070
9.95999984443188 1122
9.97999984398484 1142
9.99999984353781 1152
10.0199998430908 1115
10.0399998426437 1091
10.0599998421967 1066
10.0799998417497 1115
10.0999998413026 1121
10.1199998408556 1110
10.1399998404086 1138
10.1599998399615 1170
10.1799998395145 1088
10.1999998390675 1121
10.2199998386204 1088
10.2399998381734 1151
10.2599998377264 1078
10.2799998372793 1083
10.2999998368323 1106
10.3199998363853 1107
10.3399998359382 1096
10.3599998354912 1144
10.3799998350441 1111
10.3999998345971 1059
10.4199998341501 1043
10.439999833703 1119
10.459999833256 1110
10.479999832809 1103
10.4999998323619 1145
10.5199998319149 1110
10.5399998314679 1125
10.5599998310208 1136
10.5799998305738 1101
10.5999998301268 1164
10.6199998296797 1136
10.6399998292327 1117
10.6599998287857 1090
10.6799998283386 1107
10.6999998278916 1124
10.7199998274446 1094
10.7399998269975 1126
10.7599998265505 1116
10.7799998261034 1169
10.7999998256564 1117
10.8199998252094 1125
10.8399998247623 1098
10.8599998243153 1111
10.8799998238683 1166
10.8999998234212 1136
10.9199998229742 1142
10.9399998225272 1161
10.9599998220801 1037
10.9799998216331 1102
10.9999998211861 1167
11.019999820739 1151
11.039999820292 1106
11.059999819845 1073
11.0799998193979 1145
11.0999998189509 1157
11.1199998185039 1150
11.1399998180568 1134
11.1599998176098 1130
11.1799998171628 1105
11.1999998167157 1112
11.2199998162687 1051
11.2399998158216 1160
11.2599998153746 1149
11.2799998149276 1093
11.2999998144805 1119
11.3199998140335 1111
11.3399998135865 1101
11.3599998131394 1151
11.3799998126924 1087
11.3999998122454 1102
11.4199998117983 1246
11.4399998113513 1129
11.4599998109043 1114
11.4799998104572 1122
11.4999998100102 1105
11.5199998095632 1160
11.5399998091161 1177
11.5599998086691 1144
11.5799998082221 1157
11.599999807775 1153
11.619999807328 1163
11.639999806881 1099
11.6599998064339 1097
11.6799998059869 1159
11.6999998055398 1151
11.7199998050928 1144
11.7399998046458 1120
11.7599998041987 1137
11.7799998037517 1165
11.7999998033047 1161
11.8199998028576 1155
11.8399998024106 1176
11.8599998019636 1157
11.8799998015165 1176
11.8999998010695 1122
11.9199998006225 1175
11.9399998001754 1153
11.9599997997284 1104
11.9799997992814 1128
11.9999997988343 1174
12.0199997983873 1146
12.0399997979403 1169
12.0599997974932 1109
12.0799997970462 1135
12.0999997965992 1160
12.1199997961521 1136
12.1399997957051 1164
12.159999795258 1149
12.179999794811 1161
12.199999794364 1147
12.2199997939169 1115
12.2399997934699 1182
12.2599997930229 1145
12.2799997925758 1178
12.2999997921288 1192
12.3199997916818 1114
12.3399997912347 1134
12.3599997907877 1163
12.3799997903407 1136
12.3999997898936 1178
12.4199997894466 1196
12.4399997889996 1192
12.4599997885525 1195
12.4799997881055 1137
12.4999997876585 1156
12.5199997872114 1099
12.5399997867644 1113
12.5599997863173 1164
12.5799997858703 1195
12.5999997854233 1173
12.6199997849762 1206
12.6399997845292 1164
12.6599997840822 1204
12.6799997836351 1104
12.6999997831881 1139
12.7199997827411 1165
12.739999782294 1176
12.759999781847 1211
12.7799997814 1207
12.7999997809529 1187
12.8199997805059 1142
12.8399997800589 1207
12.8599997796118 1175
12.8799997791648 1186
12.8999997787178 1231
12.9199997782707 1251
12.9399997778237 1175
12.9599997773767 1197
12.9799997769296 1206
12.9999997764826 1121
13.0199997760355 1208
13.0399997755885 1178
13.0599997751415 1174
13.0799997746944 1160
13.0999997742474 1219
13.1199997738004 1127
13.1399997733533 1180
13.1599997729063 1228
13.1799997724593 1250
13.1999997720122 1221
13.2199997715652 1278
13.2399997711182 1302
13.2599997706711 1252
13.2799997702241 1225
13.2999997697771 1223
13.31999976933 1271
13.339999768883 1247
13.359999768436 1194
13.3799997679889 1256
13.3999997675419 1217
13.4199997670949 1225
13.4399997666478 1202
13.4599997662008 1186
13.4799997657537 1254
13.4999997653067 1222
13.5199997648597 1235
13.5399997644126 1267
13.5599997639656 1247
13.5799997635186 1234
13.5999997630715 1221
13.6199997626245 1168
13.6399997621775 1215
13.6599997617304 1230
13.6799997612834 1248
13.6999997608364 1236
13.7199997603893 1208
13.7399997599423 1219
13.7599997594953 1181
13.7799997590482 1184
13.7999997586012 1230
13.8199997581542 1247
13.8399997577071 1259
13.8599997572601 1216
13.879999756813 1315
13.899999756366 1227
13.919999755919 1256
13.9399997554719 1286
13.9599997550249 1247
13.9799997545779 1282
13.9999997541308 1221
14.0199997536838 1225
14.0399997532368 1285
14.0599997527897 1321
14.0799997523427 1250
14.0999997518957 1294
14.1199997514486 1297
14.1399997510016 1265
14.1599997505546 1301
14.1799997501075 1280
14.1999997496605 1319
14.2199997492135 1293
14.2399997487664 1278
14.2599997483194 1364
14.2799997478724 1295
14.2999997474253 1259
14.3199997469783 1232
14.3399997465312 1256
14.3599997460842 1353
14.3799997456372 1307
14.3999997451901 1284
14.4199997447431 1372
14.4399997442961 1288
14.459999743849 1331
14.479999743402 1342
14.499999742955 1279
14.5199997425079 1314
14.5399997420609 1369
14.5599997416139 1298
14.5799997411668 1358
14.5999997407198 1381
14.6199997402728 1314
14.6399997398257 1353
14.6599997393787 1326
14.6799997389317 1315
14.6999997384846 1361
14.7199997380376 1351
14.7399997375906 1360
14.7599997371435 1375
14.7799997366965 1405
14.7999997362494 1340
14.8199997358024 1329
14.8399997353554 1357
14.8599997349083 1433
14.8799997344613 1337
14.8999997340143 1372
14.9199997335672 1397
14.9399997331202 1325
14.9599997326732 1367
14.9799997322261 1453
14.9999997317791 1288
15.0199997313321 1388
15.039999730885 1377
15.059999730438 1355
15.079999729991 1416
15.0999997295439 1429
15.1199997290969 1399
15.1399997286499 1467
15.1599997282028 1382
15.1799997277558 1373
15.1999997273088 1443
15.2199997268617 1419
15.2399997264147 1396
15.2599997259676 1384
15.2799997255206 1413
15.2999997250736 1380
15.3199997246265 1395
15.3399997241795 1412
15.3599997237325 1448
15.3799997232854 1454
15.3999997228384 1433
15.4199997223914 1377
15.4399997219443 1464
15.4599997214973 1489
15.4799997210503 1461
15.4999997206032 1530
15.5199997201562 1440
15.5399997197092 1404
15.5599997192621 1415
15.5799997188151 1472
15.5999997183681 1472
15.619999717921 1536
15.639999717474 1527
15.659999717027 1477
15.6799997165799 1487
15.6999997161329 1498
15.7199997156858 1463
15.7399997152388 1485
15.7599997147918 1544
15.7799997143447 1464
15.7999997138977 1496
15.8199997134507 1482
15.8399997130036 1545
15.8599997125566 1494
15.8799997121096 1499
15.8999997116625 1487
15.9199997112155 1546
15.9399997107685 1500
15.9599997103214 1503
15.9799997098744 1498
15.9999997094274 1600
16.0199997089803 1509
16.0399997085333 1546
16.0599997080863 1589
16.0799997076392 1545
16.0999997071922 1508
16.1199997067451 1532
16.1399997062981 1468
16.1599997058511 1498
16.179999705404 1515
16.199999704957 1533
16.21999970451 1588
16.2399997040629 1559
16.2599997036159 1635
16.2799997031689 1614
16.2999997027218 1595
16.3199997022748 1760
16.3399997018278 1526
16.3599997013807 1598
16.3799997009337 1663
16.3999997004867 1548
16.4199997000396 1678
16.4399996995926 1607
16.4599996991456 1736
16.4799996986985 1684
16.4999996982515 1618
16.5199996978045 1644
16.5399996973574 1724
16.5599996969104 1696
16.5799996964633 1743
16.5999996960163 1771
16.6199996955693 1768
16.6399996951222 1736
16.6599996946752 1758
16.6799996942282 1740
16.6999996937811 1830
16.7199996933341 1867
16.7399996928871 1922
16.75999969244 2007
16.779999691993 1970
16.799999691546 2071
16.8199996910989 2141
16.8399996906519 2238
16.8599996902049 2442
16.8799996897578 2737
16.8999996893108 2858
16.9199996888638 3279
16.9399996884167 3883
16.9599996879697 3826
16.9799996875226 3799
16.9999996870756 3970
17.0199996866286 3967
17.0399996861815 3885
17.0599996857345 3437
17.0799996852875 2958
17.0999996848404 2533
17.1199996843934 2099
17.1399996839464 1999
17.1599996834993 1874
17.1799996830523 1851
17.1999996826053 1818
17.2199996821582 1843
17.2399996817112 1832
17.2599996812642 1890
17.2799996808171 1831
17.2999996803701 1840
17.3199996799231 1825
17.339999679476 1861
17.359999679029 1843
17.379999678582 1911
17.3999996781349 1852
17.4199996776879 1861
17.4399996772408 1878
17.4599996767938 1893
17.4799996763468 1923
17.4999996758997 1822
17.5199996754527 1924
17.5399996750057 1899
17.5599996745586 1880
17.5799996741116 1919
17.5999996736646 1951
17.6199996732175 1978
17.6399996727705 1893
17.6599996723235 1929
17.6799996718764 1937
17.6999996714294 1912
17.7199996709824 1990
17.7399996705353 1945
17.7599996700883 2006
17.7799996696413 1982
17.7999996691942 1949
17.8199996687472 1953
17.8399996683002 1984
17.8599996678531 1973
17.8799996674061 1909
17.899999666959 1963
17.919999666512 2035
17.939999666065 1987
17.9599996656179 2030
17.9799996651709 2029
17.9999996647239 2059
18.0199996642768 2070
18.0399996638298 1995
18.0599996633828 2019
18.0799996629357 1956
18.0999996624887 1968
18.1199996620417 2050
18.1399996615946 2060
18.1599996611476 1994
18.1799996607006 2001
18.1999996602535 2058
18.2199996598065 1992
18.2399996593595 2134
18.2599996589124 2079
18.2799996584654 2054
18.2999996580184 2160
18.3199996575713 2112
18.3399996571243 1995
18.3599996566772 2068
18.3799996562302 2053
18.3999996557832 2120
18.4199996553361 2093
18.4399996548891 2138
18.4599996544421 2076
18.479999653995 2160
18.499999653548 2165
18.519999653101 2134
18.5399996526539 2166
18.5599996522069 2203
18.5799996517599 2157
18.5999996513128 2151
18.6199996508658 2131
18.6399996504188 2129
18.6599996499717 2208
18.6799996495247 2134
18.6999996490777 2152
18.7199996486306 2180
18.7399996481836 2193
18.7599996477366 2182
18.7799996472895 2288
18.7999996468425 2275
18.8199996463954 2272
18.8399996459484 2154
18.8599996455014 2253
18.8799996450543 2191
18.8999996446073 2298
18.9199996441603 2222
18.9399996437132 2216
18.9599996432662 2354
18.9799996428192 2218
18.9999996423721 2278
19.0199996419251 2233
19.0399996414781 2239
19.059999641031 2264
19.079999640584 2371
19.099999640137 2284
19.1199996396899 2352
19.1399996392429 2272
19.1599996387959 2304
19.1799996383488 2279
19.1999996379018 2263
19.2199996374547 2287
19.2399996370077 2313
19.2599996365607 2386
19.2799996361136 2301
19.2999996356666 2308
19.3199996352196 2463
19.3399996347725 2377
19.3599996343255 2284
19.3799996338785 2320
19.3999996334314 2446
19.4199996329844 2346
19.4399996325374 2386
19.4599996320903 2438
19.4799996316433 2319
19.4999996311963 2365
19.5199996307492 2415
19.5399996303022 2359
19.5599996298552 2397
19.5799996294081 2456
19.5999996289611 2414
19.6199996285141 2451
19.639999628067 2437
19.65999962762 2378
19.6799996271729 2440
19.6999996267259 2433
19.7199996262789 2446
19.7399996258318 2429
19.7599996253848 2484
19.7799996249378 2421
19.7999996244907 2469
19.8199996240437 2503
19.8399996235967 2475
19.8599996231496 2487
19.8799996227026 2501
19.8999996222556 2546
19.9199996218085 2488
19.9399996213615 2519
19.9599996209145 2414
19.9799996204674 2495
19.9999996200204 2446
