3 1653
3.01999999955297 1470
3.03999999910593 1335
3.0599999986589 1307
3.07999999821186 1225
3.09999999776483 1153
3.11999999731779 1093
3.13999999687076 1102
3.15999999642372 1087
3.17999999597669 1109
3.19999999552965 1066
3.21999999508262 1017
3.23999999463558 985
3.25999999418855 1008
3.27999999374151 952
3.29999999329448 1033
3.31999999284744 1020
3.33999999240041 930
3.35999999195337 959
3.37999999150634 935
3.3999999910593 893
3.41999999061227 954
3.43999999016523 913
3.4599999897182 963
3.47999998927116 905
3.49999998882413 911
3.51999998837709 893
3.53999998793006 902
3.55999998748302 899
3.57999998703599 842
3.59999998658895 834
3.61999998614192 851
3.63999998569489 841
3.65999998524785 863
3.67999998480082 832
3.69999998435378 803
3.71999998390675 828
3.73999998345971 768
3.75999998301268 844
3.77999998256564 806
3.79999998211861 803
3.81999998167157 756
3.83999998122454 772
3.8599999807775 764
3.87999998033047 816
3.89999997988343 767
3.9199999794364 740
3.93999997898936 732
3.95999997854233 765
3.97999997809529 756
3.99999997764826 806
4.01999997720122 723
4.03999997675419 743
4.05999997630715 727
4.07999997586012 719
4.09999997541308 704
4.11999997496605 781
4.13999997451901 658
4.15999997407198 687
4.17999997362494 703
4.19999997317791 722
4.21999997273087 677
4.23999997228384 663
4.25999997183681 684
4.27999997138977 678
4.29999997094274 690
4.3199999704957 700
4.33999997004867 633
4.35999996960163 650
4.3799999691546 635
4.39999996870756 648
4.41999996826053 724
4.43999996781349 647
4.45999996736646 638
4.47999996691942 651
4.49999996647239 599
4.51999996602535 636
4.53999996557832 599
4.55999996513128 582
4.57999996468425 632
4.59999996423721 619
4.61999996379018 626
4.63999996334314 593
4.65999996289611 566
4.67999996244907 588
4.69999996200204 608
4.719999961555 574
4.73999996110797 625
4.75999996066093 595
4.7799999602139 627
4.79999995976686 581
4.81999995931983 601
4.83999995887279 628
4.85999995842576 589
4.87999995797873 541
4.89999995753169 585
4.91999995708466 598
4.93999995663762 591
4.95999995619059 551
4.97999995574355 568
4.99999995529652 545
5.01999995484948 591
5.03999995440245 549
5.05999995395541 571
5.07999995350838 560
5.09999995306134 590
5.11999995261431 596
5.13999995216727 554
5.15999995172024 599
5.1799999512732 565
5.19999995082617 604
5.21999995037913 563
5.2399999499321 612
5.25999994948506 573
5.27999994903803 563
5.29999994859099 576
5.31999994814396 598
5.33999994769692 606
5.35999994724989 618
5.37999994680285 612
5.39999994635582 637
5.41999994590878 631
5.43999994546175 681
5.45999994501471 607
5.47999994456768 623
5.49999994412065 657
5.51999994367361 663
5.53999994322658 680
5.55999994277954 691
5.57999994233251 736
5.59999994188547 662
5.61999994143844 730
5.6399999409914 740
5.65999994054437 741
5.67999994009733 848
5.6999999396503 829
5.71999993920326 870
5.73999993875623 900
5.75999993830919 979
5.77999993786216 1009
5.79999993741512 1059
5.81999993696809 1156
5.83999993652105 1206
5.85999993607402 1253
5.87999993562698 1351
5.89999993517995 1399
5.91999993473291 1559
5.93999993428588 1661
5.95999993383884 1717
5.97999993339181 1936
5.99999993294477 1948
6.01999993249774 2035
6.0399999320507 1638
6.05999993160367 1088
6.07999993115663 742
6.0999999307096 673
6.11999993026257 649
6.13999992981553 620
6.1599999293685 634
6.17999992892146 673
6.19999992847443 613
6.21999992802739 600
6.23999992758036 585
6.25999992713332 628
6.27999992668629 590
6.29999992623925 583
6.31999992579222 569
6.33999992534518 574
6.35999992489815 597
6.37999992445111 557
6.39999992400408 610
6.41999992355704 589
6.43999992311001 594
6.45999992266297 611
6.47999992221594 615
6.4999999217689 612
6.51999992132187 582
6.53999992087483 661
6.5599999204278 673
6.57999991998076 687
6.59999991953373 734
6.61999991908669 753
6.63999991863966 721
6.65999991819262 798
6.67999991774559 787
6.69999991729855 881
6.71999991685152 889
6.73999991640449 885
6.75999991595745 968
6.77999991551042 1032
6.79999991506338 1085
6.81999991461635 1161
6.83999991416931 1248
6.85999991372228 1269
6.87999991327524 1312
6.89999991282821 1307
6.91999991238117 1146
6.93999991193414 873
6.9599999114871 669
6.97999991104007 606
6.99999991059303 589
7.019999910146 569
7.03999990969896 566
7.05999990925193 532
7.07999990880489 545
7.09999990835786 508
7.11999990791082 520
7.13999990746379 528
7.15999990701675 602
7.17999990656972 568
7.19999990612268 548
7.21999990567565 555
7.23999990522861 539
7.25999990478158 533
7.27999990433454 560
7.29999990388751 527
7.31999990344047 559
7.33999990299344 564
7.35999990254641 544
7.37999990209937 579
7.39999990165234 595
7.4199999012053 544
7.43999990075827 536
7.45999990031123 559
7.4799998998642 563
7.49999989941716 571
7.51999989897013 597
7.53999989852309 603
7.55999989807606 572
7.57999989762902 594
7.59999989718199 640
7.61999989673495 635
7.63999989628792 601
7.65999989584088 635
7.67999989539385 619
7.69999989494681 624
7.71999989449978 540
7.73999989405274 553
7.75999989360571 561
7.77999989315867 544
7.79999989271164 540
7.8199998922646 518
7.83999989181757 555
7.85999989137053 567
7.8799998909235 501
7.89999989047646 544
7.91999989002943 507
7.9399998895824 520
7.95999988913536 540
7.97999988868833 536
7.99999988824129 543
8.01999988779426 526
8.03999988734722 578
8.05999988690019 524
8.07999988645315 547
8.09999988600612 531
8.11999988555908 506
8.13999988511205 509
8.15999988466501 474
8.17999988421798 464
8.19999988377094 485
8.21999988332391 539
8.23999988287687 528
8.25999988242984 537
8.2799998819828 556
8.29999988153577 542
8.31999988108873 529
8.3399998806417 533
8.35999988019466 506
8.37999987974763 554
8.39999987930059 524
8.41999987885356 530
8.43999987840652 530
8.45999987795949 560
8.47999987751245 510
8.49999987706542 502
8.51999987661839 525
8.53999987617135 509
8.55999987572432 515
8.57999987527728 512
8.59999987483025 550
8.61999987438321 545
8.63999987393618 520
8.65999987348914 599
8.67999987304211 561
8.69999987259507 578
8.71999987214804 580
8.739999871701 580
8.75999987125397 598
8.77999987080693 553
8.7999998703599 566
8.81999986991286 537
8.83999986946583 554
8.85999986901879 547
8.87999986857176 575
8.89999986812472 550
8.91999986767769 507
8.93999986723065 616
8.95999986678362 524
8.97999986633658 484
8.99999986588955 512
9.01999986544251 558
9.03999986499548 518
9.05999986454844 561
9.07999986410141 554
9.09999986365438 523
9.11999986320734 538
9.13999986276031 531
9.15999986231327 531
9.17999986186624 495
9.1999998614192 497
9.21999986097217 583
9.23999986052513 610
9.2599998600781 556
9.27999985963106 598
9.29999985918403 589
9.31999985873699 635
9.33999985828996 592
9.35999985784292 621
9.37999985739589 692
9.39999985694885 666
9.41999985650182 702
9.43999985605478 694
9.45999985560775 753
9.47999985516071 741
9.49999985471368 814
9.51999985426664 849
9.53999985381961 927
9.55999985337257 955
9.57999985292554 974
9.5999998524785 1051
9.61999985203147 1115
9.63999985158443 1020
9.6599998511374 926
9.67999985069037 677
9.69999985024333 586
9.7199998497963 578
9.73999984934926 514
9.75999984890223 584
9.77999984845519 515
9.79999984800816 567
9.81999984756112 576
9.83999984711409 548
9.85999984666705 555
9.87999984622002 535
9.89999984577298 533
9.91999984532595 526
9.93999984487891 499
9.95999984443188 527
9.97999984398484 553
9.99999984353781 522
10.0199998430908 515
10.0399998426437 530
10.0599998421967 509
10.0799998417497 515
10.0999998413026 503
10.1199998408556 511
10.1399998404086 555
10.1599998399615 511
10.1799998395145 527
10.1999998390675 525
10.2199998386204 519
10.2399998381734 579
10.2599998377264 530
10.2799998372793 500
10.2999998368323 512
10.3199998363853 529
10.3399998359382 550
10.3599998354912 508
10.3799998350441 499
10.3999998345971 499
10.4199998341501 517
10.439999833703 520
10.459999833256 521
10.479999832809 539
10.4999998323619 511
10.5199998319149 518
10.5399998314679 515
10.5599998310208 530
10.5799998305738 553
10.5999998301268 523
10.6199998296797 565
10.6399998292327 516
10.6599998287857 489
10.6799998283386 476
10.6999998278916 574
10.7199998274446 599
10.7399998269975 567
10.7599998265505 527
10.7799998261034 538
10.7999998256564 520
10.8199998252094 528
10.8399998247623 547
10.8599998243153 547
10.8799998238683 545
10.8999998234212 565
10.9199998229742 597
10.9399998225272 597
10.9599998220801 651
10.9799998216331 605
10.9999998211861 679
11.019999820739 699
11.039999820292 708
11.059999819845 735
11.0799998193979 772
11.0999998189509 766
11.1199998185039 826
11.1399998180568 893
11.1599998176098 903
11.1799998171628 1008
11.1999998167157 1072
11.2199998162687 1136
11.2399998158216 1061
11.2599998153746 973
11.2799998149276 758
11.2999998144805 629
11.3199998140335 560
11.3399998135865 545
11.3599998131394 577
11.3799998126924 580
11.3999998122454 556
11.4199998117983 622
11.4399998113513 594
11.4599998109043 563
11.4799998104572 589
11.4999998100102 603
11.5199998095632 611
11.5399998091161 639
11.5599998086691 679
11.5799998082221 634
11.599999807775 642
11.619999807328 705
11.639999806881 734
11.6599998064339 769
11.6799998059869 778
11.6999998055398 790
11.7199998050928 797
11.7399998046458 806
11.7599998041987 688
11.7799998037517 631
11.7999998033047 561
11.8199998028576 523
11.8399998024106 573
11.8599998019636 544
11.8799998015165 532
11.8999998010695 532
11.9199998006225 543
11.9399998001754 561
11.9599997997284 535
11.9799997992814 534
11.9999997988343 537
12.0199997983873 519
12.0399997979403 493
12.0599997974932 566
12.0799997970462 535
12.0999997965992 524
12.1199997961521 566
12.1399997957051 519
12.159999795258 536
12.179999794811 569
12.199999794364 603
12.2199997939169 552
12.2399997934699 535
12.2599997930229 540
12.2799997925758 553
12.2999997921288 556
12.3199997916818 554
12.3399997912347 590
12.3599997907877 570
12.3799997903407 559
12.3999997898936 537
12.4199997894466 550
12.4399997889996 525
12.4599997885525 579
12.4799997881055 533
12.4999997876585 561
12.5199997872114 583
12.5399997867644 594
12.5599997863173 604
12.5799997858703 547
12.5999997854233 540
12.6199997849762 541
12.6399997845292 578
12.6599997840822 506
12.6799997836351 553
12.6999997831881 610
12.7199997827411 579
12.739999782294 570
12.759999781847 552
12.7799997814 544
12.7999997809529 550
12.8199997805059 559
12.8399997800589 528
12.8599997796118 540
12.8799997791648 520
12.8999997787178 563
12.9199997782707 551
12.9399997778237 555
12.9599997773767 543
12.9799997769296 519
12.9999997764826 557
13.0199997760355 588
13.0399997755885 566
13.0599997751415 603
13.0799997746944 573
13.0999997742474 533
13.1199997738004 575
13.1399997733533 542
13.1599997729063 533
13.1799997724593 532
13.1999997720122 579
13.2199997715652 594
13.2399997711182 570
13.2599997706711 600
13.2799997702241 593
13.2999997697771 566
13.31999976933 588
13.339999768883 641
13.359999768436 643
13.3799997679889 622
13.3999997675419 592
13.4199997670949 668
13.4399997666478 621
13.4599997662008 639
13.4799997657537 692
13.4999997653067 649
13.5199997648597 688
13.5399997644126 626
13.5599997639656 600
13.5799997635186 614
13.5999997630715 596
13.6199997626245 601
13.6399997621775 535
13.6599997617304 556
13.6799997612834 574
13.6999997608364 553
13.7199997603893 620
13.7399997599423 596
13.7599997594953 638
13.7799997590482 569
13.7999997586012 576
13.8199997581542 559
13.8399997577071 580
13.8599997572601 639
13.879999756813 607
13.899999756366 615
13.919999755919 591
13.9399997554719 614
13.9599997550249 597
13.9799997545779 550
13.9999997541308 586
14.0199997536838 582
14.0399997532368 557
14.0599997527897 611
14.0799997523427 605
14.0999997518957 608
14.1199997514486 615
14.1399997510016 618
14.1599997505546 620
14.1799997501075 606
14.1999997496605 617
14.2199997492135 597
14.2399997487664 600
14.2599997483194 566
14.2799997478724 574
14.2999997474253 644
14.3199997469783 617
14.3399997465312 605
14.3599997460842 594
14.3799997456372 624
14.3999997451901 641
14.4199997447431 623
14.4399997442961 612
14.459999743849 638
14.479999743402 676
14.499999742955 648
14.5199997425079 608
14.5399997420609 656
14.5599997416139 644
14.5799997411668 655
14.5999997407198 644
14.6199997402728 717
14.6399997398257 721
14.6599997393787 673
14.6799997389317 675
14.6999997384846 692
14.7199997380376 695
14.7399997375906 666
14.7599997371435 606
14.7799997366965 643
14.7999997362494 630
14.8199997358024 670
14.8399997353554 633
14.8599997349083 629
14.8799997344613 661
14.8999997340143 689
14.9199997335672 704
14.9399997331202 654
14.9599997326732 660
14.9799997322261 646
14.9999997317791 697
15.0199997313321 703
15.039999730885 702
15.059999730438 687
15.079999729991 694
15.0999997295439 659
15.1199997290969 681
15.1399997286499 634
15.1599997282028 646
15.1799997277558 640
15.1999997273088 668
15.2199997268617 671
15.2399997264147 625
15.2599997259676 648
15.2799997255206 693
15.2999997250736 695
15.3199997246265 690
15.3399997241795 661
15.3599997237325 652
15.3799997232854 684
15.3999997228384 660
15.4199997223914 702
15.4399997219443 637
15.4599997214973 651
15.4799997210503 664
15.4999997206032 647
15.5199997201562 663
15.5399997197092 667
15.5599997192621 704
15.5799997188151 712
15.5999997183681 681
15.619999717921 685
15.639999717474 645
15.659999717027 652
15.6799997165799 709
15.6999997161329 726
15.7199997156858 676
15.7399997152388 725
15.7599997147918 697
15.7799997143447 697
15.7999997138977 695
15.8199997134507 687
15.8399997130036 722
15.8599997125566 706
15.8799997121096 734
15.8999997116625 763
15.9199997112155 704
15.9399997107685 753
15.9599997103214 728
15.9799997098744 725
15.9999997094274 691
16.0199997089803 679
16.0399997085333 691
16.0599997080863 740
16.0799997076392 699
16.0999997071922 728
16.1199997067451 751
16.1399997062981 704
16.1599997058511 707
16.179999705404 731
16.199999704957 721
16.21999970451 734
16.2399997040629 774
16.2599997036159 759
16.2799997031689 740
16.2999997027218 716
16.3199997022748 698
16.3399997018278 776
16.3599997013807 791
16.3799997009337 764
16.3999997004867 760
16.4199997000396 770
16.4399996995926 759
16.4599996991456 850
16.4799996986985 738
16.4999996982515 770
16.5199996978045 753
16.5399996973574 781
16.5599996969104 763
16.5799996964633 810
16.5999996960163 812
16.6199996955693 772
16.6399996951222 812
16.6599996946752 833
16.6799996942282 798
16.6999996937811 820
16.7199996933341 851
16.7399996928871 807
16.75999969244 831
16.779999691993 818
16.799999691546 854
16.8199996910989 857
16.8399996906519 866
16.8599996902049 831
16.8799996897578 771
16.8999996893108 815
16.9199996888638 832
16.9399996884167 824
16.9599996879697 889
16.9799996875226 864
16.9999996870756 844
17.0199996866286 890
17.0399996861815 866
17.0599996857345 827
17.0799996852875 817
17.0999996848404 846
17.1199996843934 831
17.1399996839464 915
17.1599996834993 913
17.1799996830523 826
17.1999996826053 879
17.2199996821582 827
17.2399996817112 904
17.2599996812642 865
17.2799996808171 868
17.2999996803701 863
17.3199996799231 950
17.339999679476 968
17.359999679029 925
17.379999678582 963
17.3999996781349 961
17.4199996776879 981
17.4399996772408 1067
17.4599996767938 969
17.4799996763468 984
17.4999996758997 935
17.5199996754527 925
17.5399996750057 962
17.5599996745586 932
17.5799996741116 876
17.5999996736646 957
17.6199996732175 901
17.6399996727705 920
17.6599996723235 951
17.6799996718764 907
17.6999996714294 919
17.7199996709824 944
17.7399996705353 975
17.7599996700883 930
17.7799996696413 945
17.7999996691942 959
17.8199996687472 986
17.8399996683002 990
17.8599996678531 1001
17.8799996674061 987
17.899999666959 953
17.919999666512 977
17.939999666065 995
17.9599996656179 988
17.9799996651709 970
17.9999996647239 975
18.0199996642768 972
18.0399996638298 943
18.0599996633828 1000
18.0799996629357 1049
18.0999996624887 1023
18.1199996620417 1004
18.1399996615946 1025
18.1599996611476 999
18.1799996607006 973
18.1999996602535 959
18.2199996598065 1025
18.2399996593595 1018
18.2599996589124 1079
18.2799996584654 1052
18.2999996580184 1026
18.3199996575713 1032
18.3399996571243 1026
18.3599996566772 1079
18.3799996562302 1033
18.3999996557832 1041
18.4199996553361 994
18.4399996548891 1073
18.4599996544421 1047
18.479999653995 1102
18.499999653548 1037
18.519999653101 1127
18.5399996526539 1049
18.5599996522069 1086
18.5799996517599 1060
18.5999996513128 1074
18.6199996508658 1104
18.6399996504188 1041
18.6599996499717 1080
18.6799996495247 1063
18.6999996490777 1078
18.7199996486306 1115
18.7399996481836 1066
18.7599996477366 1086
18.7799996472895 1130
18.7999996468425 1127
18.8199996463954 1158
18.8399996459484 1182
18.8599996455014 1091
18.8799996450543 1127
18.8999996446073 1137
18.9199996441603 1147
18.9399996437132 1142
18.9599996432662 1074
18.9799996428192 1189
18.9999996423721 1139
19.0199996419251 1127
19.0399996414781 1151
19.059999641031 1140
19.079999640584 1183
19.099999640137 1113
19.1199996396899 1158
19.1399996392429 1153
19.1599996387959 1206
19.1799996383488 1160
19.1999996379018 1184
19.2199996374547 1127
19.2399996370077 1133
19.2599996365607 1224
19.2799996361136 1241
19.2999996356666 1218
19.3199996352196 1198
19.3399996347725 1185
19.3599996343255 1188
19.3799996338785 1270
19.3999996334314 1228
19.4199996329844 1226
19.4399996325374 1202
19.4599996320903 1292
19.4799996316433 1259
19.4999996311963 1219
19.5199996307492 1195
19.5399996303022 1281
19.5599996298552 1257
19.5799996294081 1187
19.5999996289611 1292
19.6199996285141 1285
19.639999628067 1299
19.65999962762 1372
19.6799996271729 1379
19.6999996267259 1367
19.7199996262789 1359
19.7399996258318 1420
19.7599996253848 1446
19.7799996249378 1518
19.7999996244907 1507
19.8199996240437 1601
19.8399996235967 1697
19.8599996231496 1677
19.8799996227026 1605
19.8999996222556 1568
19.9199996218085 1479
19.9399996213615 1427
19.9599996209145 1447
19.9799996204674 1473
19.9999996200204 1560
