3 2007
3.01999999955297 1919
3.03999999910593 1744
3.0599999986589 1618
3.07999999821186 1587
3.09999999776483 1477
3.11999999731779 1444
3.13999999687076 1374
3.15999999642372 1347
3.17999999597669 1389
3.19999999552965 1363
3.21999999508262 1325
3.23999999463558 1352
3.25999999418855 1316
3.27999999374151 1311
3.29999999329448 1319
3.31999999284744 1376
3.33999999240041 1308
3.35999999195337 1261
3.37999999150634 1301
3.3999999910593 1281
3.41999999061227 1249
3.43999999016523 1232
3.4599999897182 1239
3.47999998927116 1229
3.49999998882413 1217
3.51999998837709 1179
3.53999998793006 1164
3.55999998748302 1195
3.57999998703599 1189
3.59999998658895 1140
3.61999998614192 1132
3.63999998569489 1088
3.65999998524785 1080
3.67999998480082 1104
3.69999998435378 1083
3.71999998390675 1098
3.73999998345971 1083
3.75999998301268 1030
3.77999998256564 1068
3.79999998211861 1063
3.81999998167157 1048
3.83999998122454 1047
3.8599999807775 985
3.87999998033047 981
3.89999997988343 1029
3.9199999794364 1017
3.93999997898936 950
3.95999997854233 982
3.97999997809529 994
3.99999997764826 1032
4.01999997720122 945
4.03999997675419 958
4.05999997630715 947
4.07999997586012 985
4.09999997541308 960
4.11999997496605 868
4.13999997451901 956
4.15999997407198 882
4.17999997362494 895
4.19999997317791 890
4.21999997273087 942
4.23999997228384 901
4.25999997183681 923
4.27999997138977 914
4.29999997094274 925
4.3199999704957 891
4.33999997004867 884
4.35999996960163 890
4.3799999691546 846
4.39999996870756 883
4.41999996826053 898
4.43999996781349 846
4.45999996736646 886
4.47999996691942 832
4.49999996647239 852
4.51999996602535 852
4.53999996557832 880
4.55999996513128 823
4.57999996468425 818
4.59999996423721 864
4.61999996379018 861
4.63999996334314 798
4.65999996289611 835
4.67999996244907 848
4.69999996200204 866
4.719999961555 804
4.73999996110797 809
4.75999996066093 818
4.7799999602139 894
4.79999995976686 798
4.81999995931983 808
4.83999995887279 802
4.85999995842576 809
4.87999995797873 829
4.89999995753169 761
4.91999995708466 791
4.93999995663762 775
4.95999995619059 804
4.97999995574355 776
4.99999995529652 790
5.01999995484948 772
5.03999995440245 809
5.05999995395541 779
5.07999995350838 809
5.09999995306134 831
5.11999995261431 778
5.13999995216727 761
5.15999995172024 800
5.1799999512732 783
5.19999995082617 755
5.21999995037913 775
5.2399999499321 779
5.25999994948506 786
5.27999994903803 761
5.29999994859099 830
5.31999994814396 826
5.33999994769692 768
5.35999994724989 767
5.37999994680285 803
5.39999994635582 782
5.41999994590878 774
5.43999994546175 798
5.45999994501471 798
5.47999994456768 803
5.49999994412065 826
5.51999994367361 803
5.53999994322658 772
5.55999994277954 801
5.57999994233251 779
5.59999994188547 812
5.61999994143844 807
5.6399999409914 739
5.65999994054437 733
5.67999994009733 741
5.6999999396503 805
5.71999993920326 761
5.73999993875623 780
5.75999993830919 712
5.77999993786216 799
5.79999993741512 745
5.81999993696809 733
5.83999993652105 743
5.85999993607402 789
5.87999993562698 813
5.89999993517995 731
5.91999993473291 833
5.93999993428588 786
5.95999993383884 803
5.97999993339181 778
5.99999993294477 748
6.01999993249774 816
6.0399999320507 791
6.05999993160367 820
6.07999993115663 838
6.0999999307096 846
6.11999993026257 774
6.13999992981553 769
6.1599999293685 779
6.17999992892146 815
6.19999992847443 777
6.21999992802739 772
6.23999992758036 751
6.25999992713332 809
6.27999992668629 771
6.29999992623925 809
6.31999992579222 782
6.33999992534518 809
6.35999992489815 760
6.37999992445111 838
6.39999992400408 847
6.41999992355704 840
6.43999992311001 837
6.45999992266297 806
6.47999992221594 824
6.4999999217689 809
6.51999992132187 757
6.53999992087483 802
6.5599999204278 753
6.57999991998076 781
6.59999991953373 811
6.61999991908669 808
6.63999991863966 765
6.65999991819262 853
6.67999991774559 808
6.69999991729855 825
6.71999991685152 758
6.73999991640449 781
6.75999991595745 821
6.77999991551042 764
6.79999991506338 774
6.81999991461635 761
6.83999991416931 813
6.85999991372228 850
6.87999991327524 783
6.89999991282821 849
6.91999991238117 836
6.93999991193414 864
6.9599999114871 808
6.97999991104007 794
6.99999991059303 798
7.019999910146 839
7.03999990969896 831
7.05999990925193 819
7.07999990880489 772
7.09999990835786 778
7.11999990791082 812
7.13999990746379 794
7.15999990701675 822
7.17999990656972 836
7.19999990612268 789
7.21999990567565 845
7.23999990522861 858
7.25999990478158 802
7.27999990433454 845
7.29999990388751 792
7.31999990344047 837
7.33999990299344 830
7.35999990254641 820
7.37999990209937 838
7.39999990165234 868
7.4199999012053 796
7.43999990075827 860
7.45999990031123 826
7.4799998998642 845
7.49999989941716 831
7.51999989897013 878
7.53999989852309 819
7.55999989807606 814
7.57999989762902 845
7.59999989718199 860
7.61999989673495 793
7.63999989628792 845
7.65999989584088 771
7.67999989539385 803
7.69999989494681 839
7.71999989449978 794
7.73999989405274 814
7.75999989360571 803
7.77999989315867 814
7.79999989271164 827
7.8199998922646 817
7.83999989181757 802
7.85999989137053 812
7.8799998909235 845
7.89999989047646 844
7.91999989002943 810
7.9399998895824 862
7.95999988913536 834
7.97999988868833 807
7.99999988824129 805
8.01999988779426 835
8.03999988734722 876
8.05999988690019 839
8.07999988645315 814
8.09999988600612 873
8.11999988555908 807
8.13999988511205 860
8.15999988466501 865
8.17999988421798 830
8.19999988377094 832
8.21999988332391 839
8.23999988287687 853
8.25999988242984 863
8.2799998819828 819
8.29999988153577 857
8.31999988108873 797
8.3399998806417 875
8.35999988019466 848
8.37999987974763 821
8.39999987930059 906
8.41999987885356 820
8.43999987840652 738
8.45999987795949 823
8.47999987751245 813
8.49999987706542 850
8.51999987661839 837
8.53999987617135 820
8.55999987572432 847
8.57999987527728 808
8.59999987483025 842
8.61999987438321 836
8.63999987393618 833
8.65999987348914 855
8.67999987304211 780
8.69999987259507 813
8.71999987214804 841
8.739999871701 851
8.75999987125397 826
8.77999987080693 807
8.7999998703599 860
8.81999986991286 851
8.83999986946583 833
8.85999986901879 897
8.87999986857176 863
8.89999986812472 834
8.91999986767769 876
8.93999986723065 885
8.95999986678362 836
8.97999986633658 872
8.99999986588955 889
9.01999986544251 882
9.03999986499548 862
9.05999986454844 886
9.07999986410141 857
9.09999986365438 909
9.11999986320734 852
9.13999986276031 846
9.15999986231327 837
9.17999986186624 845
9.1999998614192 889
9.21999986097217 835
9.23999986052513 825
9.2599998600781 854
9.27999985963106 818
9.29999985918403 842
9.31999985873699 819
9.33999985828996 829
9.35999985784292 822
9.37999985739589 890
9.39999985694885 838
9.41999985650182 874
9.43999985605478 854
9.45999985560775 809
9.47999985516071 824
9.49999985471368 853
9.51999985426664 883
9.53999985381961 801
9.55999985337257 816
9.57999985292554 861
9.5999998524785 838
9.61999985203147 876
9.63999985158443 867
9.6599998511374 820
9.67999985069037 834
9.69999985024333 878
9.7199998497963 791
9.73999984934926 856
9.75999984890223 871
9.77999984845519 835
9.79999984800816 846
9.81999984756112 841
9.83999984711409 867
9.85999984666705 814
9.87999984622002 786
9.89999984577298 871
9.91999984532595 895
9.93999984487891 875
9.95999984443188 853
9.97999984398484 801
9.99999984353781 834
10.0199998430908 879
10.0399998426437 827
10.0599998421967 918
10.0799998417497 878
10.0999998413026 873
10.1199998408556 846
10.1399998404086 913
10.1599998399615 885
10.1799998395145 824
10.1999998390675 854
10.2199998386204 828
10.2399998381734 830
10.2599998377264 807
10.2799998372793 821
10.2999998368323 855
10.3199998363853 858
10.3399998359382 879
10.3599998354912 815
10.3799998350441 826
10.3999998345971 865
10.4199998341501 922
10.439999833703 863
10.459999833256 831
10.479999832809 891
10.4999998323619 903
10.5199998319149 889
10.5399998314679 854
10.5599998310208 892
10.5799998305738 781
10.5999998301268 838
10.6199998296797 881
10.6399998292327 860
10.6599998287857 888
10.6799998283386 867
10.6999998278916 914
10.7199998274446 835
10.7399998269975 852
10.7599998265505 875
10.7799998261034 906
10.7999998256564 891
10.8199998252094 910
10.8399998247623 923
10.8599998243153 858
10.8799998238683 879
10.8999998234212 896
10.9199998229742 839
10.9399998225272 889
10.9599998220801 860
10.9799998216331 824
10.9999998211861 887
11.019999820739 855
11.039999820292 927
11.059999819845 846
11.0799998193979 850
11.0999998189509 879
11.1199998185039 900
11.1399998180568 867
11.1599998176098 880
11.1799998171628 889
11.1999998167157 891
11.2199998162687 861
11.2399998158216 899
11.2599998153746 928
11.2799998149276 888
11.2999998144805 888
11.3199998140335 868
11.3399998135865 867
11.3599998131394 889
11.3799998126924 868
11.3999998122454 871
11.4199998117983 845
11.4399998113513 894
11.4599998109043 827
11.4799998104572 849
11.4999998100102 910
11.5199998095632 847
11.5399998091161 913
11.5599998086691 876
11.5799998082221 886
11.599999807775 883
11.619999807328 888
11.639999806881 950
11.6599998064339 918
11.6799998059869 903
11.6999998055398 893
11.7199998050928 880
11.7399998046458 940
11.7599998041987 914
11.7799998037517 943
11.7999998033047 897
11.8199998028576 845
11.8399998024106 932
11.8599998019636 909
11.8799998015165 910
11.8999998010695 870
11.9199998006225 857
11.9399998001754 879
11.9599997997284 852
11.9799997992814 928
11.9999997988343 893
12.0199997983873 935
12.0399997979403 855
12.0599997974932 929
12.0799997970462 1006
12.0999997965992 908
12.1199997961521 890
12.1399997957051 923
12.159999795258 921
12.179999794811 921
12.199999794364 905
12.2199997939169 938
12.2399997934699 914
12.2599997930229 897
12.2799997925758 929
12.2999997921288 953
12.3199997916818 935
12.3399997912347 929
12.3599997907877 894
12.3799997903407 921
12.3999997898936 901
12.4199997894466 942
12.4399997889996 929
12.4599997885525 890
12.4799997881055 916
12.4999997876585 944
12.5199997872114 956
12.5399997867644 959
12.5599997863173 933
12.5799997858703 864
12.5999997854233 902
12.6199997849762 949
12.6399997845292 898
12.6599997840822 936
12.6799997836351 929
12.6999997831881 967
12.7199997827411 876
12.739999782294 901
12.759999781847 925
12.7799997814 957
12.7999997809529 979
12.8199997805059 953
12.8399997800589 953
12.8599997796118 924
12.8799997791648 944
12.8999997787178 970
12.9199997782707 933
12.9399997778237 891
12.9599997773767 914
12.9799997769296 944
12.9999997764826 945
13.0199997760355 884
13.0399997755885 929
13.0599997751415 976
13.0799997746944 922
13.0999997742474 953
13.1199997738004 983
13.1399997733533 1006
13.1599997729063 926
13.1799997724593 955
13.1999997720122 973
13.2199997715652 993
13.2399997711182 1005
13.2599997706711 950
13.2799997702241 956
13.2999997697771 1050
13.31999976933 1071
13.339999768883 976
13.359999768436 1011
13.3799997679889 970
13.3999997675419 1003
13.4199997670949 963
13.4399997666478 998
13.4599997662008 1025
13.4799997657537 1008
13.4999997653067 986
13.5199997648597 1006
13.5399997644126 983
13.5599997639656 958
13.5799997635186 1009
13.5999997630715 1015
13.6199997626245 1021
13.6399997621775 962
13.6599997617304 1053
13.6799997612834 949
13.6999997608364 977
13.7199997603893 964
13.7399997599423 935
13.7599997594953 996
13.7799997590482 992
13.7999997586012 1033
13.8199997581542 981
13.8399997577071 1024
13.8599997572601 1052
13.879999756813 1092
13.899999756366 1013
13.919999755919 1049
13.9399997554719 1028
13.9599997550249 1041
13.9799997545779 1028
13.9999997541308 1083
14.0199997536838 998
14.0399997532368 1007
14.0599997527897 1091
14.0799997523427 1041
14.0999997518957 998
14.1199997514486 1039
14.1399997510016 1033
14.1599997505546 1017
14.1799997501075 1025
14.1999997496605 1014
14.2199997492135 1026
14.2399997487664 1070
14.2599997483194 1049
14.2799997478724 1032
14.2999997474253 1060
14.3199997469783 1081
14.3399997465312 1098
14.3599997460842 1078
14.3799997456372 1085
14.3999997451901 1035
14.4199997447431 1072
14.4399997442961 1072
14.459999743849 1086
14.479999743402 1099
14.499999742955 1092
14.5199997425079 1055
14.5399997420609 1047
14.5599997416139 1131
14.5799997411668 1077
14.5999997407198 1081
14.6199997402728 1056
14.6399997398257 1070
14.6599997393787 1101
14.6799997389317 1120
14.6999997384846 1044
14.7199997380376 1151
14.7399997375906 1088
14.7599997371435 1180
14.7799997366965 1089
14.7999997362494 1179
14.8199997358024 1074
14.8399997353554 1160
14.8599997349083 1104
14.8799997344613 1066
14.8999997340143 1188
14.9199997335672 1151
14.9399997331202 1165
14.9599997326732 1101
14.9799997322261 1132
14.9999997317791 1081
15.0199997313321 1168
15.039999730885 1110
15.059999730438 1176
15.079999729991 1123
15.0999997295439 1122
15.1199997290969 1134
15.1399997286499 1142
15.1599997282028 1134
15.1799997277558 1139
15.1999997273088 1136
15.2199997268617 1179
15.2399997264147 1162
15.2599997259676 1170
15.2799997255206 1174
15.2999997250736 1207
15.3199997246265 1156
15.3399997241795 1166
15.3599997237325 1221
15.3799997232854 1148
15.3999997228384 1222
15.4199997223914 1224
15.4399997219443 1214
15.4599997214973 1162
15.4799997210503 1216
15.4999997206032 1213
15.5199997201562 1233
15.5399997197092 1213
15.5599997192621 1210
15.5799997188151 1172
15.5999997183681 1187
15.619999717921 1243
15.639999717474 1230
15.659999717027 1217
15.6799997165799 1225
15.6999997161329 1277
15.7199997156858 1237
15.7399997152388 1259
15.7599997147918 1214
15.7799997143447 1221
15.7999997138977 1297
15.8199997134507 1256
15.8399997130036 1210
15.8599997125566 1276
15.8799997121096 1239
15.8999997116625 1198
15.9199997112155 1287
15.9399997107685 1337
15.9599997103214 1251
15.9799997098744 1278
15.9999997094274 1306
16.0199997089803 1274
16.0399997085333 1258
16.0599997080863 1290
16.0799997076392 1257
16.0999997071922 1334
16.1199997067451 1298
16.1399997062981 1214
16.1599997058511 1299
16.179999705404 1340
16.199999704957 1299
16.21999970451 1357
16.2399997040629 1333
16.2599997036159 1299
16.2799997031689 1293
16.2999997027218 1330
16.3199997022748 1304
16.3399997018278 1386
16.3599997013807 1293
16.3799997009337 1410
16.3999997004867 1340
16.4199997000396 1338
16.4399996995926 1398
16.4599996991456 1363
16.4799996986985 1357
16.4999996982515 1363
16.5199996978045 1448
16.5399996973574 1352
16.5599996969104 1393
16.5799996964633 1401
16.5999996960163 1376
16.6199996955693 1432
16.6399996951222 1480
16.6599996946752 1462
16.6799996942282 1455
16.6999996937811 1437
16.7199996933341 1539
16.7399996928871 1507
16.75999969244 1583
16.779999691993 1523
16.799999691546 1583
16.8199996910989 1638
16.8399996906519 1690
16.8599996902049 1703
16.8799996897578 1768
16.8999996893108 1853
16.9199996888638 1945
16.9399996884167 2204
16.9599996879697 2270
16.9799996875226 2495
16.9999996870756 2820
17.0199996866286 3182
17.0399996861815 3514
17.0599996857345 3792
17.0799996852875 3922
17.0999996848404 3930
17.1199996843934 3598
17.1399996839464 3081
17.1599996834993 2464
17.1799996830523 1998
17.1999996826053 1839
17.2199996821582 1687
17.2399996817112 1691
17.2599996812642 1614
17.2799996808171 1633
17.2999996803701 1640
17.3199996799231 1673
17.339999679476 1623
17.359999679029 1720
17.379999678582 1687
17.3999996781349 1712
17.4199996776879 1751
17.4399996772408 1746
17.4599996767938 1683
17.4799996763468 1674
17.4999996758997 1638
17.5199996754527 1648
17.5399996750057 1695
17.5599996745586 1727
17.5799996741116 1651
17.5999996736646 1747
17.6199996732175 1719
17.6399996727705 1649
17.6599996723235 1690
17.6799996718764 1694
17.6999996714294 1635
17.7199996709824 1714
17.7399996705353 1762
17.7599996700883 1653
17.7799996696413 1689
17.7999996691942 1670
17.8199996687472 1686
17.8399996683002 1731
17.8599996678531 1809
17.8799996674061 1684
17.899999666959 1723
17.919999666512 1734
17.939999666065 1770
17.9599996656179 1739
17.9799996651709 1813
17.9999996647239 1708
18.0199996642768 1788
18.0399996638298 1779
18.0599996633828 1771
18.0799996629357 1822
18.0999996624887 1883
18.1199996620417 1793
18.1399996615946 1835
18.1599996611476 1852
18.1799996607006 1775
18.1999996602535 1804
18.2199996598065 1785
18.2399996593595 1894
18.2599996589124 1886
18.2799996584654 1888
18.2999996580184 1812
18.3199996575713 1883
18.3399996571243 1925
18.3599996566772 1853
18.3799996562302 1902
18.3999996557832 1867
18.4199996553361 1929
18.4399996548891 1923
18.4599996544421 1981
18.479999653995 1906
18.499999653548 1899
18.519999653101 1931
18.5399996526539 1946
18.5599996522069 1973
18.5799996517599 2015
18.5999996513128 2038
18.6199996508658 1905
18.6399996504188 1983
18.6599996499717 2114
18.6799996495247 2004
18.6999996490777 1976
18.7199996486306 2062
18.7399996481836 2029
18.7599996477366 2066
18.7799996472895 2018
18.7999996468425 1963
18.8199996463954 2064
18.8399996459484 2041
18.8599996455014 2001
18.8799996450543 2121
18.8999996446073 2022
18.9199996441603 2095
18.9399996437132 2128
18.9599996432662 2103
18.9799996428192 2052
18.9999996423721 2113
19.0199996419251 2120
19.0399996414781 2175
19.059999641031 2210
19.079999640584 2167
19.099999640137 2142
19.1199996396899 2115
19.1399996392429 2174
19.1599996387959 2193
19.1799996383488 2177
19.1999996379018 2168
19.2199996374547 2267
19.2399996370077 2200
19.2599996365607 2155
19.2799996361136 2193
19.2999996356666 2217
19.3199996352196 2258
19.3399996347725 2189
19.3599996343255 2245
19.3799996338785 2224
19.3999996334314 2149
19.4199996329844 2261
19.4399996325374 2245
19.4599996320903 2310
19.4799996316433 2244
19.4999996311963 2276
19.5199996307492 2250
19.5399996303022 2265
19.5599996298552 2353
19.5799996294081 2364
19.5999996289611 2296
19.6199996285141 2390
19.639999628067 2255
19.65999962762 2386
19.6799996271729 2378
19.6999996267259 2367
19.7199996262789 2436
19.7399996258318 2396
19.7599996253848 2400
19.7799996249378 2431
19.7999996244907 2447
19.8199996240437 2419
19.8399996235967 2325
19.8599996231496 2366
19.8799996227026 2450
19.8999996222556 2383
19.9199996218085 2402
19.9399996213615 2416
19.9599996209145 2400
19.9799996204674 2474
19.9999996200204 2445
