3 2236
3.01999999955297 2125
3.03999999910593 2050
3.0599999986589 1842
3.07999999821186 1785
3.09999999776483 1745
3.11999999731779 1640
3.13999999687076 1617
3.15999999642372 1609
3.17999999597669 1551
3.19999999552965 1598
3.21999999508262 1538
3.23999999463558 1523
3.25999999418855 1472
3.27999999374151 1540
3.29999999329448 1551
3.31999999284744 1501
3.33999999240041 1503
3.35999999195337 1467
3.37999999150634 1359
3.3999999910593 1441
3.41999999061227 1411
3.43999999016523 1393
3.4599999897182 1435
3.47999998927116 1371
3.49999998882413 1358
3.51999998837709 1381
3.53999998793006 1321
3.55999998748302 1332
3.57999998703599 1264
3.59999998658895 1343
3.61999998614192 1284
3.63999998569489 1231
3.65999998524785 1242
3.67999998480082 1190
3.69999998435378 1229
3.71999998390675 1186
3.73999998345971 1184
3.75999998301268 1156
3.77999998256564 1164
3.79999998211861 1170
3.81999998167157 1168
3.83999998122454 1150
3.8599999807775 1128
3.87999998033047 1192
3.89999997988343 1150
3.9199999794364 1136
3.93999997898936 1093
3.95999997854233 1118
3.97999997809529 1104
3.99999997764826 1175
4.01999997720122 1116
4.03999997675419 1096
4.05999997630715 1064
4.07999997586012 1074
4.09999997541308 1033
4.11999997496605 1034
4.13999997451901 1073
4.15999997407198 1065
4.17999997362494 1044
4.19999997317791 1073
4.21999997273087 999
4.23999997228384 979
4.25999997183681 1024
4.27999997138977 987
4.29999997094274 968
4.3199999704957 990
4.33999997004867 959
4.35999996960163 1008
4.3799999691546 1019
4.39999996870756 993
4.41999996826053 967
4.43999996781349 958
4.45999996736646 934
4.47999996691942 950
4.49999996647239 986
4.51999996602535 994
4.53999996557832 923
4.55999996513128 931
4.57999996468425 946
4.59999996423721 963
4.61999996379018 926
4.63999996334314 1021
4.65999996289611 939
4.67999996244907 935
4.69999996200204 965
4.719999961555 931
4.73999996110797 1018
4.75999996066093 970
4.7799999602139 927
4.79999995976686 898
4.81999995931983 956
4.83999995887279 915
4.85999995842576 987
4.87999995797873 939
4.89999995753169 984
4.91999995708466 1010
4.93999995663762 1025
4.95999995619059 1021
4.97999995574355 1030
4.99999995529652 994
5.01999995484948 1070
5.03999995440245 1093
5.05999995395541 1082
5.07999995350838 1053
5.09999995306134 1122
5.11999995261431 1116
5.13999995216727 1135
5.15999995172024 1165
5.1799999512732 1193
5.19999995082617 1248
5.21999995037913 1264
5.2399999499321 1312
5.25999994948506 1292
5.27999994903803 1282
5.29999994859099 1375
5.31999994814396 1449
5.33999994769692 1464
5.35999994724989 1448
5.37999994680285 1508
5.39999994635582 1598
5.41999994590878 1639
5.43999994546175 1688
5.45999994501471 1851
5.47999994456768 1956
5.49999994412065 2047
5.51999994367361 2104
5.53999994322658 2224
5.55999994277954 2461
5.57999994233251 2615
5.59999994188547 2874
5.61999994143844 2992
5.6399999409914 3343
5.65999994054437 3649
5.67999994009733 3881
5.6999999396503 4614
5.71999993920326 5434
5.73999993875623 6591
5.75999993830919 8124
5.77999993786216 8375
5.79999993741512 6506
5.81999993696809 3532
5.83999993652105 1922
5.85999993607402 1397
5.87999993562698 1216
5.89999993517995 1237
5.91999993473291 1178
5.93999993428588 1189
5.95999993383884 1124
5.97999993339181 1108
5.99999993294477 1114
6.01999993249774 1043
6.0399999320507 1107
6.05999993160367 1103
6.07999993115663 1039
6.0999999307096 1066
6.11999993026257 1066
6.13999992981553 1080
6.1599999293685 1116
6.17999992892146 1170
6.19999992847443 1121
6.21999992802739 1189
6.23999992758036 1201
6.25999992713332 1241
6.27999992668629 1292
6.29999992623925 1289
6.31999992579222 1347
6.33999992534518 1422
6.35999992489815 1483
6.37999992445111 1448
6.39999992400408 1616
6.41999992355704 1692
6.43999992311001 1713
6.45999992266297 1830
6.47999992221594 1997
6.4999999217689 2137
6.51999992132187 2150
6.53999992087483 2361
6.5599999204278 2602
6.57999991998076 2980
6.59999991953373 3411
6.61999991908669 4066
6.63999991863966 4918
6.65999991819262 5212
6.67999991774559 4083
6.69999991729855 2438
6.71999991685152 1519
6.73999991640449 1209
6.75999991595745 1084
6.77999991551042 1036
6.79999991506338 1000
6.81999991461635 1005
6.83999991416931 1001
6.85999991372228 1007
6.87999991327524 920
6.89999991282821 1022
6.91999991238117 961
6.93999991193414 944
6.9599999114871 959
6.97999991104007 970
6.99999991059303 1054
7.019999910146 1043
7.03999990969896 976
7.05999990925193 1004
7.07999990880489 1038
7.09999990835786 1034
7.11999990791082 1010
7.13999990746379 1071
7.15999990701675 1067
7.17999990656972 1058
7.19999990612268 1146
7.21999990567565 1115
7.23999990522861 1253
7.25999990478158 1243
7.27999990433454 1290
7.29999990388751 1342
7.31999990344047 1426
7.33999990299344 1487
7.35999990254641 1662
7.37999990209937 1800
7.39999990165234 1973
7.4199999012053 2323
7.43999990075827 2702
7.45999990031123 2285
7.4799998998642 1848
7.49999989941716 1277
7.51999989897013 1020
7.53999989852309 973
7.55999989807606 970
7.57999989762902 938
7.59999989718199 913
7.61999989673495 894
7.63999989628792 913
7.65999989584088 869
7.67999989539385 909
7.69999989494681 922
7.71999989449978 883
7.73999989405274 903
7.75999989360571 978
7.77999989315867 854
7.79999989271164 898
7.8199998922646 906
7.83999989181757 854
7.85999989137053 908
7.8799998909235 921
7.89999989047646 879
7.91999989002943 958
7.9399998895824 872
7.95999988913536 952
7.97999988868833 891
7.99999988824129 882
8.01999988779426 883
8.03999988734722 928
8.05999988690019 927
8.07999988645315 880
8.09999988600612 876
8.11999988555908 878
8.13999988511205 866
8.15999988466501 920
8.17999988421798 928
8.19999988377094 924
8.21999988332391 962
8.23999988287687 882
8.25999988242984 912
8.2799998819828 911
8.29999988153577 976
8.31999988108873 981
8.3399998806417 1012
8.35999988019466 998
8.37999987974763 1027
8.39999987930059 1050
8.41999987885356 1016
8.43999987840652 1098
8.45999987795949 1141
8.47999987751245 1181
8.49999987706542 1247
8.51999987661839 1326
8.53999987617135 1340
8.55999987572432 1620
8.57999987527728 1593
8.59999987483025 1556
8.61999987438321 1337
8.63999987393618 1078
8.65999987348914 979
8.67999987304211 929
8.69999987259507 860
8.71999987214804 888
8.739999871701 948
8.75999987125397 868
8.77999987080693 955
8.7999998703599 896
8.81999986991286 921
8.83999986946583 920
8.85999986901879 890
8.87999986857176 965
8.89999986812472 993
8.91999986767769 965
8.93999986723065 942
8.95999986678362 945
8.97999986633658 1006
8.99999986588955 1045
9.01999986544251 1025
9.03999986499548 1108
9.05999986454844 1128
9.07999986410141 1112
9.09999986365438 1162
9.11999986320734 1223
9.13999986276031 1253
9.15999986231327 1315
9.17999986186624 1363
9.1999998614192 1395
9.21999986097217 1511
9.23999986052513 1673
9.2599998600781 1763
9.27999985963106 1894
9.29999985918403 2117
9.31999985873699 2515
9.33999985828996 3035
9.35999985784292 3722
9.37999985739589 4026
9.39999985694885 3376
9.41999985650182 2317
9.43999985605478 1508
9.45999985560775 1164
9.47999985516071 979
9.49999985471368 979
9.51999985426664 958
9.53999985381961 899
9.55999985337257 923
9.57999985292554 920
9.5999998524785 937
9.61999985203147 910
9.63999985158443 869
9.6599998511374 982
9.67999985069037 901
9.69999985024333 894
9.7199998497963 891
9.73999984934926 887
9.75999984890223 895
9.77999984845519 844
9.79999984800816 871
9.81999984756112 931
9.83999984711409 917
9.85999984666705 885
9.87999984622002 906
9.89999984577298 962
9.91999984532595 869
9.93999984487891 911
9.95999984443188 895
9.97999984398484 864
9.99999984353781 884
10.0199998430908 889
10.0399998426437 894
10.0599998421967 921
10.0799998417497 891
10.0999998413026 909
10.1199998408556 923
10.1399998404086 897
10.1599998399615 885
10.1799998395145 819
10.1999998390675 904
10.2199998386204 907
10.2399998381734 910
10.2599998377264 885
10.2799998372793 928
10.2999998368323 877
10.3199998363853 933
10.3399998359382 954
10.3599998354912 894
10.3799998350441 929
10.3999998345971 907
10.4199998341501 927
10.439999833703 920
10.459999833256 899
10.479999832809 936
10.4999998323619 928
10.5199998319149 946
10.5399998314679 936
10.5599998310208 971
10.5799998305738 998
10.5999998301268 937
10.6199998296797 992
10.6399998292327 1033
10.6599998287857 1033
10.6799998283386 1026
10.6999998278916 1062
10.7199998274446 1120
10.7399998269975 1113
10.7599998265505 1179
10.7799998261034 1282
10.7999998256564 1311
10.8199998252094 1536
10.8399998247623 1482
10.8599998243153 1591
10.8799998238683 1710
10.8999998234212 1911
10.9199998229742 2166
10.9399998225272 2594
10.9599998220801 3042
10.9799998216331 3606
10.9999998211861 3633
11.019999820739 2937
11.039999820292 2013
11.059999819845 1495
11.0799998193979 1206
11.0999998189509 1039
11.1199998185039 1108
11.1399998180568 1039
11.1599998176098 1005
11.1799998171628 1010
11.1999998167157 1102
11.2199998162687 1046
11.2399998158216 1025
11.2599998153746 1112
11.2799998149276 1116
11.2999998144805 1196
11.3199998140335 1171
11.3399998135865 1208
11.3599998131394 1328
11.3799998126924 1368
11.3999998122454 1461
11.4199998117983 1604
11.4399998113513 1841
11.4599998109043 2207
11.4799998104572 2294
11.4999998100102 2038
11.5199998095632 1580
11.5399998091161 1227
11.5599998086691 1069
11.5799998082221 983
11.599999807775 958
11.619999807328 933
11.639999806881 938
11.6599998064339 951
11.6799998059869 973
11.6999998055398 973
11.7199998050928 938
11.7399998046458 877
11.7599998041987 971
11.7799998037517 939
11.7999998033047 897
11.8199998028576 949
11.8399998024106 1006
11.8599998019636 941
11.8799998015165 967
11.8999998010695 966
11.9199998006225 952
11.9399998001754 1021
11.9599997997284 1000
11.9799997992814 980
11.9999997988343 1027
12.0199997983873 966
12.0399997979403 1039
12.0599997974932 1160
12.0799997970462 1117
12.0999997965992 1175
12.1199997961521 1191
12.1399997957051 1123
12.159999795258 1095
12.179999794811 1017
12.199999794364 944
12.2199997939169 975
12.2399997934699 924
12.2599997930229 957
12.2799997925758 919
12.2999997921288 977
12.3199997916818 924
12.3399997912347 936
12.3599997907877 1004
12.3799997903407 963
12.3999997898936 916
12.4199997894466 979
12.4399997889996 904
12.4599997885525 969
12.4799997881055 907
12.4999997876585 961
12.5199997872114 977
12.5399997867644 978
12.5599997863173 948
12.5799997858703 916
12.5999997854233 964
12.6199997849762 933
12.6399997845292 889
12.6599997840822 939
12.6799997836351 997
12.6999997831881 935
12.7199997827411 1006
12.739999782294 914
12.759999781847 942
12.7799997814 935
12.7999997809529 978
12.8199997805059 953
12.8399997800589 961
12.8599997796118 1006
12.8799997791648 954
12.8999997787178 975
12.9199997782707 1015
12.9399997778237 990
12.9599997773767 945
12.9799997769296 986
12.9999997764826 1025
13.0199997760355 994
13.0399997755885 965
13.0599997751415 1016
13.0799997746944 1076
13.0999997742474 1088
13.1199997738004 1065
13.1399997733533 1134
13.1599997729063 1192
13.1799997724593 1150
13.1999997720122 1289
13.2199997715652 1331
13.2399997711182 1459
13.2599997706711 1403
13.2799997702241 1318
13.2999997697771 1255
13.31999976933 1064
13.339999768883 1050
13.359999768436 1003
13.3799997679889 976
13.3999997675419 958
13.4199997670949 1035
13.4399997666478 1032
13.4599997662008 991
13.4799997657537 989
13.4999997653067 1004
13.5199997648597 1002
13.5399997644126 985
13.5599997639656 995
13.5799997635186 1015
13.5999997630715 1055
13.6199997626245 1019
13.6399997621775 1001
13.6599997617304 1000
13.6799997612834 1022
13.6999997608364 1054
13.7199997603893 1052
13.7399997599423 1028
13.7599997594953 1015
13.7799997590482 993
13.7999997586012 1006
13.8199997581542 1006
13.8399997577071 1006
13.8599997572601 1014
13.879999756813 1069
13.899999756366 1008
13.919999755919 1075
13.9399997554719 1077
13.9599997550249 1036
13.9799997545779 1086
13.9999997541308 1043
14.0199997536838 1097
14.0399997532368 1068
14.0599997527897 1072
14.0799997523427 1089
14.0999997518957 1088
14.1199997514486 1101
14.1399997510016 1133
14.1599997505546 1158
14.1799997501075 1221
14.1999997496605 1185
14.2199997492135 1232
14.2399997487664 1225
14.2599997483194 1212
14.2799997478724 1174
14.2999997474253 1191
14.3199997469783 1157
14.3399997465312 1145
14.3599997460842 1242
14.3799997456372 1244
14.3999997451901 1411
14.4199997447431 1397
14.4399997442961 1498
14.459999743849 1480
14.479999743402 1373
14.499999742955 1260
14.5199997425079 1144
14.5399997420609 1117
14.5599997416139 1161
14.5799997411668 1139
14.5999997407198 1122
14.6199997402728 1127
14.6399997398257 1135
14.6599997393787 1176
14.6799997389317 1133
14.6999997384846 1220
14.7199997380376 1124
14.7399997375906 1172
14.7599997371435 1150
14.7799997366965 1257
14.7999997362494 1247
14.8199997358024 1269
14.8399997353554 1274
14.8599997349083 1287
14.8799997344613 1182
14.8999997340143 1227
14.9199997335672 1167
14.9399997331202 1166
14.9599997326732 1154
14.9799997322261 1226
14.9999997317791 1183
15.0199997313321 1129
15.039999730885 1162
15.059999730438 1222
15.079999729991 1166
15.0999997295439 1191
15.1199997290969 1178
15.1399997286499 1191
15.1599997282028 1210
15.1799997277558 1161
15.1999997273088 1241
15.2199997268617 1174
15.2399997264147 1192
15.2599997259676 1233
15.2799997255206 1228
15.2999997250736 1197
15.3199997246265 1209
15.3399997241795 1284
15.3599997237325 1246
15.3799997232854 1257
15.3999997228384 1170
15.4199997223914 1209
15.4399997219443 1266
15.4599997214973 1240
15.4799997210503 1244
15.4999997206032 1264
15.5199997201562 1234
15.5399997197092 1196
15.5599997192621 1250
15.5799997188151 1245
15.5999997183681 1260
15.619999717921 1281
15.639999717474 1222
15.659999717027 1246
15.6799997165799 1255
15.6999997161329 1253
15.7199997156858 1249
15.7399997152388 1287
15.7599997147918 1306
15.7799997143447 1294
15.7999997138977 1283
15.8199997134507 1280
15.8399997130036 1296
15.8599997125566 1263
15.8799997121096 1296
15.8999997116625 1275
15.9199997112155 1327
15.9399997107685 1328
15.9599997103214 1254
15.9799997098744 1299
15.9999997094274 1317
16.0199997089803 1350
16.0399997085333 1305
16.0599997080863 1333
16.0799997076392 1338
16.0999997071922 1283
16.1199997067451 1360
16.1399997062981 1346
16.1599997058511 1341
16.179999705404 1281
16.199999704957 1349
16.21999970451 1396
16.2399997040629 1389
16.2599997036159 1436
16.2799997031689 1316
16.2999997027218 1348
16.3199997022748 1446
16.3399997018278 1370
16.3599997013807 1407
16.3799997009337 1410
16.3999997004867 1408
16.4199997000396 1417
16.4399996995926 1473
16.4599996991456 1404
16.4799996986985 1450
16.4999996982515 1475
16.5199996978045 1407
16.5399996973574 1416
16.5599996969104 1456
16.5799996964633 1430
16.5999996960163 1437
16.6199996955693 1452
16.6399996951222 1464
16.6599996946752 1424
16.6799996942282 1499
16.6999996937811 1470
16.7199996933341 1422
16.7399996928871 1492
16.75999969244 1504
16.779999691993 1465
16.799999691546 1499
16.8199996910989 1522
16.8399996906519 1530
16.8599996902049 1523
16.8799996897578 1504
16.8999996893108 1562
16.9199996888638 1580
16.9399996884167 1605
16.9599996879697 1568
16.9799996875226 1553
16.9999996870756 1600
17.0199996866286 1620
17.0399996861815 1665
17.0599996857345 1707
17.0799996852875 1661
17.0999996848404 1757
17.1199996843934 1795
17.1399996839464 1808
17.1599996834993 1811
17.1799996830523 1986
17.1999996826053 2085
17.2199996821582 2084
17.2399996817112 1915
17.2599996812642 1773
17.2799996808171 1677
17.2999996803701 1643
17.3199996799231 1684
17.339999679476 1683
17.359999679029 1616
17.379999678582 1678
17.3999996781349 1658
17.4199996776879 1699
17.4399996772408 1568
17.4599996767938 1619
17.4799996763468 1599
17.4999996758997 1695
17.5199996754527 1712
17.5399996750057 1681
17.5599996745586 1727
17.5799996741116 1672
17.5999996736646 1598
17.6199996732175 1757
17.6399996727705 1724
17.6599996723235 1687
17.6799996718764 1764
17.6999996714294 1726
17.7199996709824 1712
17.7399996705353 1680
17.7599996700883 1706
17.7799996696413 1748
17.7999996691942 1778
17.8199996687472 1742
17.8399996683002 1754
17.8599996678531 1653
17.8799996674061 1676
17.899999666959 1845
17.919999666512 1858
17.939999666065 1782
17.9599996656179 1767
17.9799996651709 1778
17.9999996647239 1766
18.0199996642768 1758
18.0399996638298 1769
18.0599996633828 1744
18.0799996629357 1762
18.0999996624887 1791
18.1199996620417 1784
18.1399996615946 1757
18.1599996611476 1856
18.1799996607006 1820
18.1999996602535 1835
18.2199996598065 1797
18.2399996593595 1842
18.2599996589124 1832
18.2799996584654 1828
18.2999996580184 1841
18.3199996575713 1889
18.3399996571243 1882
18.3599996566772 1866
18.3799996562302 1841
18.3999996557832 1883
18.4199996553361 1811
18.4399996548891 1831
18.4599996544421 1857
18.479999653995 1898
18.499999653548 1850
18.519999653101 1841
18.5399996526539 1923
18.5599996522069 1921
18.5799996517599 1889
18.5999996513128 1874
18.6199996508658 1879
18.6399996504188 1984
18.6599996499717 1952
18.6799996495247 1974
18.6999996490777 2048
18.7199996486306 1939
18.7399996481836 1993
18.7599996477366 1965
18.7799996472895 1971
18.7999996468425 1979
18.8199996463954 1987
18.8399996459484 2020
18.8599996455014 1886
18.8799996450543 1961
18.8999996446073 1975
18.9199996441603 1979
18.9399996437132 2024
18.9599996432662 2105
18.9799996428192 2039
18.9999996423721 2074
19.0199996419251 2010
19.0399996414781 1993
19.059999641031 2093
19.079999640584 2097
19.099999640137 2031
19.1199996396899 2036
19.1399996392429 2113
19.1599996387959 2138
19.1799996383488 2037
19.1999996379018 2011
19.2199996374547 2098
19.2399996370077 2051
19.2599996365607 2150
19.2799996361136 2076
19.2999996356666 2093
19.3199996352196 2002
19.3399996347725 2108
19.3599996343255 2153
19.3799996338785 2147
19.3999996334314 2102
19.4199996329844 2165
19.4399996325374 2235
19.4599996320903 2239
19.4799996316433 2188
19.4999996311963 2318
19.5199996307492 2430
19.5399996303022 2497
19.5599996298552 2735
19.5799996294081 2960
19.5999996289611 3271
19.6199996285141 3308
19.639999628067 3105
19.65999962762 2893
19.6799996271729 2607
19.6999996267259 2390
19.7199996262789 2454
19.7399996258318 2440
19.7599996253848 2439
19.7799996249378 2488
19.7999996244907 2538
19.8199996240437 2892
19.8399996235967 3061
19.8599996231496 3415
19.8799996227026 3775
19.8999996222556 3900
19.9199996218085 3633
19.9399996213615 3245
19.9599996209145 2966
19.9799996204674 2533
19.9999996200204 2455
