3 2473
3.01999999955297 2244
3.03999999910593 2157
3.0599999986589 2104
3.07999999821186 1952
3.09999999776483 1860
3.11999999731779 1728
3.13999999687076 1770
3.15999999642372 1815
3.17999999597669 1707
3.19999999552965 1730
3.21999999508262 1740
3.23999999463558 1702
3.25999999418855 1684
3.27999999374151 1672
3.29999999329448 1648
3.31999999284744 1602
3.33999999240041 1611
3.35999999195337 1562
3.37999999150634 1435
3.3999999910593 1548
3.41999999061227 1474
3.43999999016523 1463
3.4599999897182 1495
3.47999998927116 1462
3.49999998882413 1439
3.51999998837709 1475
3.53999998793006 1423
3.55999998748302 1487
3.57999998703599 1400
3.59999998658895 1404
3.61999998614192 1389
3.63999998569489 1403
3.65999998524785 1448
3.67999998480082 1403
3.69999998435378 1355
3.71999998390675 1304
3.73999998345971 1403
3.75999998301268 1327
3.77999998256564 1318
3.79999998211861 1262
3.81999998167157 1274
3.83999998122454 1259
3.8599999807775 1220
3.87999998033047 1232
3.89999997988343 1257
3.9199999794364 1248
3.93999997898936 1257
3.95999997854233 1247
3.97999997809529 1237
3.99999997764826 1179
4.01999997720122 1237
4.03999997675419 1159
4.05999997630715 1271
4.07999997586012 1225
4.09999997541308 1198
4.11999997496605 1152
4.13999997451901 1121
4.15999997407198 1144
4.17999997362494 1183
4.19999997317791 1217
4.21999997273087 1192
4.23999997228384 1122
4.25999997183681 1125
4.27999997138977 1117
4.29999997094274 1160
4.3199999704957 1171
4.33999997004867 1114
4.35999996960163 1101
4.3799999691546 1098
4.39999996870756 1096
4.41999996826053 1150
4.43999996781349 1131
4.45999996736646 1132
4.47999996691942 1121
4.49999996647239 1156
4.51999996602535 1115
4.53999996557832 1097
4.55999996513128 1064
4.57999996468425 1089
4.59999996423721 1078
4.61999996379018 1054
4.63999996334314 1071
4.65999996289611 1053
4.67999996244907 1113
4.69999996200204 1077
4.719999961555 1032
4.73999996110797 1025
4.75999996066093 1084
4.7799999602139 1043
4.79999995976686 1056
4.81999995931983 1056
4.83999995887279 1064
4.85999995842576 988
4.87999995797873 1015
4.89999995753169 1038
4.91999995708466 1018
4.93999995663762 1086
4.95999995619059 1072
4.97999995574355 1028
4.99999995529652 1026
5.01999995484948 1030
5.03999995440245 1035
5.05999995395541 976
5.07999995350838 1003
5.09999995306134 1018
5.11999995261431 968
5.13999995216727 1012
5.15999995172024 1038
5.1799999512732 1017
5.19999995082617 956
5.21999995037913 1036
5.2399999499321 1071
5.25999994948506 1016
5.27999994903803 1018
5.29999994859099 1025
5.31999994814396 1068
5.33999994769692 1037
5.35999994724989 1015
5.37999994680285 982
5.39999994635582 1030
5.41999994590878 995
5.43999994546175 1052
5.45999994501471 1001
5.47999994456768 1065
5.49999994412065 1019
5.51999994367361 1023
5.53999994322658 991
5.55999994277954 987
5.57999994233251 972
5.59999994188547 1020
5.61999994143844 1002
5.6399999409914 989
5.65999994054437 1004
5.67999994009733 1041
5.6999999396503 1081
5.71999993920326 1051
5.73999993875623 1100
5.75999993830919 1108
5.77999993786216 1035
5.79999993741512 1082
5.81999993696809 1013
5.83999993652105 1012
5.85999993607402 995
5.87999993562698 1077
5.89999993517995 1064
5.91999993473291 1076
5.93999993428588 1012
5.95999993383884 1028
5.97999993339181 1061
5.99999993294477 1016
6.01999993249774 989
6.0399999320507 1009
6.05999993160367 1087
6.07999993115663 1022
6.0999999307096 1044
6.11999993026257 1048
6.13999992981553 1056
6.1599999293685 955
6.17999992892146 1009
6.19999992847443 1044
6.21999992802739 1023
6.23999992758036 1090
6.25999992713332 980
6.27999992668629 1057
6.29999992623925 997
6.31999992579222 1052
6.33999992534518 1060
6.35999992489815 989
6.37999992445111 1060
6.39999992400408 1003
6.41999992355704 1062
6.43999992311001 1022
6.45999992266297 1000
6.47999992221594 1025
6.4999999217689 1035
6.51999992132187 1071
6.53999992087483 1024
6.5599999204278 1054
6.57999991998076 1035
6.59999991953373 1015
6.61999991908669 998
6.63999991863966 972
6.65999991819262 971
6.67999991774559 1060
6.69999991729855 1036
6.71999991685152 1069
6.73999991640449 982
6.75999991595745 1039
6.77999991551042 1051
6.79999991506338 1010
6.81999991461635 1050
6.83999991416931 981
6.85999991372228 1016
6.87999991327524 1046
6.89999991282821 1031
6.91999991238117 976
6.93999991193414 1045
6.9599999114871 1031
6.97999991104007 994
6.99999991059303 1029
7.019999910146 1008
7.03999990969896 990
7.05999990925193 1038
7.07999990880489 1027
7.09999990835786 1012
7.11999990791082 1031
7.13999990746379 1002
7.15999990701675 1031
7.17999990656972 1054
7.19999990612268 998
7.21999990567565 959
7.23999990522861 964
7.25999990478158 1069
7.27999990433454 977
7.29999990388751 1005
7.31999990344047 1013
7.33999990299344 1020
7.35999990254641 1021
7.37999990209937 1034
7.39999990165234 1053
7.4199999012053 1030
7.43999990075827 1028
7.45999990031123 1020
7.4799998998642 1010
7.49999989941716 984
7.51999989897013 1008
7.53999989852309 1038
7.55999989807606 1038
7.57999989762902 988
7.59999989718199 988
7.61999989673495 1037
7.63999989628792 1011
7.65999989584088 998
7.67999989539385 1016
7.69999989494681 993
7.71999989449978 984
7.73999989405274 1042
7.75999989360571 989
7.77999989315867 1034
7.79999989271164 1048
7.8199998922646 1034
7.83999989181757 978
7.85999989137053 1029
7.8799998909235 1029
7.89999989047646 1012
7.91999989002943 994
7.9399998895824 1010
7.95999988913536 1027
7.97999988868833 979
7.99999988824129 1077
8.01999988779426 1030
8.03999988734722 988
8.05999988690019 1006
8.07999988645315 1017
8.09999988600612 1023
8.11999988555908 993
8.13999988511205 997
8.15999988466501 1013
8.17999988421798 989
8.19999988377094 1010
8.21999988332391 1026
8.23999988287687 1036
8.25999988242984 981
8.2799998819828 988
8.29999988153577 997
8.31999988108873 1015
8.3399998806417 974
8.35999988019466 978
8.37999987974763 1000
8.39999987930059 995
8.41999987885356 1030
8.43999987840652 1008
8.45999987795949 982
8.47999987751245 984
8.49999987706542 1028
8.51999987661839 923
8.53999987617135 960
8.55999987572432 975
8.57999987527728 1009
8.59999987483025 1002
8.61999987438321 1038
8.63999987393618 1011
8.65999987348914 979
8.67999987304211 975
8.69999987259507 943
8.71999987214804 968
8.739999871701 1001
8.75999987125397 1040
8.77999987080693 1000
8.7999998703599 1020
8.81999986991286 993
8.83999986946583 997
8.85999986901879 973
8.87999986857176 1024
8.89999986812472 1013
8.91999986767769 987
8.93999986723065 983
8.95999986678362 947
8.97999986633658 929
8.99999986588955 960
9.01999986544251 994
9.03999986499548 989
9.05999986454844 945
9.07999986410141 978
9.09999986365438 975
9.11999986320734 986
9.13999986276031 990
9.15999986231327 978
9.17999986186624 994
9.1999998614192 960
9.21999986097217 1003
9.23999986052513 1054
9.2599998600781 1021
9.27999985963106 1024
9.29999985918403 954
9.31999985873699 990
9.33999985828996 981
9.35999985784292 1040
9.37999985739589 956
9.39999985694885 982
9.41999985650182 997
9.43999985605478 995
9.45999985560775 934
9.47999985516071 947
9.49999985471368 996
9.51999985426664 1019
9.53999985381961 975
9.55999985337257 1040
9.57999985292554 975
9.5999998524785 980
9.61999985203147 957
9.63999985158443 953
9.6599998511374 982
9.67999985069037 1006
9.69999985024333 982
9.7199998497963 935
9.73999984934926 936
9.75999984890223 1008
9.77999984845519 1055
9.79999984800816 947
9.81999984756112 1024
9.83999984711409 985
9.85999984666705 986
9.87999984622002 943
9.89999984577298 955
9.91999984532595 1008
9.93999984487891 897
9.95999984443188 985
9.97999984398484 965
9.99999984353781 955
10.0199998430908 1024
10.0399998426437 963
10.0599998421967 919
10.0799998417497 948
10.0999998413026 975
10.1199998408556 923
10.1399998404086 968
10.1599998399615 941
10.1799998395145 945
10.1999998390675 975
10.2199998386204 949
10.2399998381734 901
10.2599998377264 904
10.2799998372793 954
10.2999998368323 975
10.3199998363853 924
10.3399998359382 974
10.3599998354912 975
10.3799998350441 961
10.3999998345971 961
10.4199998341501 972
10.439999833703 962
10.459999833256 946
10.479999832809 946
10.4999998323619 949
10.5199998319149 934
10.5399998314679 939
10.5599998310208 904
10.5799998305738 974
10.5999998301268 997
10.6199998296797 951
10.6399998292327 964
10.6599998287857 959
10.6799998283386 977
10.6999998278916 976
10.7199998274446 953
10.7399998269975 959
10.7599998265505 978
10.7799998261034 993
10.7999998256564 911
10.8199998252094 1019
10.8399998247623 964
10.8599998243153 932
10.8799998238683 966
10.8999998234212 951
10.9199998229742 981
10.9399998225272 962
10.9599998220801 959
10.9799998216331 957
10.9999998211861 964
11.019999820739 961
11.039999820292 1027
11.059999819845 971
11.0799998193979 978
11.0999998189509 987
11.1199998185039 928
11.1399998180568 953
11.1599998176098 911
11.1799998171628 969
11.1999998167157 983
11.2199998162687 996
11.2399998158216 997
11.2599998153746 953
11.2799998149276 959
11.2999998144805 942
11.3199998140335 984
11.3399998135865 954
11.3599998131394 986
11.3799998126924 1026
11.3999998122454 966
11.4199998117983 955
11.4399998113513 936
11.4599998109043 965
11.4799998104572 930
11.4999998100102 942
11.5199998095632 987
11.5399998091161 1007
11.5599998086691 968
11.5799998082221 1032
11.599999807775 968
11.619999807328 952
11.639999806881 958
11.6599998064339 974
11.6799998059869 976
11.6999998055398 955
11.7199998050928 970
11.7399998046458 976
11.7599998041987 1023
11.7799998037517 937
11.7999998033047 958
11.8199998028576 1007
11.8399998024106 1040
11.8599998019636 966
11.8799998015165 996
11.8999998010695 997
11.9199998006225 1105
11.9399998001754 1016
11.9599997997284 1018
11.9799997992814 956
11.9999997988343 982
12.0199997983873 975
12.0399997979403 1032
12.0599997974932 997
12.0799997970462 960
12.0999997965992 982
12.1199997961521 1013
12.1399997957051 995
12.159999795258 936
12.179999794811 946
12.199999794364 988
12.2199997939169 1023
12.2399997934699 932
12.2599997930229 982
12.2799997925758 995
12.2999997921288 983
12.3199997916818 1042
12.3399997912347 996
12.3599997907877 979
12.3799997903407 931
12.3999997898936 955
12.4199997894466 965
12.4399997889996 998
12.4599997885525 971
12.4799997881055 1001
12.4999997876585 989
12.5199997872114 974
12.5399997867644 1006
12.5599997863173 920
12.5799997858703 1001
12.5999997854233 986
12.6199997849762 955
12.6399997845292 997
12.6599997840822 1011
12.6799997836351 1036
12.6999997831881 1007
12.7199997827411 958
12.739999782294 1026
12.759999781847 990
12.7799997814 1013
12.7999997809529 1045
12.8199997805059 1012
12.8399997800589 961
12.8599997796118 985
12.8799997791648 1010
12.8999997787178 1006
12.9199997782707 1058
12.9399997778237 1003
12.9599997773767 1011
12.9799997769296 1014
12.9999997764826 1016
13.0199997760355 1029
13.0399997755885 1025
13.0599997751415 1025
13.0799997746944 1054
13.0999997742474 1013
13.1199997738004 1052
13.1399997733533 1055
13.1599997729063 1068
13.1799997724593 1060
13.1999997720122 1052
13.2199997715652 1038
13.2399997711182 1106
13.2599997706711 1047
13.2799997702241 1113
13.2999997697771 1040
13.31999976933 1063
13.339999768883 1029
13.359999768436 1009
13.3799997679889 1034
13.3999997675419 1048
13.4199997670949 1040
13.4399997666478 1144
13.4599997662008 967
13.4799997657537 999
13.4999997653067 1070
13.5199997648597 1106
13.5399997644126 1070
13.5599997639656 1042
13.5799997635186 1033
13.5999997630715 1073
13.6199997626245 1071
13.6399997621775 1014
13.6599997617304 1075
13.6799997612834 1128
13.6999997608364 1058
13.7199997603893 1088
13.7399997599423 1060
13.7599997594953 1058
13.7799997590482 1082
13.7999997586012 1084
13.8199997581542 1116
13.8399997577071 1046
13.8599997572601 1061
13.879999756813 1133
13.899999756366 1031
13.919999755919 1111
13.9399997554719 1116
13.9599997550249 1145
13.9799997545779 1099
13.9999997541308 1007
14.0199997536838 1118
14.0399997532368 1115
14.0599997527897 1108
14.0799997523427 1118
14.0999997518957 1108
14.1199997514486 1139
14.1399997510016 1073
14.1599997505546 1139
14.1799997501075 1130
14.1999997496605 1087
14.2199997492135 1092
14.2399997487664 1053
14.2599997483194 1108
14.2799997478724 1110
14.2999997474253 1094
14.3199997469783 1077
14.3399997465312 1099
14.3599997460842 1175
14.3799997456372 1184
14.3999997451901 1193
14.4199997447431 1150
14.4399997442961 1121
14.459999743849 1069
14.479999743402 1161
14.499999742955 1100
14.5199997425079 1124
14.5399997420609 1132
14.5599997416139 1163
14.5799997411668 1151
14.5999997407198 1195
14.6199997402728 1117
14.6399997398257 1144
14.6599997393787 1162
14.6799997389317 1206
14.6999997384846 1220
14.7199997380376 1230
14.7399997375906 1134
14.7599997371435 1208
14.7799997366965 1190
14.7999997362494 1152
14.8199997358024 1209
14.8399997353554 1166
14.8599997349083 1250
14.8799997344613 1183
14.8999997340143 1196
14.9199997335672 1215
14.9399997331202 1218
14.9599997326732 1267
14.9799997322261 1240
14.9999997317791 1236
15.0199997313321 1234
15.039999730885 1227
15.059999730438 1194
15.079999729991 1220
15.0999997295439 1251
15.1199997290969 1256
15.1399997286499 1228
15.1599997282028 1263
15.1799997277558 1260
15.1999997273088 1241
15.2199997268617 1240
15.2399997264147 1201
15.2599997259676 1233
15.2799997255206 1272
15.2999997250736 1311
15.3199997246265 1350
15.3399997241795 1340
15.3599997237325 1275
15.3799997232854 1268
15.3999997228384 1301
15.4199997223914 1187
15.4399997219443 1284
15.4599997214973 1223
15.4799997210503 1182
15.4999997206032 1304
15.5199997201562 1287
15.5399997197092 1215
15.5599997192621 1286
15.5799997188151 1304
15.5999997183681 1294
15.619999717921 1348
15.639999717474 1326
15.659999717027 1336
15.6799997165799 1252
15.6999997161329 1269
15.7199997156858 1294
15.7399997152388 1300
15.7599997147918 1290
15.7799997143447 1295
15.7999997138977 1266
15.8199997134507 1335
15.8399997130036 1268
15.8599997125566 1279
15.8799997121096 1311
15.8999997116625 1342
15.9199997112155 1360
15.9399997107685 1321
15.9599997103214 1386
15.9799997098744 1352
15.9999997094274 1350
16.0199997089803 1369
16.0399997085333 1407
16.0599997080863 1321
16.0799997076392 1360
16.0999997071922 1408
16.1199997067451 1395
16.1399997062981 1393
16.1599997058511 1363
16.179999705404 1395
16.199999704957 1435
16.21999970451 1341
16.2399997040629 1386
16.2599997036159 1373
16.2799997031689 1385
16.2999997027218 1448
16.3199997022748 1321
16.3399997018278 1455
16.3599997013807 1462
16.3799997009337 1471
16.3999997004867 1405
16.4199997000396 1502
16.4399996995926 1433
16.4599996991456 1442
16.4799996986985 1520
16.4999996982515 1449
16.5199996978045 1493
16.5399996973574 1421
16.5599996969104 1495
16.5799996964633 1536
16.5999996960163 1451
16.6199996955693 1530
16.6399996951222 1557
16.6599996946752 1604
16.6799996942282 1543
16.6999996937811 1677
16.7199996933341 1624
16.7399996928871 1645
16.75999969244 1761
16.779999691993 1814
16.799999691546 1836
16.8199996910989 1917
16.8399996906519 2082
16.8599996902049 2127
16.8799996897578 2274
16.8999996893108 2598
16.9199996888638 2929
16.9399996884167 3383
16.9599996879697 3925
16.9799996875226 4151
16.9999996870756 4106
17.0199996866286 4129
17.0399996861815 3486
17.0599996857345 2898
17.0799996852875 2410
17.0999996848404 1981
17.1199996843934 1806
17.1399996839464 1670
17.1599996834993 1681
17.1799996830523 1615
17.1999996826053 1601
17.2199996821582 1620
17.2399996817112 1665
17.2599996812642 1596
17.2799996808171 1558
17.2999996803701 1624
17.3199996799231 1623
17.339999679476 1595
17.359999679029 1624
17.379999678582 1621
17.3999996781349 1644
17.4199996776879 1620
17.4399996772408 1653
17.4599996767938 1600
17.4799996763468 1692
17.4999996758997 1610
17.5199996754527 1671
17.5399996750057 1645
17.5599996745586 1668
17.5799996741116 1685
17.5999996736646 1633
17.6199996732175 1660
17.6399996727705 1721
17.6599996723235 1677
17.6799996718764 1693
17.6999996714294 1724
17.7199996709824 1649
17.7399996705353 1727
17.7599996700883 1708
17.7799996696413 1754
17.7999996691942 1782
17.8199996687472 1733
17.8399996683002 1707
17.8599996678531 1746
17.8799996674061 1735
17.899999666959 1795
17.919999666512 1705
17.939999666065 1743
17.9599996656179 1757
17.9799996651709 1727
17.9999996647239 1753
18.0199996642768 1770
18.0399996638298 1772
18.0599996633828 1706
18.0799996629357 1707
18.0999996624887 1765
18.1199996620417 1868
18.1399996615946 1809
18.1599996611476 1791
18.1799996607006 1773
18.1999996602535 1713
18.2199996598065 1792
18.2399996593595 1809
18.2599996589124 1843
18.2799996584654 1861
18.2999996580184 1850
18.3199996575713 1810
18.3399996571243 1901
18.3599996566772 1812
18.3799996562302 1901
18.3999996557832 1790
18.4199996553361 1840
18.4399996548891 1931
18.4599996544421 1883
18.479999653995 1862
18.499999653548 1848
18.519999653101 1878
18.5399996526539 1919
18.5599996522069 1915
18.5799996517599 1912
18.5999996513128 1954
18.6199996508658 1935
18.6399996504188 1888
18.6599996499717 1944
18.6799996495247 1959
18.6999996490777 1948
18.7199996486306 1929
18.7399996481836 1932
18.7599996477366 1951
18.7799996472895 1931
18.7999996468425 2007
18.8199996463954 1964
18.8399996459484 1996
18.8599996455014 1989
18.8799996450543 1911
18.8999996446073 1944
18.9199996441603 1974
18.9399996437132 1943
18.9599996432662 1967
18.9799996428192 1956
18.9999996423721 1975
19.0199996419251 2047
19.0399996414781 2090
19.059999641031 1979
19.079999640584 1959
19.099999640137 1998
19.1199996396899 2023
19.1399996392429 2043
19.1599996387959 1966
19.1799996383488 2079
19.1999996379018 2079
19.2199996374547 2054
19.2399996370077 2074
19.2599996365607 2096
19.2799996361136 2008
19.2999996356666 2122
19.3199996352196 2044
19.3399996347725 2062
19.3599996343255 2072
19.3799996338785 2064
19.3999996334314 2117
19.4199996329844 2129
19.4399996325374 2115
19.4599996320903 2106
19.4799996316433 2158
19.4999996311963 1960
19.5199996307492 2127
19.5399996303022 2121
19.5599996298552 2133
19.5799996294081 2151
19.5999996289611 2216
19.6199996285141 2098
19.639999628067 2125
19.65999962762 2156
19.6799996271729 2079
19.6999996267259 2175
19.7199996262789 2164
19.7399996258318 2208
19.7599996253848 2159
19.7799996249378 2195
19.7999996244907 2122
19.8199996240437 2179
19.8399996235967 2198
19.8599996231496 2286
19.8799996227026 2187
19.8999996222556 2083
19.9199996218085 2257
19.9399996213615 2207
19.9599996209145 2204
19.9799996204674 2193
19.9999996200204 2179
