3 1954
3.01999999955297 1788
3.03999999910593 1659
3.0599999986589 1486
3.07999999821186 1401
3.09999999776483 1300
3.11999999731779 1286
3.13999999687076 1306
3.15999999642372 1291
3.17999999597669 1254
3.19999999552965 1252
3.21999999508262 1214
3.23999999463558 1153
3.25999999418855 1257
3.27999999374151 1233
3.29999999329448 1171
3.31999999284744 1181
3.33999999240041 1143
3.35999999195337 1141
3.37999999150634 1166
3.3999999910593 1081
3.41999999061227 1132
3.43999999016523 1163
3.4599999897182 1104
3.47999998927116 1118
3.49999998882413 1168
3.51999998837709 1136
3.53999998793006 1037
3.55999998748302 1070
3.57999998703599 1081
3.59999998658895 1037
3.61999998614192 1044
3.63999998569489 1025
3.65999998524785 1032
3.67999998480082 1081
3.69999998435378 1088
3.71999998390675 1055
3.73999998345971 1021
3.75999998301268 1058
3.77999998256564 1013
3.79999998211861 1076
3.81999998167157 1041
3.83999998122454 969
3.8599999807775 1035
3.87999998033047 1020
3.89999997988343 1051
3.9199999794364 1016
3.93999997898936 1009
3.95999997854233 1034
3.97999997809529 966
3.99999997764826 946
4.01999997720122 999
4.03999997675419 1007
4.05999997630715 1015
4.07999997586012 999
4.09999997541308 968
4.11999997496605 991
4.13999997451901 967
4.15999997407198 956
4.17999997362494 992
4.19999997317791 947
4.21999997273087 976
4.23999997228384 972
4.25999997183681 981
4.27999997138977 949
4.29999997094274 959
4.3199999704957 959
4.33999997004867 896
4.35999996960163 969
4.3799999691546 957
4.39999996870756 989
4.41999996826053 921
4.43999996781349 923
4.45999996736646 992
4.47999996691942 985
4.49999996647239 972
4.51999996602535 926
4.53999996557832 951
4.55999996513128 946
4.57999996468425 1006
4.59999996423721 951
4.61999996379018 912
4.63999996334314 956
4.65999996289611 969
4.67999996244907 996
4.69999996200204 946
4.719999961555 975
4.73999996110797 945
4.75999996066093 949
4.7799999602139 956
4.79999995976686 964
4.81999995931983 925
4.83999995887279 928
4.85999995842576 942
4.87999995797873 948
4.89999995753169 969
4.91999995708466 1019
4.93999995663762 1030
4.95999995619059 1038
4.97999995574355 973
4.99999995529652 966
5.01999995484948 981
5.03999995440245 986
5.05999995395541 1020
5.07999995350838 994
5.09999995306134 1040
5.11999995261431 1037
5.13999995216727 1013
5.15999995172024 1022
5.1799999512732 1034
5.19999995082617 1061
5.21999995037913 1035
5.2399999499321 1073
5.25999994948506 1042
5.27999994903803 1096
5.29999994859099 1039
5.31999994814396 1099
5.33999994769692 1086
5.35999994724989 1085
5.37999994680285 1066
5.39999994635582 1078
5.41999994590878 1102
5.43999994546175 1062
5.45999994501471 1114
5.47999994456768 1098
5.49999994412065 1095
5.51999994367361 1123
5.53999994322658 1149
5.55999994277954 1145
5.57999994233251 1167
5.59999994188547 1145
5.61999994143844 1184
5.6399999409914 1195
5.65999994054437 1196
5.67999994009733 1157
5.6999999396503 1230
5.71999993920326 1218
5.73999993875623 1136
5.75999993830919 1179
5.77999993786216 1158
5.79999993741512 1140
5.81999993696809 1130
5.83999993652105 1112
5.85999993607402 1135
5.87999993562698 1182
5.89999993517995 1139
5.91999993473291 1124
5.93999993428588 1155
5.95999993383884 1129
5.97999993339181 1123
5.99999993294477 1056
6.01999993249774 1069
6.0399999320507 1032
6.05999993160367 1090
6.07999993115663 1002
6.0999999307096 1016
6.11999993026257 1012
6.13999992981553 1015
6.1599999293685 990
6.17999992892146 986
6.19999992847443 988
6.21999992802739 949
6.23999992758036 993
6.25999992713332 963
6.27999992668629 909
6.29999992623925 938
6.31999992579222 872
6.33999992534518 915
6.35999992489815 955
6.37999992445111 881
6.39999992400408 906
6.41999992355704 893
6.43999992311001 857
6.45999992266297 901
6.47999992221594 904
6.4999999217689 833
6.51999992132187 856
6.53999992087483 861
6.5599999204278 878
6.57999991998076 868
6.59999991953373 853
6.61999991908669 847
6.63999991863966 852
6.65999991819262 824
6.67999991774559 835
6.69999991729855 870
6.71999991685152 916
6.73999991640449 844
6.75999991595745 805
6.77999991551042 799
6.79999991506338 800
6.81999991461635 816
6.83999991416931 779
6.85999991372228 841
6.87999991327524 838
6.89999991282821 800
6.91999991238117 819
6.93999991193414 859
6.9599999114871 790
6.97999991104007 766
6.99999991059303 788
7.019999910146 775
7.03999990969896 748
7.05999990925193 774
7.07999990880489 800
7.09999990835786 803
7.11999990791082 750
7.13999990746379 750
7.15999990701675 750
7.17999990656972 746
7.19999990612268 759
7.21999990567565 791
7.23999990522861 766
7.25999990478158 751
7.27999990433454 769
7.29999990388751 769
7.31999990344047 776
7.33999990299344 776
7.35999990254641 763
7.37999990209937 701
7.39999990165234 705
7.4199999012053 773
7.43999990075827 706
7.45999990031123 749
7.4799998998642 765
7.49999989941716 821
7.51999989897013 766
7.53999989852309 749
7.55999989807606 712
7.57999989762902 747
7.59999989718199 745
7.61999989673495 723
7.63999989628792 742
7.65999989584088 751
7.67999989539385 773
7.69999989494681 734
7.71999989449978 749
7.73999989405274 741
7.75999989360571 713
7.77999989315867 702
7.79999989271164 713
7.8199998922646 745
7.83999989181757 713
7.85999989137053 726
7.8799998909235 737
7.89999989047646 739
7.91999989002943 715
7.9399998895824 678
7.95999988913536 699
7.97999988868833 721
7.99999988824129 726
8.01999988779426 788
8.03999988734722 786
8.05999988690019 711
8.07999988645315 692
8.09999988600612 740
8.11999988555908 750
8.13999988511205 737
8.15999988466501 745
8.17999988421798 731
8.19999988377094 709
8.21999988332391 761
8.23999988287687 744
8.25999988242984 710
8.2799998819828 703
8.29999988153577 738
8.31999988108873 791
8.3399998806417 732
8.35999988019466 753
8.37999987974763 719
8.39999987930059 733
8.41999987885356 755
8.43999987840652 752
8.45999987795949 746
8.47999987751245 734
8.49999987706542 807
8.51999987661839 744
8.53999987617135 718
8.55999987572432 759
8.57999987527728 776
8.59999987483025 698
8.61999987438321 765
8.63999987393618 716
8.65999987348914 718
8.67999987304211 732
8.69999987259507 707
8.71999987214804 739
8.739999871701 686
8.75999987125397 724
8.77999987080693 736
8.7999998703599 775
8.81999986991286 752
8.83999986946583 745
8.85999986901879 767
8.87999986857176 737
8.89999986812472 734
8.91999986767769 732
8.93999986723065 745
8.95999986678362 761
8.97999986633658 721
8.99999986588955 777
9.01999986544251 758
9.03999986499548 760
9.05999986454844 764
9.07999986410141 767
9.09999986365438 836
9.11999986320734 761
9.13999986276031 746
9.15999986231327 762
9.17999986186624 745
9.1999998614192 765
9.21999986097217 785
9.23999986052513 736
9.2599998600781 763
9.27999985963106 761
9.29999985918403 726
9.31999985873699 759
9.33999985828996 767
9.35999985784292 801
9.37999985739589 813
9.39999985694885 820
9.41999985650182 851
9.43999985605478 816
9.45999985560775 770
9.47999985516071 826
9.49999985471368 770
9.51999985426664 805
9.53999985381961 798
9.55999985337257 756
9.57999985292554 730
9.5999998524785 828
9.61999985203147 806
9.63999985158443 744
9.6599998511374 783
9.67999985069037 780
9.69999985024333 824
9.7199998497963 812
9.73999984934926 794
9.75999984890223 774
9.77999984845519 805
9.79999984800816 812
9.81999984756112 758
9.83999984711409 756
9.85999984666705 775
9.87999984622002 744
9.89999984577298 739
9.91999984532595 755
9.93999984487891 770
9.95999984443188 770
9.97999984398484 769
9.99999984353781 769
10.0199998430908 772
10.0399998426437 736
10.0599998421967 703
10.0799998417497 751
10.0999998413026 802
10.1199998408556 736
10.1399998404086 798
10.1599998399615 729
10.1799998395145 811
10.1999998390675 786
10.2199998386204 763
10.2399998381734 786
10.2599998377264 763
10.2799998372793 738
10.2999998368323 767
10.3199998363853 726
10.3399998359382 810
10.3599998354912 741
10.3799998350441 735
10.3999998345971 794
10.4199998341501 768
10.439999833703 794
10.459999833256 769
10.479999832809 753
10.4999998323619 814
10.5199998319149 773
10.5399998314679 777
10.5599998310208 772
10.5799998305738 795
10.5999998301268 795
10.6199998296797 799
10.6399998292327 775
10.6599998287857 762
10.6799998283386 851
10.6999998278916 786
10.7199998274446 804
10.7399998269975 797
10.7599998265505 781
10.7799998261034 737
10.7999998256564 775
10.8199998252094 839
10.8399998247623 761
10.8599998243153 779
10.8799998238683 796
10.8999998234212 747
10.9199998229742 859
10.9399998225272 809
10.9599998220801 789
10.9799998216331 823
10.9999998211861 819
11.019999820739 827
11.039999820292 826
11.059999819845 787
11.0799998193979 802
11.0999998189509 839
11.1199998185039 797
11.1399998180568 771
11.1599998176098 834
11.1799998171628 793
11.1999998167157 831
11.2199998162687 835
11.2399998158216 795
11.2599998153746 831
11.2799998149276 839
11.2999998144805 791
11.3199998140335 806
11.3399998135865 793
11.3599998131394 779
11.3799998126924 789
11.3999998122454 799
11.4199998117983 791
11.4399998113513 812
11.4599998109043 837
11.4799998104572 816
11.4999998100102 822
11.5199998095632 794
11.5399998091161 786
11.5599998086691 807
11.5799998082221 789
11.599999807775 800
11.619999807328 762
11.639999806881 736
11.6599998064339 790
11.6799998059869 809
11.6999998055398 762
11.7199998050928 797
11.7399998046458 795
11.7599998041987 788
11.7799998037517 767
11.7999998033047 738
11.8199998028576 745
11.8399998024106 752
11.8599998019636 779
11.8799998015165 788
11.8999998010695 738
11.9199998006225 771
11.9399998001754 808
11.9599997997284 806
11.9799997992814 781
11.9999997988343 744
12.0199997983873 760
12.0399997979403 773
12.0599997974932 768
12.0799997970462 753
12.0999997965992 747
12.1199997961521 794
12.1399997957051 769
12.159999795258 752
12.179999794811 773
12.199999794364 783
12.2199997939169 752
12.2399997934699 751
12.2599997930229 798
12.2799997925758 817
12.2999997921288 769
12.3199997916818 750
12.3399997912347 820
12.3599997907877 792
12.3799997903407 727
12.3999997898936 792
12.4199997894466 768
12.4399997889996 786
12.4599997885525 754
12.4799997881055 838
12.4999997876585 805
12.5199997872114 790
12.5399997867644 794
12.5599997863173 788
12.5799997858703 819
12.5999997854233 784
12.6199997849762 793
12.6399997845292 787
12.6599997840822 813
12.6799997836351 779
12.6999997831881 807
12.7199997827411 798
12.739999782294 762
12.759999781847 796
12.7799997814 755
12.7999997809529 809
12.8199997805059 807
12.8399997800589 814
12.8599997796118 862
12.8799997791648 800
12.8999997787178 829
12.9199997782707 834
12.9399997778237 813
12.9599997773767 825
12.9799997769296 775
12.9999997764826 826
13.0199997760355 795
13.0399997755885 821
13.0599997751415 839
13.0799997746944 800
13.0999997742474 871
13.1199997738004 807
13.1399997733533 842
13.1599997729063 830
13.1799997724593 861
13.1999997720122 803
13.2199997715652 802
13.2399997711182 853
13.2599997706711 827
13.2799997702241 833
13.2999997697771 815
13.31999976933 828
13.339999768883 822
13.359999768436 842
13.3799997679889 798
13.3999997675419 858
13.4199997670949 890
13.4399997666478 838
13.4599997662008 805
13.4799997657537 882
13.4999997653067 802
13.5199997648597 876
13.5399997644126 841
13.5599997639656 883
13.5799997635186 857
13.5999997630715 868
13.6199997626245 883
13.6399997621775 828
13.6599997617304 909
13.6799997612834 871
13.6999997608364 852
13.7199997603893 830
13.7399997599423 921
13.7599997594953 929
13.7799997590482 926
13.7999997586012 835
13.8199997581542 831
13.8399997577071 901
13.8599997572601 845
13.879999756813 896
13.899999756366 918
13.919999755919 888
13.9399997554719 921
13.9599997550249 909
13.9799997545779 868
13.9999997541308 859
14.0199997536838 922
14.0399997532368 864
14.0599997527897 922
14.0799997523427 939
14.0999997518957 860
14.1199997514486 949
14.1399997510016 883
14.1599997505546 942
14.1799997501075 953
14.1999997496605 875
14.2199997492135 933
14.2399997487664 889
14.2599997483194 929
14.2799997478724 877
14.2999997474253 859
14.3199997469783 957
14.3399997465312 979
14.3599997460842 951
14.3799997456372 947
14.3999997451901 901
14.4199997447431 917
14.4399997442961 1002
14.459999743849 974
14.479999743402 919
14.499999742955 951
14.5199997425079 977
14.5399997420609 1004
14.5599997416139 952
14.5799997411668 961
14.5999997407198 940
14.6199997402728 1013
14.6399997398257 950
14.6599997393787 970
14.6799997389317 957
14.6999997384846 927
14.7199997380376 1037
14.7399997375906 964
14.7599997371435 930
14.7799997366965 998
14.7999997362494 1023
14.8199997358024 1055
14.8399997353554 1018
14.8599997349083 993
14.8799997344613 976
14.8999997340143 1040
14.9199997335672 1069
14.9399997331202 1021
14.9599997326732 983
14.9799997322261 1003
14.9999997317791 1002
15.0199997313321 1016
15.039999730885 1048
15.059999730438 1002
15.079999729991 1027
15.0999997295439 1044
15.1199997290969 1047
15.1399997286499 1005
15.1599997282028 1033
15.1799997277558 1084
15.1999997273088 1077
15.2199997268617 1055
15.2399997264147 1052
15.2599997259676 1031
15.2799997255206 1042
15.2999997250736 1061
15.3199997246265 1095
15.3399997241795 1063
15.3599997237325 1093
15.3799997232854 1032
15.3999997228384 1093
15.4199997223914 1127
15.4399997219443 1094
15.4599997214973 1039
15.4799997210503 1052
15.4999997206032 1070
15.5199997201562 1084
15.5399997197092 1071
15.5599997192621 1078
15.5799997188151 1102
15.5999997183681 1097
15.619999717921 1044
15.639999717474 1185
15.659999717027 1053
15.6799997165799 1041
15.6999997161329 1108
15.7199997156858 1119
15.7399997152388 1108
15.7599997147918 1071
15.7799997143447 1099
15.7999997138977 1156
15.8199997134507 1169
15.8399997130036 1166
15.8599997125566 1140
15.8799997121096 1149
15.8999997116625 1133
15.9199997112155 1121
15.9399997107685 1167
15.9599997103214 1096
15.9799997098744 1112
15.9999997094274 1165
16.0199997089803 1164
16.0399997085333 1208
16.0599997080863 1207
16.0799997076392 1178
16.0999997071922 1236
16.1199997067451 1170
16.1399997062981 1198
16.1599997058511 1215
16.179999705404 1171
16.199999704957 1232
16.21999970451 1193
16.2399997040629 1147
16.2599997036159 1222
16.2799997031689 1210
16.2999997027218 1241
16.3199997022748 1240
16.3399997018278 1276
16.3599997013807 1217
16.3799997009337 1217
16.3999997004867 1279
16.4199997000396 1252
16.4399996995926 1252
16.4599996991456 1283
16.4799996986985 1263
16.4999996982515 1235
16.5199996978045 1291
16.5399996973574 1353
16.5599996969104 1239
16.5799996964633 1284
16.5999996960163 1247
16.6199996955693 1242
16.6399996951222 1281
16.6599996946752 1335
16.6799996942282 1258
16.6999996937811 1285
16.7199996933341 1289
16.7399996928871 1304
16.75999969244 1370
16.779999691993 1364
16.799999691546 1349
16.8199996910989 1302
16.8399996906519 1371
16.8599996902049 1437
16.8799996897578 1349
16.8999996893108 1404
16.9199996888638 1382
16.9399996884167 1549
16.9599996879697 1524
16.9799996875226 1559
16.9999996870756 1575
17.0199996866286 1511
17.0399996861815 1549
17.0599996857345 1561
17.0799996852875 1528
17.0999996848404 1607
17.1199996843934 1527
17.1399996839464 1589
17.1599996834993 1562
17.1799996830523 1541
17.1999996826053 1520
17.2199996821582 1581
17.2399996817112 1521
17.2599996812642 1449
17.2799996808171 1447
17.2999996803701 1455
17.3199996799231 1425
17.339999679476 1509
17.359999679029 1436
17.379999678582 1430
17.3999996781349 1466
17.4199996776879 1512
17.4399996772408 1416
17.4599996767938 1457
17.4799996763468 1474
17.4999996758997 1477
17.5199996754527 1425
17.5399996750057 1527
17.5599996745586 1531
17.5799996741116 1438
17.5999996736646 1535
17.6199996732175 1527
17.6399996727705 1556
17.6599996723235 1565
17.6799996718764 1519
17.6999996714294 1541
17.7199996709824 1572
17.7399996705353 1558
17.7599996700883 1551
17.7799996696413 1506
17.7999996691942 1473
17.8199996687472 1559
17.8399996683002 1562
17.8599996678531 1541
17.8799996674061 1562
17.899999666959 1564
17.919999666512 1520
17.939999666065 1590
17.9599996656179 1635
17.9799996651709 1583
17.9999996647239 1609
18.0199996642768 1589
18.0399996638298 1627
18.0599996633828 1599
18.0799996629357 1602
18.0999996624887 1567
18.1199996620417 1689
18.1399996615946 1613
18.1599996611476 1607
18.1799996607006 1686
18.1999996602535 1618
18.2199996598065 1671
18.2399996593595 1677
18.2599996589124 1598
18.2799996584654 1655
18.2999996580184 1687
18.3199996575713 1677
18.3399996571243 1642
18.3599996566772 1696
18.3799996562302 1653
18.3999996557832 1667
18.4199996553361 1749
18.4399996548891 1588
18.4599996544421 1758
18.479999653995 1720
18.499999653548 1812
18.519999653101 1681
18.5399996526539 1675
18.5599996522069 1758
18.5799996517599 1758
18.5999996513128 1761
18.6199996508658 1771
18.6399996504188 1798
18.6599996499717 1755
18.6799996495247 1769
18.6999996490777 1712
18.7199996486306 1771
18.7399996481836 1727
18.7599996477366 1845
18.7799996472895 1781
18.7999996468425 1799
18.8199996463954 1741
18.8399996459484 1815
18.8599996455014 1858
18.8799996450543 1755
18.8999996446073 1839
18.9199996441603 1885
18.9399996437132 1843
18.9599996432662 1877
18.9799996428192 1923
18.9999996423721 1931
19.0199996419251 1856
19.0399996414781 1882
19.059999641031 1856
19.079999640584 1854
19.099999640137 1892
19.1199996396899 1942
19.1399996392429 1810
19.1599996387959 1894
19.1799996383488 1834
19.1999996379018 1878
19.2199996374547 1946
19.2399996370077 1904
19.2599996365607 1893
19.2799996361136 1992
19.2999996356666 1915
19.3199996352196 1908
19.3399996347725 1867
19.3599996343255 1927
19.3799996338785 1959
19.3999996334314 2004
19.4199996329844 1968
19.4399996325374 1925
19.4599996320903 1880
19.4799996316433 2057
19.4999996311963 1988
19.5199996307492 1864
19.5399996303022 2035
19.5599996298552 1976
19.5799996294081 1962
19.5999996289611 1965
19.6199996285141 2012
19.639999628067 1939
19.65999962762 1949
19.6799996271729 1969
19.6999996267259 1964
19.7199996262789 1983
19.7399996258318 2076
19.7599996253848 2064
19.7799996249378 1979
19.7999996244907 2086
19.8199996240437 2094
19.8399996235967 2026
19.8599996231496 2002
19.8799996227026 1988
19.8999996222556 2005
19.9199996218085 2019
19.9399996213615 2036
19.9599996209145 1986
19.9799996204674 1973
19.9999996200204 2033
