3 2231
3.01999999955297 2108
3.03999999910593 1983
3.0599999986589 1856
3.07999999821186 1795
3.09999999776483 1661
3.11999999731779 1668
3.13999999687076 1638
3.15999999642372 1634
3.17999999597669 1590
3.19999999552965 1533
3.21999999508262 1531
3.23999999463558 1614
3.25999999418855 1496
3.27999999374151 1586
3.29999999329448 1579
3.31999999284744 1472
3.33999999240041 1455
3.35999999195337 1429
3.37999999150634 1489
3.3999999910593 1499
3.41999999061227 1436
3.43999999016523 1396
3.4599999897182 1419
3.47999998927116 1415
3.49999998882413 1364
3.51999998837709 1447
3.53999998793006 1365
3.55999998748302 1321
3.57999998703599 1349
3.59999998658895 1387
3.61999998614192 1367
3.63999998569489 1364
3.65999998524785 1314
3.67999998480082 1316
3.69999998435378 1384
3.71999998390675 1376
3.73999998345971 1317
3.75999998301268 1252
3.77999998256564 1264
3.79999998211861 1298
3.81999998167157 1283
3.83999998122454 1279
3.8599999807775 1328
3.87999998033047 1330
3.89999997988343 1255
3.9199999794364 1319
3.93999997898936 1337
3.95999997854233 1274
3.97999997809529 1286
3.99999997764826 1277
4.01999997720122 1194
4.03999997675419 1278
4.05999997630715 1267
4.07999997586012 1242
4.09999997541308 1243
4.11999997496605 1211
4.13999997451901 1242
4.15999997407198 1250
4.17999997362494 1225
4.19999997317791 1238
4.21999997273087 1217
4.23999997228384 1285
4.25999997183681 1232
4.27999997138977 1232
4.29999997094274 1243
4.3199999704957 1238
4.33999997004867 1267
4.35999996960163 1231
4.3799999691546 1268
4.39999996870756 1220
4.41999996826053 1208
4.43999996781349 1190
4.45999996736646 1184
4.47999996691942 1205
4.49999996647239 1244
4.51999996602535 1185
4.53999996557832 1191
4.55999996513128 1157
4.57999996468425 1246
4.59999996423721 1173
4.61999996379018 1154
4.63999996334314 1162
4.65999996289611 1150
4.67999996244907 1150
4.69999996200204 1192
4.719999961555 1198
4.73999996110797 1135
4.75999996066093 1161
4.7799999602139 1208
4.79999995976686 1186
4.81999995931983 1164
4.83999995887279 1116
4.85999995842576 1161
4.87999995797873 1205
4.89999995753169 1128
4.91999995708466 1141
4.93999995663762 1142
4.95999995619059 1195
4.97999995574355 1159
4.99999995529652 1129
5.01999995484948 1125
5.03999995440245 1196
5.05999995395541 1116
5.07999995350838 1087
5.09999995306134 1140
5.11999995261431 1138
5.13999995216727 1084
5.15999995172024 1104
5.1799999512732 1160
5.19999995082617 1124
5.21999995037913 1131
5.2399999499321 1115
5.25999994948506 1098
5.27999994903803 1104
5.29999994859099 1021
5.31999994814396 1037
5.33999994769692 1145
5.35999994724989 1129
5.37999994680285 1055
5.39999994635582 1119
5.41999994590878 1066
5.43999994546175 1056
5.45999994501471 1065
5.47999994456768 1106
5.49999994412065 1019
5.51999994367361 1066
5.53999994322658 1084
5.55999994277954 992
5.57999994233251 1032
5.59999994188547 1023
5.61999994143844 1002
5.6399999409914 1038
5.65999994054437 1022
5.67999994009733 1008
5.6999999396503 1005
5.71999993920326 997
5.73999993875623 941
5.75999993830919 908
5.77999993786216 948
5.79999993741512 935
5.81999993696809 926
5.83999993652105 924
5.85999993607402 923
5.87999993562698 962
5.89999993517995 970
5.91999993473291 876
5.93999993428588 916
5.95999993383884 910
5.97999993339181 926
5.99999993294477 824
6.01999993249774 848
6.0399999320507 875
6.05999993160367 831
6.07999993115663 849
6.0999999307096 858
6.11999993026257 843
6.13999992981553 874
6.1599999293685 814
6.17999992892146 769
6.19999992847443 831
6.21999992802739 805
6.23999992758036 811
6.25999992713332 771
6.27999992668629 841
6.29999992623925 747
6.31999992579222 747
6.33999992534518 766
6.35999992489815 780
6.37999992445111 800
6.39999992400408 761
6.41999992355704 804
6.43999992311001 749
6.45999992266297 725
6.47999992221594 716
6.4999999217689 721
6.51999992132187 709
6.53999992087483 756
6.5599999204278 746
6.57999991998076 710
6.59999991953373 735
6.61999991908669 708
6.63999991863966 685
6.65999991819262 713
6.67999991774559 682
6.69999991729855 698
6.71999991685152 707
6.73999991640449 707
6.75999991595745 705
6.77999991551042 722
6.79999991506338 658
6.81999991461635 681
6.83999991416931 675
6.85999991372228 644
6.87999991327524 665
6.89999991282821 647
6.91999991238117 668
6.93999991193414 677
6.9599999114871 657
6.97999991104007 655
6.99999991059303 662
7.019999910146 666
7.03999990969896 677
7.05999990925193 664
7.07999990880489 630
7.09999990835786 664
7.11999990791082 665
7.13999990746379 667
7.15999990701675 698
7.17999990656972 604
7.19999990612268 656
7.21999990567565 650
7.23999990522861 627
7.25999990478158 611
7.27999990433454 633
7.29999990388751 679
7.31999990344047 629
7.33999990299344 670
7.35999990254641 624
7.37999990209937 634
7.39999990165234 579
7.4199999012053 599
7.43999990075827 584
7.45999990031123 670
7.4799998998642 627
7.49999989941716 593
7.51999989897013 624
7.53999989852309 641
7.55999989807606 615
7.57999989762902 633
7.59999989718199 633
7.61999989673495 623
7.63999989628792 581
7.65999989584088 660
7.67999989539385 635
7.69999989494681 634
7.71999989449978 633
7.73999989405274 603
7.75999989360571 652
7.77999989315867 590
7.79999989271164 617
7.8199998922646 593
7.83999989181757 627
7.85999989137053 610
7.8799998909235 610
7.89999989047646 613
7.91999989002943 568
7.9399998895824 592
7.95999988913536 593
7.97999988868833 582
7.99999988824129 559
8.01999988779426 607
8.03999988734722 610
8.05999988690019 593
8.07999988645315 577
8.09999988600612 587
8.11999988555908 604
8.13999988511205 637
8.15999988466501 568
8.17999988421798 603
8.19999988377094 633
8.21999988332391 583
8.23999988287687 546
8.25999988242984 583
8.2799998819828 598
8.29999988153577 564
8.31999988108873 582
8.3399998806417 617
8.35999988019466 585
8.37999987974763 599
8.39999987930059 592
8.41999987885356 602
8.43999987840652 608
8.45999987795949 580
8.47999987751245 574
8.49999987706542 594
8.51999987661839 611
8.53999987617135 591
8.55999987572432 585
8.57999987527728 581
8.59999987483025 576
8.61999987438321 572
8.63999987393618 553
8.65999987348914 569
8.67999987304211 561
8.69999987259507 567
8.71999987214804 608
8.739999871701 574
8.75999987125397 587
8.77999987080693 583
8.7999998703599 628
8.81999986991286 543
8.83999986946583 583
8.85999986901879 603
8.87999986857176 578
8.89999986812472 603
8.91999986767769 596
8.93999986723065 594
8.95999986678362 601
8.97999986633658 593
8.99999986588955 543
9.01999986544251 583
9.03999986499548 635
9.05999986454844 594
9.07999986410141 580
9.09999986365438 617
9.11999986320734 558
9.13999986276031 574
9.15999986231327 588
9.17999986186624 566
9.1999998614192 553
9.21999986097217 560
9.23999986052513 584
9.2599998600781 570
9.27999985963106 558
9.29999985918403 568
9.31999985873699 541
9.33999985828996 557
9.35999985784292 559
9.37999985739589 567
9.39999985694885 566
9.41999985650182 560
9.43999985605478 570
9.45999985560775 607
9.47999985516071 562
9.49999985471368 556
9.51999985426664 584
9.53999985381961 613
9.55999985337257 547
9.57999985292554 587
9.5999998524785 576
9.61999985203147 570
9.63999985158443 535
9.6599998511374 531
9.67999985069037 543
9.69999985024333 563
9.7199998497963 552
9.73999984934926 562
9.75999984890223 572
9.77999984845519 532
9.79999984800816 567
9.81999984756112 593
9.83999984711409 559
9.85999984666705 559
9.87999984622002 541
9.89999984577298 561
9.91999984532595 556
9.93999984487891 518
9.95999984443188 605
9.97999984398484 540
9.99999984353781 625
10.0199998430908 589
10.0399998426437 532
10.0599998421967 576
10.0799998417497 570
10.0999998413026 566
10.1199998408556 564
10.1399998404086 538
10.1599998399615 551
10.1799998395145 541
10.1999998390675 579
10.2199998386204 564
10.2399998381734 582
10.2599998377264 537
10.2799998372793 554
10.2999998368323 540
10.3199998363853 536
10.3399998359382 540
10.3599998354912 555
10.3799998350441 550
10.3999998345971 541
10.4199998341501 579
10.439999833703 551
10.459999833256 570
10.479999832809 558
10.4999998323619 574
10.5199998319149 586
10.5399998314679 522
10.5599998310208 498
10.5799998305738 539
10.5999998301268 544
10.6199998296797 561
10.6399998292327 516
10.6599998287857 565
10.6799998283386 543
10.6999998278916 527
10.7199998274446 513
10.7399998269975 533
10.7599998265505 529
10.7799998261034 584
10.7999998256564 555
10.8199998252094 549
10.8399998247623 524
10.8599998243153 538
10.8799998238683 578
10.8999998234212 540
10.9199998229742 570
10.9399998225272 554
10.9599998220801 529
10.9799998216331 576
10.9999998211861 554
11.019999820739 542
11.039999820292 578
11.059999819845 527
11.0799998193979 550
11.0999998189509 539
11.1199998185039 580
11.1399998180568 512
11.1599998176098 568
11.1799998171628 535
11.1999998167157 512
11.2199998162687 543
11.2399998158216 540
11.2599998153746 521
11.2799998149276 499
11.2999998144805 515
11.3199998140335 520
11.3399998135865 547
11.3599998131394 576
11.3799998126924 542
11.3999998122454 544
11.4199998117983 527
11.4399998113513 558
11.4599998109043 533
11.4799998104572 523
11.4999998100102 511
11.5199998095632 478
11.5399998091161 528
11.5599998086691 514
11.5799998082221 498
11.599999807775 547
11.619999807328 517
11.639999806881 508
11.6599998064339 484
11.6799998059869 524
11.6999998055398 531
11.7199998050928 553
11.7399998046458 589
11.7599998041987 520
11.7799998037517 523
11.7999998033047 509
11.8199998028576 539
11.8399998024106 548
11.8599998019636 529
11.8799998015165 512
11.8999998010695 537
11.9199998006225 499
11.9399998001754 520
11.9599997997284 504
11.9799997992814 529
11.9999997988343 538
12.0199997983873 545
12.0399997979403 519
12.0599997974932 536
12.0799997970462 530
12.0999997965992 566
12.1199997961521 556
12.1399997957051 529
12.159999795258 552
12.179999794811 542
12.199999794364 523
12.2199997939169 536
12.2399997934699 547
12.2599997930229 502
12.2799997925758 537
12.2999997921288 533
12.3199997916818 505
12.3399997912347 473
12.3599997907877 524
12.3799997903407 518
12.3999997898936 533
12.4199997894466 538
12.4399997889996 503
12.4599997885525 530
12.4799997881055 563
12.4999997876585 506
12.5199997872114 559
12.5399997867644 562
12.5599997863173 537
12.5799997858703 552
12.5999997854233 481
12.6199997849762 532
12.6399997845292 542
12.6599997840822 531
12.6799997836351 557
12.6999997831881 513
12.7199997827411 569
12.739999782294 546
12.759999781847 547
12.7799997814 491
12.7999997809529 525
12.8199997805059 561
12.8399997800589 527
12.8599997796118 541
12.8799997791648 575
12.8999997787178 570
12.9199997782707 545
12.9399997778237 545
12.9599997773767 551
12.9799997769296 584
12.9999997764826 537
13.0199997760355 526
13.0399997755885 515
13.0599997751415 576
13.0799997746944 530
13.0999997742474 525
13.1199997738004 548
13.1399997733533 536
13.1599997729063 567
13.1799997724593 550
13.1999997720122 554
13.2199997715652 538
13.2399997711182 569
13.2599997706711 539
13.2799997702241 530
13.2999997697771 524
13.31999976933 537
13.339999768883 574
13.359999768436 546
13.3799997679889 559
13.3999997675419 555
13.4199997670949 548
13.4399997666478 566
13.4599997662008 608
13.4799997657537 531
13.4999997653067 562
13.5199997648597 621
13.5399997644126 560
13.5599997639656 557
13.5799997635186 612
13.5999997630715 589
13.6199997626245 561
13.6399997621775 574
13.6599997617304 559
13.6799997612834 510
13.6999997608364 582
13.7199997603893 515
13.7399997599423 565
13.7599997594953 609
13.7799997590482 571
13.7999997586012 586
13.8199997581542 558
13.8399997577071 551
13.8599997572601 567
13.879999756813 613
13.899999756366 570
13.919999755919 584
13.9399997554719 604
13.9599997550249 534
13.9799997545779 576
13.9999997541308 591
14.0199997536838 556
14.0399997532368 567
14.0599997527897 572
14.0799997523427 611
14.0999997518957 591
14.1199997514486 599
14.1399997510016 587
14.1599997505546 589
14.1799997501075 542
14.1999997496605 596
14.2199997492135 591
14.2399997487664 608
14.2599997483194 586
14.2799997478724 609
14.2999997474253 603
14.3199997469783 593
14.3399997465312 572
14.3599997460842 625
14.3799997456372 607
14.3999997451901 630
14.4199997447431 579
14.4399997442961 594
14.459999743849 591
14.479999743402 559
14.499999742955 596
14.5199997425079 610
14.5399997420609 585
14.5599997416139 608
14.5799997411668 615
14.5999997407198 640
14.6199997402728 628
14.6399997398257 586
14.6599997393787 607
14.6799997389317 589
14.6999997384846 668
14.7199997380376 551
14.7399997375906 677
14.7599997371435 620
14.7799997366965 646
14.7999997362494 600
14.8199997358024 592
14.8399997353554 569
14.8599997349083 628
14.8799997344613 656
14.8999997340143 675
14.9199997335672 640
14.9399997331202 619
14.9599997326732 665
14.9799997322261 641
14.9999997317791 654
15.0199997313321 638
15.039999730885 634
15.059999730438 671
15.079999729991 652
15.0999997295439 646
15.1199997290969 651
15.1399997286499 599
15.1599997282028 675
15.1799997277558 643
15.1999997273088 627
15.2199997268617 630
15.2399997264147 642
15.2599997259676 650
15.2799997255206 654
15.2999997250736 684
15.3199997246265 617
15.3399997241795 666
15.3599997237325 624
15.3799997232854 647
15.3999997228384 652
15.4199997223914 655
15.4399997219443 643
15.4599997214973 710
15.4799997210503 673
15.4999997206032 670
15.5199997201562 646
15.5399997197092 654
15.5599997192621 666
15.5799997188151 669
15.5999997183681 705
15.619999717921 692
15.639999717474 663
15.659999717027 656
15.6799997165799 665
15.6999997161329 684
15.7199997156858 646
15.7399997152388 695
15.7599997147918 684
15.7799997143447 707
15.7999997138977 672
15.8199997134507 689
15.8399997130036 663
15.8599997125566 673
15.8799997121096 695
15.8999997116625 664
15.9199997112155 686
15.9399997107685 670
15.9599997103214 733
15.9799997098744 728
15.9999997094274 683
16.0199997089803 697
16.0399997085333 692
16.0599997080863 711
16.0799997076392 773
16.0999997071922 699
16.1199997067451 705
16.1399997062981 723
16.1599997058511 708
16.179999705404 736
16.199999704957 730
16.21999970451 803
16.2399997040629 725
16.2599997036159 728
16.2799997031689 721
16.2999997027218 794
16.3199997022748 732
16.3399997018278 716
16.3599997013807 727
16.3799997009337 771
16.3999997004867 762
16.4199997000396 731
16.4399996995926 819
16.4599996991456 760
16.4799996986985 745
16.4999996982515 751
16.5199996978045 731
16.5399996973574 779
16.5599996969104 795
16.5799996964633 697
16.5999996960163 812
16.6199996955693 740
16.6399996951222 779
16.6599996946752 771
16.6799996942282 764
16.6999996937811 760
16.7199996933341 797
16.7399996928871 790
16.75999969244 753
16.779999691993 789
16.799999691546 751
16.8199996910989 796
16.8399996906519 778
16.8599996902049 804
16.8799996897578 787
16.8999996893108 802
16.9199996888638 776
16.9399996884167 764
16.9599996879697 778
16.9799996875226 793
16.9999996870756 770
17.0199996866286 800
17.0399996861815 838
17.0599996857345 801
17.0799996852875 798
17.0999996848404 843
17.1199996843934 820
17.1399996839464 781
17.1599996834993 816
17.1799996830523 793
17.1999996826053 859
17.2199996821582 813
17.2399996817112 824
17.2599996812642 842
17.2799996808171 780
17.2999996803701 842
17.3199996799231 859
17.339999679476 833
17.359999679029 874
17.379999678582 851
17.3999996781349 832
17.4199996776879 884
17.4399996772408 851
17.4599996767938 869
17.4799996763468 864
17.4999996758997 891
17.5199996754527 884
17.5399996750057 863
17.5599996745586 851
17.5799996741116 858
17.5999996736646 866
17.6199996732175 832
17.6399996727705 854
17.6599996723235 894
17.6799996718764 829
17.6999996714294 878
17.7199996709824 907
17.7399996705353 841
17.7599996700883 860
17.7799996696413 861
17.7999996691942 860
17.8199996687472 926
17.8399996683002 943
17.8599996678531 867
17.8799996674061 948
17.899999666959 844
17.919999666512 895
17.939999666065 877
17.9599996656179 944
17.9799996651709 871
17.9999996647239 885
18.0199996642768 931
18.0399996638298 944
18.0599996633828 917
18.0799996629357 922
18.0999996624887 945
18.1199996620417 875
18.1399996615946 903
18.1599996611476 924
18.1799996607006 943
18.1999996602535 909
18.2199996598065 956
18.2399996593595 952
18.2599996589124 869
18.2799996584654 910
18.2999996580184 975
18.3199996575713 900
18.3399996571243 911
18.3599996566772 913
18.3799996562302 968
18.3999996557832 1051
18.4199996553361 1019
18.4399996548891 962
18.4599996544421 925
18.479999653995 930
18.499999653548 965
18.519999653101 978
18.5399996526539 927
18.5599996522069 930
18.5799996517599 938
18.5999996513128 981
18.6199996508658 971
18.6399996504188 997
18.6599996499717 955
18.6799996495247 983
18.6999996490777 982
18.7199996486306 974
18.7399996481836 991
18.7599996477366 982
18.7799996472895 989
18.7999996468425 931
18.8199996463954 970
18.8399996459484 962
18.8599996455014 989
18.8799996450543 969
18.8999996446073 995
18.9199996441603 973
18.9399996437132 958
18.9599996432662 1016
18.9799996428192 1019
18.9999996423721 1044
19.0199996419251 994
19.0399996414781 1034
19.059999641031 996
19.079999640584 981
19.099999640137 995
19.1199996396899 1039
19.1399996392429 987
19.1599996387959 988
19.1799996383488 977
19.1999996379018 1006
19.2199996374547 997
19.2399996370077 994
19.2599996365607 1038
19.2799996361136 1018
19.2999996356666 1044
19.3199996352196 1074
19.3399996347725 999
19.3599996343255 1052
19.3799996338785 1009
19.3999996334314 1060
19.4199996329844 1055
19.4399996325374 1086
19.4599996320903 1065
19.4799996316433 1035
19.4999996311963 998
19.5199996307492 1039
19.5399996303022 1032
19.5599996298552 1041
19.5799996294081 1089
19.5999996289611 1048
19.6199996285141 1070
19.639999628067 1089
19.65999962762 1071
19.6799996271729 1025
19.6999996267259 1038
19.7199996262789 1083
19.7399996258318 1044
19.7599996253848 1041
19.7799996249378 1082
19.7999996244907 1060
19.8199996240437 1083
19.8399996235967 1079
19.8599996231496 1027
19.8799996227026 1056
19.8999996222556 1072
19.9199996218085 1052
19.9399996213615 1052
19.9599996209145 1063
19.9799996204674 1057
19.9999996200204 1092
