3 2139
3.01999999955297 1909
3.03999999910593 1792
3.0599999986589 1654
3.07999999821186 1653
3.09999999776483 1607
3.11999999731779 1587
3.13999999687076 1560
3.15999999642372 1506
3.17999999597669 1473
3.19999999552965 1437
3.21999999508262 1455
3.23999999463558 1464
3.25999999418855 1408
3.27999999374151 1394
3.29999999329448 1323
3.31999999284744 1344
3.33999999240041 1335
3.35999999195337 1278
3.37999999150634 1255
3.3999999910593 1269
3.41999999061227 1230
3.43999999016523 1258
3.4599999897182 1244
3.47999998927116 1201
3.49999998882413 1212
3.51999998837709 1221
3.53999998793006 1199
3.55999998748302 1159
3.57999998703599 1194
3.59999998658895 1227
3.61999998614192 1096
3.63999998569489 1156
3.65999998524785 1082
3.67999998480082 1161
3.69999998435378 1101
3.71999998390675 1122
3.73999998345971 1111
3.75999998301268 1069
3.77999998256564 1091
3.79999998211861 1077
3.81999998167157 1030
3.83999998122454 1029
3.8599999807775 997
3.87999998033047 1054
3.89999997988343 1035
3.9199999794364 965
3.93999997898936 968
3.95999997854233 1021
3.97999997809529 982
3.99999997764826 983
4.01999997720122 1002
4.03999997675419 940
4.05999997630715 885
4.07999997586012 889
4.09999997541308 911
4.11999997496605 900
4.13999997451901 933
4.15999997407198 915
4.17999997362494 921
4.19999997317791 955
4.21999997273087 914
4.23999997228384 857
4.25999997183681 867
4.27999997138977 908
4.29999997094274 892
4.3199999704957 825
4.33999997004867 812
4.35999996960163 857
4.3799999691546 800
4.39999996870756 789
4.41999996826053 807
4.43999996781349 847
4.45999996736646 828
4.47999996691942 832
4.49999996647239 879
4.51999996602535 804
4.53999996557832 837
4.55999996513128 821
4.57999996468425 756
4.59999996423721 734
4.61999996379018 782
4.63999996334314 733
4.65999996289611 729
4.67999996244907 739
4.69999996200204 780
4.719999961555 708
4.73999996110797 766
4.75999996066093 745
4.7799999602139 713
4.79999995976686 748
4.81999995931983 738
4.83999995887279 729
4.85999995842576 774
4.87999995797873 704
4.89999995753169 741
4.91999995708466 723
4.93999995663762 744
4.95999995619059 750
4.97999995574355 703
4.99999995529652 708
5.01999995484948 746
5.03999995440245 695
5.05999995395541 718
5.07999995350838 655
5.09999995306134 659
5.11999995261431 646
5.13999995216727 678
5.15999995172024 703
5.1799999512732 657
5.19999995082617 653
5.21999995037913 652
5.2399999499321 699
5.25999994948506 674
5.27999994903803 667
5.29999994859099 667
5.31999994814396 676
5.33999994769692 669
5.35999994724989 643
5.37999994680285 645
5.39999994635582 653
5.41999994590878 628
5.43999994546175 691
5.45999994501471 649
5.47999994456768 646
5.49999994412065 652
5.51999994367361 676
5.53999994322658 612
5.55999994277954 677
5.57999994233251 625
5.59999994188547 669
5.61999994143844 695
5.6399999409914 645
5.65999994054437 629
5.67999994009733 621
5.6999999396503 666
5.71999993920326 626
5.73999993875623 584
5.75999993830919 678
5.77999993786216 626
5.79999993741512 642
5.81999993696809 631
5.83999993652105 632
5.85999993607402 681
5.87999993562698 636
5.89999993517995 596
5.91999993473291 623
5.93999993428588 610
5.95999993383884 645
5.97999993339181 652
5.99999993294477 622
6.01999993249774 618
6.0399999320507 701
6.05999993160367 613
6.07999993115663 641
6.0999999307096 661
6.11999993026257 634
6.13999992981553 688
6.1599999293685 641
6.17999992892146 661
6.19999992847443 680
6.21999992802739 650
6.23999992758036 622
6.25999992713332 687
6.27999992668629 655
6.29999992623925 659
6.31999992579222 669
6.33999992534518 652
6.35999992489815 672
6.37999992445111 652
6.39999992400408 627
6.41999992355704 679
6.43999992311001 656
6.45999992266297 630
6.47999992221594 617
6.4999999217689 666
6.51999992132187 631
6.53999992087483 641
6.5599999204278 642
6.57999991998076 654
6.59999991953373 648
6.61999991908669 663
6.63999991863966 671
6.65999991819262 680
6.67999991774559 657
6.69999991729855 664
6.71999991685152 646
6.73999991640449 649
6.75999991595745 661
6.77999991551042 659
6.79999991506338 652
6.81999991461635 652
6.83999991416931 662
6.85999991372228 631
6.87999991327524 666
6.89999991282821 614
6.91999991238117 637
6.93999991193414 614
6.9599999114871 656
6.97999991104007 624
6.99999991059303 650
7.019999910146 653
7.03999990969896 645
7.05999990925193 617
7.07999990880489 644
7.09999990835786 685
7.11999990791082 637
7.13999990746379 637
7.15999990701675 598
7.17999990656972 647
7.19999990612268 654
7.21999990567565 620
7.23999990522861 677
7.25999990478158 648
7.27999990433454 622
7.29999990388751 634
7.31999990344047 623
7.33999990299344 648
7.35999990254641 624
7.37999990209937 629
7.39999990165234 586
7.4199999012053 638
7.43999990075827 613
7.45999990031123 637
7.4799998998642 617
7.49999989941716 647
7.51999989897013 625
7.53999989852309 547
7.55999989807606 592
7.57999989762902 629
7.59999989718199 629
7.61999989673495 637
7.63999989628792 596
7.65999989584088 610
7.67999989539385 603
7.69999989494681 577
7.71999989449978 636
7.73999989405274 647
7.75999989360571 625
7.77999989315867 608
7.79999989271164 618
7.8199998922646 626
7.83999989181757 605
7.85999989137053 631
7.8799998909235 648
7.89999989047646 617
7.91999989002943 632
7.9399998895824 604
7.95999988913536 618
7.97999988868833 641
7.99999988824129 642
8.01999988779426 627
8.03999988734722 578
8.05999988690019 638
8.07999988645315 596
8.09999988600612 593
8.11999988555908 660
8.13999988511205 664
8.15999988466501 622
8.17999988421798 611
8.19999988377094 617
8.21999988332391 617
8.23999988287687 644
8.25999988242984 645
8.2799998819828 639
8.29999988153577 617
8.31999988108873 648
8.3399998806417 590
8.35999988019466 641
8.37999987974763 650
8.39999987930059 651
8.41999987885356 633
8.43999987840652 645
8.45999987795949 575
8.47999987751245 616
8.49999987706542 638
8.51999987661839 639
8.53999987617135 680
8.55999987572432 638
8.57999987527728 637
8.59999987483025 684
8.61999987438321 672
8.63999987393618 666
8.65999987348914 640
8.67999987304211 743
8.69999987259507 695
8.71999987214804 697
8.739999871701 741
8.75999987125397 703
8.77999987080693 743
8.7999998703599 821
8.81999986991286 809
8.83999986946583 870
8.85999986901879 854
8.87999986857176 870
8.89999986812472 928
8.91999986767769 935
8.93999986723065 1085
8.95999986678362 1204
8.97999986633658 1320
8.99999986588955 1442
9.01999986544251 1610
9.03999986499548 1523
9.05999986454844 1465
9.07999986410141 1246
9.09999986365438 1139
9.11999986320734 1011
9.13999986276031 955
9.15999986231327 913
9.17999986186624 807
9.1999998614192 769
9.21999986097217 736
9.23999986052513 731
9.2599998600781 673
9.27999985963106 674
9.29999985918403 737
9.31999985873699 677
9.33999985828996 678
9.35999985784292 629
9.37999985739589 660
9.39999985694885 663
9.41999985650182 650
9.43999985605478 648
9.45999985560775 696
9.47999985516071 644
9.49999985471368 630
9.51999985426664 650
9.53999985381961 644
9.55999985337257 629
9.57999985292554 628
9.5999998524785 620
9.61999985203147 651
9.63999985158443 659
9.6599998511374 656
9.67999985069037 628
9.69999985024333 691
9.7199998497963 687
9.73999984934926 618
9.75999984890223 714
9.77999984845519 685
9.79999984800816 748
9.81999984756112 738
9.83999984711409 765
9.85999984666705 698
9.87999984622002 740
9.89999984577298 752
9.91999984532595 763
9.93999984487891 788
9.95999984443188 755
9.97999984398484 793
9.99999984353781 740
10.0199998430908 726
10.0399998426437 741
10.0599998421967 676
10.0799998417497 678
10.0999998413026 689
10.1199998408556 685
10.1399998404086 639
10.1599998399615 617
10.1799998395145 733
10.1999998390675 645
10.2199998386204 613
10.2399998381734 649
10.2599998377264 627
10.2799998372793 619
10.2999998368323 602
10.3199998363853 616
10.3399998359382 627
10.3599998354912 627
10.3799998350441 611
10.3999998345971 610
10.4199998341501 583
10.439999833703 659
10.459999833256 577
10.479999832809 568
10.4999998323619 619
10.5199998319149 580
10.5399998314679 557
10.5599998310208 671
10.5799998305738 584
10.5999998301268 644
10.6199998296797 633
10.6399998292327 557
10.6599998287857 601
10.6799998283386 577
10.6999998278916 585
10.7199998274446 613
10.7399998269975 657
10.7599998265505 547
10.7799998261034 563
10.7999998256564 660
10.8199998252094 603
10.8399998247623 568
10.8599998243153 605
10.8799998238683 607
10.8999998234212 609
10.9199998229742 593
10.9399998225272 601
10.9599998220801 643
10.9799998216331 592
10.9999998211861 608
11.019999820739 590
11.039999820292 601
11.059999819845 613
11.0799998193979 624
11.0999998189509 592
11.1199998185039 575
11.1399998180568 567
11.1599998176098 585
11.1799998171628 556
11.1999998167157 614
11.2199998162687 603
11.2399998158216 539
11.2599998153746 538
11.2799998149276 589
11.2999998144805 594
11.3199998140335 583
11.3399998135865 563
11.3599998131394 589
11.3799998126924 577
11.3999998122454 613
11.4199998117983 545
11.4399998113513 569
11.4599998109043 550
11.4799998104572 593
11.4999998100102 625
11.5199998095632 589
11.5399998091161 568
11.5599998086691 567
11.5799998082221 578
11.599999807775 622
11.619999807328 582
11.639999806881 530
11.6599998064339 577
11.6799998059869 599
11.6999998055398 544
11.7199998050928 613
11.7399998046458 599
11.7599998041987 612
11.7799998037517 558
11.7999998033047 597
11.8199998028576 592
11.8399998024106 575
11.8599998019636 571
11.8799998015165 621
11.8999998010695 582
11.9199998006225 543
11.9399998001754 579
11.9599997997284 559
11.9799997992814 609
11.9999997988343 606
12.0199997983873 590
12.0399997979403 557
12.0599997974932 568
12.0799997970462 605
12.0999997965992 550
12.1199997961521 573
12.1399997957051 561
12.159999795258 565
12.179999794811 557
12.199999794364 561
12.2199997939169 604
12.2399997934699 605
12.2599997930229 602
12.2799997925758 581
12.2999997921288 558
12.3199997916818 591
12.3399997912347 578
12.3599997907877 563
12.3799997903407 599
12.3999997898936 603
12.4199997894466 609
12.4399997889996 575
12.4599997885525 590
12.4799997881055 647
12.4999997876585 606
12.5199997872114 614
12.5399997867644 595
12.5599997863173 653
12.5799997858703 636
12.5999997854233 643
12.6199997849762 650
12.6399997845292 655
12.6599997840822 636
12.6799997836351 692
12.6999997831881 677
12.7199997827411 639
12.739999782294 576
12.759999781847 614
12.7799997814 596
12.7999997809529 623
12.8199997805059 618
12.8399997800589 636
12.8599997796118 618
12.8799997791648 596
12.8999997787178 607
12.9199997782707 613
12.9399997778237 642
12.9599997773767 608
12.9799997769296 628
12.9999997764826 583
13.0199997760355 638
13.0399997755885 537
13.0599997751415 595
13.0799997746944 569
13.0999997742474 601
13.1199997738004 605
13.1399997733533 608
13.1599997729063 636
13.1799997724593 627
13.1999997720122 628
13.2199997715652 606
13.2399997711182 626
13.2599997706711 616
13.2799997702241 637
13.2999997697771 663
13.31999976933 656
13.339999768883 606
13.359999768436 624
13.3799997679889 601
13.3999997675419 624
13.4199997670949 613
13.4399997666478 601
13.4599997662008 642
13.4799997657537 617
13.4999997653067 652
13.5199997648597 609
13.5399997644126 632
13.5599997639656 585
13.5799997635186 592
13.5999997630715 610
13.6199997626245 604
13.6399997621775 588
13.6599997617304 637
13.6799997612834 624
13.6999997608364 640
13.7199997603893 637
13.7399997599423 586
13.7599997594953 632
13.7799997590482 653
13.7999997586012 626
13.8199997581542 628
13.8399997577071 606
13.8599997572601 635
13.879999756813 592
13.899999756366 625
13.919999755919 637
13.9399997554719 611
13.9599997550249 616
13.9799997545779 641
13.9999997541308 614
14.0199997536838 572
14.0399997532368 644
14.0599997527897 606
14.0799997523427 615
14.0999997518957 641
14.1199997514486 634
14.1399997510016 626
14.1599997505546 653
14.1799997501075 636
14.1999997496605 636
14.2199997492135 598
14.2399997487664 633
14.2599997483194 614
14.2799997478724 649
14.2999997474253 630
14.3199997469783 635
14.3399997465312 651
14.3599997460842 651
14.3799997456372 669
14.3999997451901 627
14.4199997447431 652
14.4399997442961 650
14.459999743849 646
14.479999743402 674
14.499999742955 668
14.5199997425079 640
14.5399997420609 619
14.5599997416139 659
14.5799997411668 662
14.5999997407198 653
14.6199997402728 665
14.6399997398257 700
14.6599997393787 632
14.6799997389317 672
14.6999997384846 692
14.7199997380376 610
14.7399997375906 649
14.7599997371435 642
14.7799997366965 639
14.7999997362494 673
14.8199997358024 629
14.8399997353554 616
14.8599997349083 673
14.8799997344613 686
14.8999997340143 666
14.9199997335672 659
14.9399997331202 631
14.9599997326732 652
14.9799997322261 683
14.9999997317791 687
15.0199997313321 629
15.039999730885 661
15.059999730438 669
15.079999729991 655
15.0999997295439 651
15.1199997290969 693
15.1399997286499 662
15.1599997282028 662
15.1799997277558 687
15.1999997273088 700
15.2199997268617 707
15.2399997264147 686
15.2599997259676 686
15.2799997255206 729
15.2999997250736 698
15.3199997246265 672
15.3399997241795 734
15.3599997237325 688
15.3799997232854 662
15.3999997228384 689
15.4199997223914 725
15.4399997219443 688
15.4599997214973 708
15.4799997210503 723
15.4999997206032 710
15.5199997201562 719
15.5399997197092 693
15.5599997192621 664
15.5799997188151 710
15.5999997183681 690
15.619999717921 742
15.639999717474 698
15.659999717027 676
15.6799997165799 720
15.6999997161329 716
15.7199997156858 703
15.7399997152388 744
15.7599997147918 741
15.7799997143447 688
15.7999997138977 703
15.8199997134507 749
15.8399997130036 786
15.8599997125566 714
15.8799997121096 778
15.8999997116625 708
15.9199997112155 729
15.9399997107685 700
15.9599997103214 753
15.9799997098744 743
15.9999997094274 748
16.0199997089803 677
16.0399997085333 766
16.0599997080863 742
16.0799997076392 763
16.0999997071922 726
16.1199997067451 711
16.1399997062981 705
16.1599997058511 741
16.179999705404 773
16.199999704957 747
16.21999970451 765
16.2399997040629 811
16.2599997036159 755
16.2799997031689 782
16.2999997027218 706
16.3199997022748 807
16.3399997018278 780
16.3599997013807 803
16.3799997009337 746
16.3999997004867 781
16.4199997000396 775
16.4399996995926 791
16.4599996991456 818
16.4799996986985 802
16.4999996982515 769
16.5199996978045 805
16.5399996973574 820
16.5599996969104 807
16.5799996964633 808
16.5999996960163 848
16.6199996955693 798
16.6399996951222 784
16.6599996946752 852
16.6799996942282 814
16.6999996937811 824
16.7199996933341 851
16.7399996928871 870
16.75999969244 901
16.779999691993 932
16.799999691546 909
16.8199996910989 924
16.8399996906519 970
16.8599996902049 1023
16.8799996897578 1108
16.8999996893108 1228
16.9199996888638 1221
16.9399996884167 1259
16.9599996879697 1357
16.9799996875226 1300
16.9999996870756 1345
17.0199996866286 1283
17.0399996861815 1179
17.0599996857345 1118
17.0799996852875 1071
17.0999996848404 1045
17.1199996843934 1006
17.1399996839464 965
17.1599996834993 946
17.1799996830523 877
17.1999996826053 903
17.2199996821582 904
17.2399996817112 880
17.2599996812642 894
17.2799996808171 882
17.2999996803701 920
17.3199996799231 889
17.339999679476 898
17.359999679029 889
17.379999678582 903
17.3999996781349 870
17.4199996776879 855
17.4399996772408 871
17.4599996767938 885
17.4799996763468 903
17.4999996758997 843
17.5199996754527 861
17.5399996750057 883
17.5599996745586 858
17.5799996741116 889
17.5999996736646 917
17.6199996732175 964
17.6399996727705 936
17.6599996723235 923
17.6799996718764 916
17.6999996714294 956
17.7199996709824 985
17.7399996705353 899
17.7599996700883 930
17.7799996696413 876
17.7999996691942 941
17.8199996687472 906
17.8399996683002 910
17.8599996678531 946
17.8799996674061 959
17.899999666959 978
17.919999666512 914
17.939999666065 977
17.9599996656179 942
17.9799996651709 904
17.9999996647239 944
18.0199996642768 981
18.0399996638298 960
18.0599996633828 942
18.0799996629357 965
18.0999996624887 920
18.1199996620417 999
18.1399996615946 1002
18.1599996611476 957
18.1799996607006 955
18.1999996602535 951
18.2199996598065 969
18.2399996593595 1016
18.2599996589124 984
18.2799996584654 1015
18.2999996580184 1005
18.3199996575713 999
18.3399996571243 1001
18.3599996566772 988
18.3799996562302 1033
18.3999996557832 1049
18.4199996553361 984
18.4399996548891 953
18.4599996544421 1044
18.479999653995 1045
18.499999653548 1005
18.519999653101 997
18.5399996526539 1019
18.5599996522069 985
18.5799996517599 1054
18.5999996513128 1008
18.6199996508658 1026
18.6399996504188 1031
18.6599996499717 1032
18.6799996495247 1020
18.6999996490777 1013
18.7199996486306 1033
18.7399996481836 1076
18.7599996477366 1089
18.7799996472895 1060
18.7999996468425 1018
18.8199996463954 1088
18.8399996459484 1062
18.8599996455014 1097
18.8799996450543 1059
18.8999996446073 1077
18.9199996441603 1064
18.9399996437132 1075
18.9599996432662 1029
18.9799996428192 1046
18.9999996423721 1082
19.0199996419251 1085
19.0399996414781 1087
19.059999641031 1101
19.079999640584 1159
19.099999640137 1092
19.1199996396899 1052
19.1399996392429 988
19.1599996387959 1118
19.1799996383488 1051
19.1999996379018 1099
19.2199996374547 1127
19.2399996370077 1078
19.2599996365607 1106
19.2799996361136 1111
19.2999996356666 1160
19.3199996352196 1070
19.3399996347725 1135
19.3599996343255 1138
19.3799996338785 1079
19.3999996334314 1133
19.4199996329844 1105
19.4399996325374 1184
19.4599996320903 1113
19.4799996316433 1091
19.4999996311963 1160
19.5199996307492 1153
19.5399996303022 1175
19.5599996298552 1155
19.5799996294081 1174
19.5999996289611 1191
19.6199996285141 1173
19.639999628067 1178
19.65999962762 1188
19.6799996271729 1189
19.6999996267259 1212
19.7199996262789 1206
19.7399996258318 1175
19.7599996253848 1218
19.7799996249378 1191
19.7999996244907 1184
19.8199996240437 1192
19.8399996235967 1208
19.8599996231496 1213
19.8799996227026 1176
19.8999996222556 1232
19.9199996218085 1156
19.9399996213615 1206
19.9599996209145 1255
19.9799996204674 1214
19.9999996200204 1204
