3 2112
3.01999999955297 1945
3.03999999910593 1815
3.0599999986589 1686
3.07999999821186 1658
3.09999999776483 1588
3.11999999731779 1546
3.13999999687076 1549
3.15999999642372 1454
3.17999999597669 1491
3.19999999552965 1403
3.21999999508262 1467
3.23999999463558 1406
3.25999999418855 1453
3.27999999374151 1400
3.29999999329448 1389
3.31999999284744 1420
3.33999999240041 1368
3.35999999195337 1361
3.37999999150634 1345
3.3999999910593 1296
3.41999999061227 1281
3.43999999016523 1366
3.4599999897182 1292
3.47999998927116 1266
3.49999998882413 1236
3.51999998837709 1266
3.53999998793006 1260
3.55999998748302 1252
3.57999998703599 1268
3.59999998658895 1233
3.61999998614192 1260
3.63999998569489 1203
3.65999998524785 1275
3.67999998480082 1167
3.69999998435378 1186
3.71999998390675 1192
3.73999998345971 1247
3.75999998301268 1177
3.77999998256564 1177
3.79999998211861 1178
3.81999998167157 1140
3.83999998122454 1150
3.8599999807775 1129
3.87999998033047 1165
3.89999997988343 1113
3.9199999794364 1181
3.93999997898936 1146
3.95999997854233 1142
3.97999997809529 1146
3.99999997764826 1156
4.01999997720122 1136
4.03999997675419 1134
4.05999997630715 1173
4.07999997586012 1118
4.09999997541308 1169
4.11999997496605 1096
4.13999997451901 1085
4.15999997407198 1167
4.17999997362494 1056
4.19999997317791 1113
4.21999997273087 1108
4.23999997228384 1118
4.25999997183681 1075
4.27999997138977 1137
4.29999997094274 1040
4.3199999704957 1091
4.33999997004867 1117
4.35999996960163 1070
4.3799999691546 1077
4.39999996870756 1117
4.41999996826053 1084
4.43999996781349 1075
4.45999996736646 1026
4.47999996691942 1075
4.49999996647239 1103
4.51999996602535 1080
4.53999996557832 1070
4.55999996513128 1076
4.57999996468425 1095
4.59999996423721 1116
4.61999996379018 1116
4.63999996334314 1060
4.65999996289611 1070
4.67999996244907 1078
4.69999996200204 1027
4.719999961555 1071
4.73999996110797 1041
4.75999996066093 1080
4.7799999602139 1068
4.79999995976686 1125
4.81999995931983 1052
4.83999995887279 1074
4.85999995842576 1105
4.87999995797873 1169
4.89999995753169 1061
4.91999995708466 1091
4.93999995663762 1116
4.95999995619059 1136
4.97999995574355 1156
4.99999995529652 1132
5.01999995484948 1141
5.03999995440245 1194
5.05999995395541 1104
5.07999995350838 1108
5.09999995306134 1171
5.11999995261431 1203
5.13999995216727 1147
5.15999995172024 1175
5.1799999512732 1082
5.19999995082617 1175
5.21999995037913 1178
5.2399999499321 1174
5.25999994948506 1183
5.27999994903803 1234
5.29999994859099 1186
5.31999994814396 1185
5.33999994769692 1213
5.35999994724989 1161
5.37999994680285 1178
5.39999994635582 1178
5.41999994590878 1155
5.43999994546175 1210
5.45999994501471 1194
5.47999994456768 1194
5.49999994412065 1180
5.51999994367361 1219
5.53999994322658 1227
5.55999994277954 1221
5.57999994233251 1164
5.59999994188547 1222
5.61999994143844 1190
5.6399999409914 1139
5.65999994054437 1188
5.67999994009733 1167
5.6999999396503 1195
5.71999993920326 1214
5.73999993875623 1095
5.75999993830919 1115
5.77999993786216 1153
5.79999993741512 1186
5.81999993696809 1120
5.83999993652105 1159
5.85999993607402 1084
5.87999993562698 1105
5.89999993517995 1064
5.91999993473291 1032
5.93999993428588 1098
5.95999993383884 1039
5.97999993339181 1023
5.99999993294477 1039
6.01999993249774 964
6.0399999320507 1024
6.05999993160367 972
6.07999993115663 926
6.0999999307096 991
6.11999993026257 973
6.13999992981553 935
6.1599999293685 943
6.17999992892146 925
6.19999992847443 929
6.21999992802739 900
6.23999992758036 989
6.25999992713332 847
6.27999992668629 954
6.29999992623925 946
6.31999992579222 870
6.33999992534518 912
6.35999992489815 910
6.37999992445111 929
6.39999992400408 851
6.41999992355704 876
6.43999992311001 894
6.45999992266297 856
6.47999992221594 859
6.4999999217689 889
6.51999992132187 879
6.53999992087483 855
6.5599999204278 811
6.57999991998076 804
6.59999991953373 820
6.61999991908669 805
6.63999991863966 844
6.65999991819262 814
6.67999991774559 781
6.69999991729855 784
6.71999991685152 756
6.73999991640449 888
6.75999991595745 786
6.77999991551042 775
6.79999991506338 788
6.81999991461635 778
6.83999991416931 764
6.85999991372228 817
6.87999991327524 765
6.89999991282821 735
6.91999991238117 727
6.93999991193414 736
6.9599999114871 708
6.97999991104007 775
6.99999991059303 758
7.019999910146 705
7.03999990969896 759
7.05999990925193 720
7.07999990880489 691
7.09999990835786 715
7.11999990791082 720
7.13999990746379 705
7.15999990701675 645
7.17999990656972 691
7.19999990612268 743
7.21999990567565 755
7.23999990522861 740
7.25999990478158 703
7.27999990433454 704
7.29999990388751 699
7.31999990344047 721
7.33999990299344 705
7.35999990254641 701
7.37999990209937 706
7.39999990165234 708
7.4199999012053 724
7.43999990075827 760
7.45999990031123 703
7.4799998998642 691
7.49999989941716 694
7.51999989897013 626
7.53999989852309 663
7.55999989807606 693
7.57999989762902 710
7.59999989718199 690
7.61999989673495 676
7.63999989628792 718
7.65999989584088 673
7.67999989539385 685
7.69999989494681 720
7.71999989449978 709
7.73999989405274 723
7.75999989360571 662
7.77999989315867 634
7.79999989271164 670
7.8199998922646 658
7.83999989181757 714
7.85999989137053 669
7.8799998909235 696
7.89999989047646 642
7.91999989002943 645
7.9399998895824 632
7.95999988913536 679
7.97999988868833 636
7.99999988824129 653
8.01999988779426 677
8.03999988734722 683
8.05999988690019 649
8.07999988645315 638
8.09999988600612 622
8.11999988555908 658
8.13999988511205 659
8.15999988466501 684
8.17999988421798 722
8.19999988377094 653
8.21999988332391 631
8.23999988287687 638
8.25999988242984 656
8.2799998819828 607
8.29999988153577 693
8.31999988108873 673
8.3399998806417 678
8.35999988019466 686
8.37999987974763 693
8.39999987930059 660
8.41999987885356 703
8.43999987840652 680
8.45999987795949 621
8.47999987751245 634
8.49999987706542 623
8.51999987661839 625
8.53999987617135 626
8.55999987572432 654
8.57999987527728 673
8.59999987483025 635
8.61999987438321 656
8.63999987393618 646
8.65999987348914 674
8.67999987304211 635
8.69999987259507 671
8.71999987214804 670
8.739999871701 708
8.75999987125397 677
8.77999987080693 648
8.7999998703599 717
8.81999986991286 676
8.83999986946583 671
8.85999986901879 718
8.87999986857176 686
8.89999986812472 727
8.91999986767769 733
8.93999986723065 769
8.95999986678362 743
8.97999986633658 757
8.99999986588955 807
9.01999986544251 843
9.03999986499548 918
9.05999986454844 913
9.07999986410141 841
9.09999986365438 772
9.11999986320734 747
9.13999986276031 798
9.15999986231327 738
9.17999986186624 756
9.1999998614192 739
9.21999986097217 756
9.23999986052513 726
9.2599998600781 759
9.27999985963106 752
9.29999985918403 698
9.31999985873699 693
9.33999985828996 706
9.35999985784292 701
9.37999985739589 692
9.39999985694885 681
9.41999985650182 715
9.43999985605478 671
9.45999985560775 697
9.47999985516071 624
9.49999985471368 716
9.51999985426664 720
9.53999985381961 699
9.55999985337257 642
9.57999985292554 670
9.5999998524785 669
9.61999985203147 700
9.63999985158443 667
9.6599998511374 651
9.67999985069037 682
9.69999985024333 692
9.7199998497963 631
9.73999984934926 642
9.75999984890223 692
9.77999984845519 656
9.79999984800816 634
9.81999984756112 689
9.83999984711409 685
9.85999984666705 680
9.87999984622002 627
9.89999984577298 662
9.91999984532595 705
9.93999984487891 626
9.95999984443188 681
9.97999984398484 649
9.99999984353781 638
10.0199998430908 652
10.0399998426437 628
10.0599998421967 635
10.0799998417497 678
10.0999998413026 660
10.1199998408556 662
10.1399998404086 678
10.1599998399615 652
10.1799998395145 670
10.1999998390675 646
10.2199998386204 631
10.2399998381734 626
10.2599998377264 663
10.2799998372793 631
10.2999998368323 660
10.3199998363853 637
10.3399998359382 651
10.3599998354912 654
10.3799998350441 677
10.3999998345971 678
10.4199998341501 670
10.439999833703 670
10.459999833256 624
10.479999832809 668
10.4999998323619 625
10.5199998319149 640
10.5399998314679 665
10.5599998310208 653
10.5799998305738 635
10.5999998301268 674
10.6199998296797 676
10.6399998292327 682
10.6599998287857 671
10.6799998283386 707
10.6999998278916 695
10.7199998274446 669
10.7399998269975 658
10.7599998265505 614
10.7799998261034 710
10.7999998256564 654
10.8199998252094 633
10.8399998247623 647
10.8599998243153 673
10.8799998238683 639
10.8999998234212 620
10.9199998229742 612
10.9399998225272 677
10.9599998220801 631
10.9799998216331 652
10.9999998211861 638
11.019999820739 653
11.039999820292 678
11.059999819845 646
11.0799998193979 623
11.0999998189509 652
11.1199998185039 655
11.1399998180568 650
11.1599998176098 663
11.1799998171628 598
11.1999998167157 659
11.2199998162687 637
11.2399998158216 649
11.2599998153746 613
11.2799998149276 642
11.2999998144805 648
11.3199998140335 635
11.3399998135865 651
11.3599998131394 621
11.3799998126924 631
11.3999998122454 620
11.4199998117983 644
11.4399998113513 642
11.4599998109043 613
11.4799998104572 630
11.4999998100102 617
11.5199998095632 687
11.5399998091161 615
11.5599998086691 632
11.5799998082221 606
11.599999807775 644
11.619999807328 663
11.639999806881 651
11.6599998064339 648
11.6799998059869 687
11.6999998055398 642
11.7199998050928 643
11.7399998046458 628
11.7599998041987 633
11.7799998037517 597
11.7999998033047 645
11.8199998028576 624
11.8399998024106 617
11.8599998019636 629
11.8799998015165 661
11.8999998010695 591
11.9199998006225 626
11.9399998001754 627
11.9599997997284 623
11.9799997992814 625
11.9999997988343 610
12.0199997983873 612
12.0399997979403 563
12.0599997974932 596
12.0799997970462 630
12.0999997965992 602
12.1199997961521 649
12.1399997957051 597
12.159999795258 621
12.179999794811 618
12.199999794364 625
12.2199997939169 630
12.2399997934699 595
12.2599997930229 628
12.2799997925758 611
12.2999997921288 626
12.3199997916818 612
12.3399997912347 630
12.3599997907877 665
12.3799997903407 637
12.3999997898936 614
12.4199997894466 623
12.4399997889996 588
12.4599997885525 634
12.4799997881055 631
12.4999997876585 631
12.5199997872114 615
12.5399997867644 572
12.5599997863173 590
12.5799997858703 634
12.5999997854233 627
12.6199997849762 667
12.6399997845292 647
12.6599997840822 590
12.6799997836351 648
12.6999997831881 622
12.7199997827411 645
12.739999782294 577
12.759999781847 573
12.7799997814 646
12.7999997809529 613
12.8199997805059 639
12.8399997800589 606
12.8599997796118 598
12.8799997791648 649
12.8999997787178 646
12.9199997782707 631
12.9399997778237 603
12.9599997773767 634
12.9799997769296 665
12.9999997764826 631
13.0199997760355 663
13.0399997755885 570
13.0599997751415 657
13.0799997746944 637
13.0999997742474 646
13.1199997738004 640
13.1399997733533 616
13.1599997729063 651
13.1799997724593 640
13.1999997720122 644
13.2199997715652 668
13.2399997711182 674
13.2599997706711 658
13.2799997702241 622
13.2999997697771 677
13.31999976933 652
13.339999768883 672
13.359999768436 651
13.3799997679889 702
13.3999997675419 678
13.4199997670949 656
13.4399997666478 633
13.4599997662008 654
13.4799997657537 630
13.4999997653067 634
13.5199997648597 651
13.5399997644126 653
13.5599997639656 643
13.5799997635186 646
13.5999997630715 653
13.6199997626245 669
13.6399997621775 705
13.6599997617304 685
13.6799997612834 694
13.6999997608364 676
13.7199997603893 661
13.7399997599423 685
13.7599997594953 696
13.7799997590482 662
13.7999997586012 674
13.8199997581542 702
13.8399997577071 680
13.8599997572601 717
13.879999756813 752
13.899999756366 694
13.919999755919 667
13.9399997554719 664
13.9599997550249 686
13.9799997545779 708
13.9999997541308 648
14.0199997536838 691
14.0399997532368 652
14.0599997527897 681
14.0799997523427 665
14.0999997518957 711
14.1199997514486 678
14.1399997510016 668
14.1599997505546 716
14.1799997501075 710
14.1999997496605 728
14.2199997492135 685
14.2399997487664 688
14.2599997483194 686
14.2799997478724 720
14.2999997474253 736
14.3199997469783 718
14.3399997465312 712
14.3599997460842 698
14.3799997456372 676
14.3999997451901 692
14.4199997447431 708
14.4399997442961 717
14.459999743849 740
14.479999743402 682
14.499999742955 736
14.5199997425079 698
14.5399997420609 697
14.5599997416139 710
14.5799997411668 698
14.5999997407198 769
14.6199997402728 742
14.6399997398257 701
14.6599997393787 787
14.6799997389317 767
14.6999997384846 717
14.7199997380376 733
14.7399997375906 702
14.7599997371435 731
14.7799997366965 734
14.7999997362494 780
14.8199997358024 728
14.8399997353554 733
14.8599997349083 731
14.8799997344613 711
14.8999997340143 730
14.9199997335672 746
14.9399997331202 769
14.9599997326732 748
14.9799997322261 709
14.9999997317791 750
15.0199997313321 715
15.039999730885 794
15.059999730438 752
15.079999729991 756
15.0999997295439 806
15.1199997290969 782
15.1399997286499 777
15.1599997282028 775
15.1799997277558 762
15.1999997273088 797
15.2199997268617 697
15.2399997264147 805
15.2599997259676 786
15.2799997255206 810
15.2999997250736 822
15.3199997246265 794
15.3399997241795 776
15.3599997237325 768
15.3799997232854 813
15.3999997228384 782
15.4199997223914 806
15.4399997219443 785
15.4599997214973 767
15.4799997210503 761
15.4999997206032 831
15.5199997201562 759
15.5399997197092 818
15.5599997192621 851
15.5799997188151 830
15.5999997183681 793
15.619999717921 808
15.639999717474 830
15.659999717027 811
15.6799997165799 784
15.6999997161329 744
15.7199997156858 833
15.7399997152388 823
15.7599997147918 796
15.7799997143447 782
15.7999997138977 734
15.8199997134507 796
15.8399997130036 869
15.8599997125566 838
15.8799997121096 829
15.8999997116625 853
15.9199997112155 820
15.9399997107685 834
15.9599997103214 801
15.9799997098744 845
15.9999997094274 807
16.0199997089803 852
16.0399997085333 812
16.0599997080863 845
16.0799997076392 816
16.0999997071922 872
16.1199997067451 882
16.1399997062981 803
16.1599997058511 819
16.179999705404 846
16.199999704957 895
16.21999970451 877
16.2399997040629 847
16.2599997036159 844
16.2799997031689 821
16.2999997027218 839
16.3199997022748 852
16.3399997018278 846
16.3599997013807 861
16.3799997009337 859
16.3999997004867 909
16.4199997000396 897
16.4399996995926 873
16.4599996991456 862
16.4799996986985 902
16.4999996982515 872
16.5199996978045 838
16.5399996973574 960
16.5599996969104 933
16.5799996964633 949
16.5999996960163 899
16.6199996955693 966
16.6399996951222 960
16.6599996946752 947
16.6799996942282 1019
16.6999996937811 930
16.7199996933341 936
16.7399996928871 964
16.75999969244 931
16.779999691993 1013
16.799999691546 962
16.8199996910989 1043
16.8399996906519 1107
16.8599996902049 1148
16.8799996897578 1127
16.8999996893108 1223
16.9199996888638 1299
16.9399996884167 1419
16.9599996879697 1580
16.9799996875226 1792
16.9999996870756 1929
17.0199996866286 2078
17.0399996861815 1956
17.0599996857345 1926
17.0799996852875 1835
17.0999996848404 1934
17.1199996843934 1961
17.1399996839464 2026
17.1599996834993 2002
17.1799996830523 1929
17.1999996826053 1676
17.2199996821582 1486
17.2399996817112 1337
17.2599996812642 1116
17.2799996808171 1078
17.2999996803701 1044
17.3199996799231 978
17.339999679476 975
17.359999679029 1034
17.379999678582 1053
17.3999996781349 1006
17.4199996776879 990
17.4399996772408 1040
17.4599996767938 963
17.4799996763468 1046
17.4999996758997 1033
17.5199996754527 1008
17.5399996750057 1072
17.5599996745586 1046
17.5799996741116 1067
17.5999996736646 1040
17.6199996732175 1014
17.6399996727705 1033
17.6599996723235 1075
17.6799996718764 1027
17.6999996714294 1094
17.7199996709824 1077
17.7399996705353 1036
17.7599996700883 1049
17.7799996696413 1013
17.7999996691942 1063
17.8199996687472 1093
17.8399996683002 1065
17.8599996678531 1062
17.8799996674061 1069
17.899999666959 1087
17.919999666512 1090
17.939999666065 1118
17.9599996656179 1196
17.9799996651709 1098
17.9999996647239 1132
18.0199996642768 1061
18.0399996638298 1132
18.0599996633828 1028
18.0799996629357 1105
18.0999996624887 1132
18.1199996620417 1147
18.1399996615946 1114
18.1599996611476 1137
18.1799996607006 1150
18.1999996602535 1120
18.2199996598065 1128
18.2399996593595 1101
18.2599996589124 1155
18.2799996584654 1163
18.2999996580184 1142
18.3199996575713 1132
18.3399996571243 1164
18.3599996566772 1147
18.3799996562302 1123
18.3999996557832 1192
18.4199996553361 1153
18.4399996548891 1196
18.4599996544421 1126
18.479999653995 1171
18.499999653548 1138
18.519999653101 1214
18.5399996526539 1156
18.5599996522069 1224
18.5799996517599 1180
18.5999996513128 1155
18.6199996508658 1216
18.6399996504188 1177
18.6599996499717 1258
18.6799996495247 1256
18.6999996490777 1219
18.7199996486306 1152
18.7399996481836 1204
18.7599996477366 1188
18.7799996472895 1218
18.7999996468425 1215
18.8199996463954 1241
18.8399996459484 1194
18.8599996455014 1262
18.8799996450543 1182
18.8999996446073 1256
18.9199996441603 1261
18.9399996437132 1274
18.9599996432662 1297
18.9799996428192 1254
18.9999996423721 1231
19.0199996419251 1254
19.0399996414781 1314
19.059999641031 1220
19.079999640584 1317
19.099999640137 1216
19.1199996396899 1256
19.1399996392429 1242
19.1599996387959 1297
19.1799996383488 1205
19.1999996379018 1298
19.2199996374547 1209
19.2399996370077 1288
19.2599996365607 1337
19.2799996361136 1260
19.2999996356666 1337
19.3199996352196 1328
19.3399996347725 1312
19.3599996343255 1324
19.3799996338785 1451
19.3999996334314 1341
19.4199996329844 1350
19.4399996325374 1296
19.4599996320903 1345
19.4799996316433 1313
19.4999996311963 1271
19.5199996307492 1413
19.5399996303022 1365
19.5599996298552 1301
19.5799996294081 1377
19.5999996289611 1288
19.6199996285141 1307
19.639999628067 1405
19.65999962762 1356
19.6799996271729 1344
19.6999996267259 1369
19.7199996262789 1354
19.7399996258318 1321
19.7599996253848 1313
19.7799996249378 1422
19.7999996244907 1413
19.8199996240437 1335
19.8399996235967 1345
19.8599996231496 1307
19.8799996227026 1336
19.8999996222556 1418
19.9199996218085 1365
19.9399996213615 1393
19.9599996209145 1342
19.9799996204674 1344
19.9999996200204 1384
