3 2429
3.01999999955297 2334
3.03999999910593 2212
3.0599999986589 2129
3.07999999821186 2050
3.09999999776483 1963
3.11999999731779 1929
3.13999999687076 1838
3.15999999642372 1845
3.17999999597669 1963
3.19999999552965 1787
3.21999999508262 1766
3.23999999463558 1756
3.25999999418855 1794
3.27999999374151 1792
3.29999999329448 1689
3.31999999284744 1724
3.33999999240041 1694
3.35999999195337 1622
3.37999999150634 1609
3.3999999910593 1647
3.41999999061227 1582
3.43999999016523 1484
3.4599999897182 1537
3.47999998927116 1591
3.49999998882413 1538
3.51999998837709 1483
3.53999998793006 1548
3.55999998748302 1492
3.57999998703599 1447
3.59999998658895 1414
3.61999998614192 1442
3.63999998569489 1459
3.65999998524785 1408
3.67999998480082 1404
3.69999998435378 1442
3.71999998390675 1449
3.73999998345971 1378
3.75999998301268 1319
3.77999998256564 1361
3.79999998211861 1377
3.81999998167157 1343
3.83999998122454 1357
3.8599999807775 1319
3.87999998033047 1332
3.89999997988343 1334
3.9199999794364 1290
3.93999997898936 1362
3.95999997854233 1266
3.97999997809529 1322
3.99999997764826 1181
4.01999997720122 1166
4.03999997675419 1210
4.05999997630715 1172
4.07999997586012 1156
4.09999997541308 1167
4.11999997496605 1164
4.13999997451901 1154
4.15999997407198 1130
4.17999997362494 1115
4.19999997317791 1092
4.21999997273087 1109
4.23999997228384 1121
4.25999997183681 1107
4.27999997138977 1108
4.29999997094274 1144
4.3199999704957 1045
4.33999997004867 1049
4.35999996960163 1097
4.3799999691546 1032
4.39999996870756 1071
4.41999996826053 1070
4.43999996781349 1056
4.45999996736646 1061
4.47999996691942 1068
4.49999996647239 1009
4.51999996602535 1004
4.53999996557832 1047
4.55999996513128 1012
4.57999996468425 1036
4.59999996423721 993
4.61999996379018 1000
4.63999996334314 1018
4.65999996289611 1064
4.67999996244907 919
4.69999996200204 936
4.719999961555 976
4.73999996110797 985
4.75999996066093 1001
4.7799999602139 995
4.79999995976686 977
4.81999995931983 967
4.83999995887279 947
4.85999995842576 1027
4.87999995797873 939
4.89999995753169 908
4.91999995708466 931
4.93999995663762 890
4.95999995619059 925
4.97999995574355 917
4.99999995529652 916
5.01999995484948 882
5.03999995440245 903
5.05999995395541 928
5.07999995350838 900
5.09999995306134 870
5.11999995261431 883
5.13999995216727 893
5.15999995172024 893
5.1799999512732 939
5.19999995082617 940
5.21999995037913 890
5.2399999499321 919
5.25999994948506 898
5.27999994903803 856
5.29999994859099 883
5.31999994814396 902
5.33999994769692 889
5.35999994724989 903
5.37999994680285 898
5.39999994635582 880
5.41999994590878 833
5.43999994546175 895
5.45999994501471 900
5.47999994456768 856
5.49999994412065 870
5.51999994367361 865
5.53999994322658 896
5.55999994277954 875
5.57999994233251 892
5.59999994188547 856
5.61999994143844 840
5.6399999409914 878
5.65999994054437 881
5.67999994009733 917
5.6999999396503 896
5.71999993920326 913
5.73999993875623 862
5.75999993830919 873
5.77999993786216 858
5.79999993741512 881
5.81999993696809 883
5.83999993652105 850
5.85999993607402 892
5.87999993562698 828
5.89999993517995 882
5.91999993473291 861
5.93999993428588 862
5.95999993383884 878
5.97999993339181 880
5.99999993294477 894
6.01999993249774 822
6.0399999320507 893
6.05999993160367 858
6.07999993115663 816
6.0999999307096 850
6.11999993026257 907
6.13999992981553 902
6.1599999293685 868
6.17999992892146 903
6.19999992847443 860
6.21999992802739 849
6.23999992758036 841
6.25999992713332 840
6.27999992668629 860
6.29999992623925 883
6.31999992579222 834
6.33999992534518 878
6.35999992489815 872
6.37999992445111 834
6.39999992400408 859
6.41999992355704 868
6.43999992311001 860
6.45999992266297 859
6.47999992221594 829
6.4999999217689 818
6.51999992132187 879
6.53999992087483 865
6.5599999204278 856
6.57999991998076 857
6.59999991953373 870
6.61999991908669 852
6.63999991863966 857
6.65999991819262 849
6.67999991774559 895
6.69999991729855 792
6.71999991685152 863
6.73999991640449 885
6.75999991595745 891
6.77999991551042 802
6.79999991506338 895
6.81999991461635 793
6.83999991416931 849
6.85999991372228 810
6.87999991327524 866
6.89999991282821 826
6.91999991238117 819
6.93999991193414 792
6.9599999114871 815
6.97999991104007 817
6.99999991059303 869
7.019999910146 884
7.03999990969896 840
7.05999990925193 858
7.07999990880489 814
7.09999990835786 887
7.11999990791082 822
7.13999990746379 810
7.15999990701675 810
7.17999990656972 854
7.19999990612268 812
7.21999990567565 850
7.23999990522861 810
7.25999990478158 850
7.27999990433454 832
7.29999990388751 802
7.31999990344047 798
7.33999990299344 848
7.35999990254641 810
7.37999990209937 823
7.39999990165234 853
7.4199999012053 838
7.43999990075827 798
7.45999990031123 800
7.4799998998642 844
7.49999989941716 833
7.51999989897013 817
7.53999989852309 805
7.55999989807606 839
7.57999989762902 788
7.59999989718199 786
7.61999989673495 885
7.63999989628792 814
7.65999989584088 790
7.67999989539385 822
7.69999989494681 790
7.71999989449978 834
7.73999989405274 849
7.75999989360571 825
7.77999989315867 808
7.79999989271164 836
7.8199998922646 828
7.83999989181757 826
7.85999989137053 792
7.8799998909235 855
7.89999989047646 800
7.91999989002943 824
7.9399998895824 811
7.95999988913536 827
7.97999988868833 825
7.99999988824129 782
8.01999988779426 828
8.03999988734722 814
8.05999988690019 802
8.07999988645315 780
8.09999988600612 786
8.11999988555908 820
8.13999988511205 775
8.15999988466501 780
8.17999988421798 846
8.19999988377094 809
8.21999988332391 782
8.23999988287687 808
8.25999988242984 756
8.2799998819828 839
8.29999988153577 805
8.31999988108873 799
8.3399998806417 783
8.35999988019466 806
8.37999987974763 845
8.39999987930059 784
8.41999987885356 786
8.43999987840652 789
8.45999987795949 789
8.47999987751245 838
8.49999987706542 773
8.51999987661839 784
8.53999987617135 792
8.55999987572432 803
8.57999987527728 791
8.59999987483025 772
8.61999987438321 817
8.63999987393618 762
8.65999987348914 843
8.67999987304211 752
8.69999987259507 785
8.71999987214804 783
8.739999871701 818
8.75999987125397 768
8.77999987080693 764
8.7999998703599 760
8.81999986991286 805
8.83999986946583 720
8.85999986901879 781
8.87999986857176 859
8.89999986812472 762
8.91999986767769 807
8.93999986723065 776
8.95999986678362 799
8.97999986633658 813
8.99999986588955 761
9.01999986544251 789
9.03999986499548 785
9.05999986454844 748
9.07999986410141 781
9.09999986365438 771
9.11999986320734 798
9.13999986276031 806
9.15999986231327 767
9.17999986186624 756
9.1999998614192 782
9.21999986097217 756
9.23999986052513 795
9.2599998600781 761
9.27999985963106 739
9.29999985918403 793
9.31999985873699 801
9.33999985828996 790
9.35999985784292 781
9.37999985739589 716
9.39999985694885 779
9.41999985650182 738
9.43999985605478 754
9.45999985560775 744
9.47999985516071 745
9.49999985471368 718
9.51999985426664 766
9.53999985381961 730
9.55999985337257 744
9.57999985292554 732
9.5999998524785 744
9.61999985203147 744
9.63999985158443 779
9.6599998511374 692
9.67999985069037 766
9.69999985024333 732
9.7199998497963 744
9.73999984934926 770
9.75999984890223 763
9.77999984845519 760
9.79999984800816 746
9.81999984756112 747
9.83999984711409 749
9.85999984666705 765
9.87999984622002 665
9.89999984577298 751
9.91999984532595 682
9.93999984487891 741
9.95999984443188 696
9.97999984398484 724
9.99999984353781 738
10.0199998430908 730
10.0399998426437 775
10.0599998421967 754
10.0799998417497 743
10.0999998413026 771
10.1199998408556 776
10.1399998404086 698
10.1599998399615 715
10.1799998395145 761
10.1999998390675 685
10.2199998386204 736
10.2399998381734 739
10.2599998377264 694
10.2799998372793 658
10.2999998368323 692
10.3199998363853 698
10.3399998359382 700
10.3599998354912 747
10.3799998350441 736
10.3999998345971 731
10.4199998341501 683
10.439999833703 723
10.459999833256 669
10.479999832809 741
10.4999998323619 763
10.5199998319149 737
10.5399998314679 725
10.5599998310208 696
10.5799998305738 735
10.5999998301268 725
10.6199998296797 676
10.6399998292327 680
10.6599998287857 762
10.6799998283386 757
10.6999998278916 731
10.7199998274446 725
10.7399998269975 755
10.7599998265505 769
10.7799998261034 697
10.7999998256564 728
10.8199998252094 716
10.8399998247623 752
10.8599998243153 714
10.8799998238683 658
10.8999998234212 729
10.9199998229742 689
10.9399998225272 775
10.9599998220801 735
10.9799998216331 694
10.9999998211861 699
11.019999820739 734
11.039999820292 690
11.059999819845 699
11.0799998193979 723
11.0999998189509 687
11.1199998185039 693
11.1399998180568 694
11.1599998176098 723
11.1799998171628 732
11.1999998167157 726
11.2199998162687 676
11.2399998158216 685
11.2599998153746 728
11.2799998149276 717
11.2999998144805 702
11.3199998140335 705
11.3399998135865 701
11.3599998131394 729
11.3799998126924 752
11.3999998122454 720
11.4199998117983 738
11.4399998113513 733
11.4599998109043 700
11.4799998104572 740
11.4999998100102 687
11.5199998095632 698
11.5399998091161 691
11.5599998086691 752
11.5799998082221 706
11.599999807775 705
11.619999807328 723
11.639999806881 723
11.6599998064339 712
11.6799998059869 707
11.6999998055398 681
11.7199998050928 734
11.7399998046458 701
11.7599998041987 760
11.7799998037517 755
11.7999998033047 703
11.8199998028576 736
11.8399998024106 707
11.8599998019636 699
11.8799998015165 725
11.8999998010695 702
11.9199998006225 711
11.9399998001754 692
11.9599997997284 722
11.9799997992814 756
11.9999997988343 721
12.0199997983873 686
12.0399997979403 716
12.0599997974932 762
12.0799997970462 724
12.0999997965992 717
12.1199997961521 693
12.1399997957051 711
12.159999795258 686
12.179999794811 707
12.199999794364 680
12.2199997939169 793
12.2399997934699 737
12.2599997930229 745
12.2799997925758 705
12.2999997921288 719
12.3199997916818 711
12.3399997912347 701
12.3599997907877 685
12.3799997903407 690
12.3999997898936 707
12.4199997894466 746
12.4399997889996 700
12.4599997885525 702
12.4799997881055 678
12.4999997876585 723
12.5199997872114 718
12.5399997867644 700
12.5599997863173 704
12.5799997858703 745
12.5999997854233 744
12.6199997849762 729
12.6399997845292 704
12.6599997840822 763
12.6799997836351 689
12.6999997831881 747
12.7199997827411 730
12.739999782294 756
12.759999781847 732
12.7799997814 763
12.7999997809529 716
12.8199997805059 712
12.8399997800589 777
12.8599997796118 706
12.8799997791648 721
12.8999997787178 756
12.9199997782707 752
12.9399997778237 762
12.9599997773767 775
12.9799997769296 765
12.9999997764826 740
13.0199997760355 771
13.0399997755885 763
13.0599997751415 745
13.0799997746944 770
13.0999997742474 705
13.1199997738004 740
13.1399997733533 753
13.1599997729063 757
13.1799997724593 745
13.1999997720122 784
13.2199997715652 751
13.2399997711182 738
13.2599997706711 731
13.2799997702241 739
13.2999997697771 795
13.31999976933 771
13.339999768883 754
13.359999768436 687
13.3799997679889 757
13.3999997675419 751
13.4199997670949 707
13.4399997666478 809
13.4599997662008 770
13.4799997657537 798
13.4999997653067 760
13.5199997648597 745
13.5399997644126 744
13.5599997639656 789
13.5799997635186 725
13.5999997630715 796
13.6199997626245 785
13.6399997621775 752
13.6599997617304 766
13.6799997612834 716
13.6999997608364 735
13.7199997603893 788
13.7399997599423 710
13.7599997594953 774
13.7799997590482 754
13.7999997586012 776
13.8199997581542 784
13.8399997577071 750
13.8599997572601 737
13.879999756813 731
13.899999756366 778
13.919999755919 808
13.9399997554719 777
13.9599997550249 738
13.9799997545779 756
13.9999997541308 790
14.0199997536838 784
14.0399997532368 714
14.0599997527897 767
14.0799997523427 781
14.0999997518957 833
14.1199997514486 782
14.1399997510016 754
14.1599997505546 794
14.1799997501075 780
14.1999997496605 790
14.2199997492135 745
14.2399997487664 750
14.2599997483194 804
14.2799997478724 765
14.2999997474253 821
14.3199997469783 722
14.3399997465312 840
14.3599997460842 823
14.3799997456372 822
14.3999997451901 825
14.4199997447431 826
14.4399997442961 828
14.459999743849 766
14.479999743402 804
14.499999742955 747
14.5199997425079 823
14.5399997420609 799
14.5599997416139 795
14.5799997411668 791
14.5999997407198 869
14.6199997402728 779
14.6399997398257 819
14.6599997393787 793
14.6799997389317 806
14.6999997384846 811
14.7199997380376 783
14.7399997375906 827
14.7599997371435 875
14.7799997366965 809
14.7999997362494 798
14.8199997358024 823
14.8399997353554 814
14.8599997349083 825
14.8799997344613 843
14.8999997340143 826
14.9199997335672 841
14.9399997331202 848
14.9599997326732 837
14.9799997322261 857
14.9999997317791 851
15.0199997313321 857
15.039999730885 842
15.059999730438 857
15.079999729991 795
15.0999997295439 862
15.1199997290969 838
15.1399997286499 832
15.1599997282028 814
15.1799997277558 878
15.1999997273088 807
15.2199997268617 788
15.2399997264147 877
15.2599997259676 888
15.2799997255206 825
15.2999997250736 856
15.3199997246265 881
15.3399997241795 880
15.3599997237325 863
15.3799997232854 866
15.3999997228384 889
15.4199997223914 870
15.4399997219443 845
15.4599997214973 885
15.4799997210503 874
15.4999997206032 878
15.5199997201562 923
15.5399997197092 914
15.5599997192621 920
15.5799997188151 882
15.5999997183681 928
15.619999717921 911
15.639999717474 891
15.659999717027 903
15.6799997165799 900
15.6999997161329 896
15.7199997156858 901
15.7399997152388 861
15.7599997147918 879
15.7799997143447 880
15.7999997138977 905
15.8199997134507 910
15.8399997130036 938
15.8599997125566 924
15.8799997121096 922
15.8999997116625 946
15.9199997112155 959
15.9399997107685 958
15.9599997103214 937
15.9799997098744 926
15.9999997094274 991
16.0199997089803 941
16.0399997085333 915
16.0599997080863 963
16.0799997076392 903
16.0999997071922 907
16.1199997067451 925
16.1399997062981 912
16.1599997058511 958
16.179999705404 960
16.199999704957 941
16.21999970451 981
16.2399997040629 944
16.2599997036159 1001
16.2799997031689 976
16.2999997027218 991
16.3199997022748 945
16.3399997018278 989
16.3599997013807 969
16.3799997009337 922
16.3999997004867 958
16.4199997000396 974
16.4399996995926 998
16.4599996991456 993
16.4799996986985 1028
16.4999996982515 967
16.5199996978045 980
16.5399996973574 1032
16.5599996969104 956
16.5799996964633 1010
16.5999996960163 1107
16.6199996955693 978
16.6399996951222 1028
16.6599996946752 1051
16.6799996942282 1081
16.6999996937811 1108
16.7199996933341 1047
16.7399996928871 1095
16.75999969244 1138
16.779999691993 1175
16.799999691546 1159
16.8199996910989 1220
16.8399996906519 1260
16.8599996902049 1382
16.8799996897578 1452
16.8999996893108 1565
16.9199996888638 1743
16.9399996884167 1897
16.9599996879697 2143
16.9799996875226 2309
16.9999996870756 2461
17.0199996866286 2457
17.0399996861815 2348
17.0599996857345 2033
17.0799996852875 1778
17.0999996848404 1561
17.1199996843934 1303
17.1399996839464 1287
17.1599996834993 1227
17.1799996830523 1148
17.1999996826053 1166
17.2199996821582 1115
17.2399996817112 1095
17.2599996812642 1146
17.2799996808171 1137
17.2999996803701 1098
17.3199996799231 1166
17.339999679476 1100
17.359999679029 1104
17.379999678582 1143
17.3999996781349 1086
17.4199996776879 1100
17.4399996772408 1126
17.4599996767938 1107
17.4799996763468 1028
17.4999996758997 1084
17.5199996754527 1146
17.5399996750057 1147
17.5599996745586 1028
17.5799996741116 1128
17.5999996736646 1047
17.6199996732175 1087
17.6399996727705 1086
17.6599996723235 1153
17.6799996718764 1135
17.6999996714294 1107
17.7199996709824 1118
17.7399996705353 1090
17.7599996700883 1150
17.7799996696413 1136
17.7999996691942 1076
17.8199996687472 1141
17.8399996683002 1197
17.8599996678531 1160
17.8799996674061 1107
17.899999666959 1161
17.919999666512 1176
17.939999666065 1119
17.9599996656179 1140
17.9799996651709 1191
17.9999996647239 1092
18.0199996642768 1130
18.0399996638298 1137
18.0599996633828 1141
18.0799996629357 1191
18.0999996624887 1148
18.1199996620417 1210
18.1399996615946 1148
18.1599996611476 1152
18.1799996607006 1163
18.1999996602535 1152
18.2199996598065 1198
18.2399996593595 1189
18.2599996589124 1192
18.2799996584654 1199
18.2999996580184 1172
18.3199996575713 1150
18.3399996571243 1196
18.3599996566772 1165
18.3799996562302 1214
18.3999996557832 1164
18.4199996553361 1300
18.4399996548891 1251
18.4599996544421 1226
18.479999653995 1201
18.499999653548 1250
18.519999653101 1248
18.5399996526539 1266
18.5599996522069 1264
18.5799996517599 1229
18.5999996513128 1231
18.6199996508658 1190
18.6399996504188 1233
18.6599996499717 1234
18.6799996495247 1288
18.6999996490777 1282
18.7199996486306 1233
18.7399996481836 1228
18.7599996477366 1248
18.7799996472895 1246
18.7999996468425 1259
18.8199996463954 1251
18.8399996459484 1221
18.8599996455014 1278
18.8799996450543 1306
18.8999996446073 1291
18.9199996441603 1265
18.9399996437132 1289
18.9599996432662 1266
18.9799996428192 1282
18.9999996423721 1264
19.0199996419251 1270
19.0399996414781 1362
19.059999641031 1272
19.079999640584 1330
19.099999640137 1250
19.1199996396899 1301
19.1399996392429 1283
19.1599996387959 1285
19.1799996383488 1292
19.1999996379018 1288
19.2199996374547 1329
19.2399996370077 1359
19.2599996365607 1361
19.2799996361136 1353
19.2999996356666 1331
19.3199996352196 1288
19.3399996347725 1389
19.3599996343255 1398
19.3799996338785 1364
19.3999996334314 1372
19.4199996329844 1392
19.4399996325374 1321
19.4599996320903 1329
19.4799996316433 1356
19.4999996311963 1351
19.5199996307492 1385
19.5399996303022 1380
19.5599996298552 1403
19.5799996294081 1383
19.5999996289611 1404
19.6199996285141 1393
19.639999628067 1364
19.65999962762 1342
19.6799996271729 1355
19.6999996267259 1454
19.7199996262789 1408
19.7399996258318 1435
19.7599996253848 1463
19.7799996249378 1429
19.7999996244907 1396
19.8199996240437 1396
19.8399996235967 1417
19.8599996231496 1447
19.8799996227026 1362
19.8999996222556 1448
19.9199996218085 1459
19.9399996213615 1503
19.9599996209145 1437
19.9799996204674 1423
19.9999996200204 1454
