3 2137
3.01999999955297 2084
3.03999999910593 1887
3.0599999986589 1752
3.07999999821186 1663
3.09999999776483 1569
3.11999999731779 1523
3.13999999687076 1482
3.15999999642372 1536
3.17999999597669 1493
3.19999999552965 1484
3.21999999508262 1444
3.23999999463558 1380
3.25999999418855 1328
3.27999999374151 1355
3.29999999329448 1355
3.31999999284744 1376
3.33999999240041 1288
3.35999999195337 1352
3.37999999150634 1265
3.3999999910593 1299
3.41999999061227 1296
3.43999999016523 1358
3.4599999897182 1261
3.47999998927116 1248
3.49999998882413 1278
3.51999998837709 1254
3.53999998793006 1256
3.55999998748302 1239
3.57999998703599 1188
3.59999998658895 1206
3.61999998614192 1197
3.63999998569489 1160
3.65999998524785 1134
3.67999998480082 1079
3.69999998435378 1126
3.71999998390675 1104
3.73999998345971 1088
3.75999998301268 1089
3.77999998256564 1047
3.79999998211861 1042
3.81999998167157 1090
3.83999998122454 1003
3.8599999807775 1009
3.87999998033047 1016
3.89999997988343 975
3.9199999794364 949
3.93999997898936 965
3.95999997854233 1002
3.97999997809529 998
3.99999997764826 984
4.01999997720122 995
4.03999997675419 965
4.05999997630715 905
4.07999997586012 901
4.09999997541308 948
4.11999997496605 976
4.13999997451901 994
4.15999997407198 908
4.17999997362494 923
4.19999997317791 861
4.21999997273087 887
4.23999997228384 905
4.25999997183681 859
4.27999997138977 860
4.29999997094274 867
4.3199999704957 875
4.33999997004867 871
4.35999996960163 830
4.3799999691546 819
4.39999996870756 834
4.41999996826053 839
4.43999996781349 850
4.45999996736646 827
4.47999996691942 855
4.49999996647239 838
4.51999996602535 812
4.53999996557832 786
4.55999996513128 801
4.57999996468425 819
4.59999996423721 818
4.61999996379018 761
4.63999996334314 760
4.65999996289611 799
4.67999996244907 821
4.69999996200204 766
4.719999961555 745
4.73999996110797 762
4.75999996066093 776
4.7799999602139 761
4.79999995976686 737
4.81999995931983 750
4.83999995887279 683
4.85999995842576 726
4.87999995797873 729
4.89999995753169 743
4.91999995708466 702
4.93999995663762 726
4.95999995619059 732
4.97999995574355 729
4.99999995529652 780
5.01999995484948 737
5.03999995440245 755
5.05999995395541 741
5.07999995350838 722
5.09999995306134 737
5.11999995261431 672
5.13999995216727 714
5.15999995172024 685
5.1799999512732 764
5.19999995082617 734
5.21999995037913 728
5.2399999499321 649
5.25999994948506 695
5.27999994903803 700
5.29999994859099 666
5.31999994814396 683
5.33999994769692 700
5.35999994724989 691
5.37999994680285 669
5.39999994635582 684
5.41999994590878 683
5.43999994546175 680
5.45999994501471 648
5.47999994456768 643
5.49999994412065 678
5.51999994367361 669
5.53999994322658 688
5.55999994277954 658
5.57999994233251 690
5.59999994188547 661
5.61999994143844 645
5.6399999409914 684
5.65999994054437 675
5.67999994009733 618
5.6999999396503 671
5.71999993920326 605
5.73999993875623 632
5.75999993830919 646
5.77999993786216 696
5.79999993741512 687
5.81999993696809 632
5.83999993652105 645
5.85999993607402 595
5.87999993562698 660
5.89999993517995 652
5.91999993473291 668
5.93999993428588 687
5.95999993383884 670
5.97999993339181 672
5.99999993294477 639
6.01999993249774 628
6.0399999320507 634
6.05999993160367 637
6.07999993115663 658
6.0999999307096 659
6.11999993026257 677
6.13999992981553 672
6.1599999293685 663
6.17999992892146 628
6.19999992847443 678
6.21999992802739 613
6.23999992758036 626
6.25999992713332 603
6.27999992668629 623
6.29999992623925 642
6.31999992579222 636
6.33999992534518 587
6.35999992489815 617
6.37999992445111 595
6.39999992400408 639
6.41999992355704 646
6.43999992311001 651
6.45999992266297 635
6.47999992221594 672
6.4999999217689 618
6.51999992132187 643
6.53999992087483 683
6.5599999204278 647
6.57999991998076 635
6.59999991953373 625
6.61999991908669 632
6.63999991863966 674
6.65999991819262 634
6.67999991774559 624
6.69999991729855 636
6.71999991685152 628
6.73999991640449 625
6.75999991595745 635
6.77999991551042 612
6.79999991506338 665
6.81999991461635 587
6.83999991416931 636
6.85999991372228 598
6.87999991327524 645
6.89999991282821 612
6.91999991238117 607
6.93999991193414 624
6.9599999114871 626
6.97999991104007 614
6.99999991059303 672
7.019999910146 623
7.03999990969896 638
7.05999990925193 612
7.07999990880489 630
7.09999990835786 613
7.11999990791082 617
7.13999990746379 598
7.15999990701675 630
7.17999990656972 644
7.19999990612268 625
7.21999990567565 675
7.23999990522861 621
7.25999990478158 630
7.27999990433454 653
7.29999990388751 608
7.31999990344047 560
7.33999990299344 635
7.35999990254641 630
7.37999990209937 613
7.39999990165234 639
7.4199999012053 598
7.43999990075827 602
7.45999990031123 645
7.4799998998642 680
7.49999989941716 636
7.51999989897013 596
7.53999989852309 637
7.55999989807606 660
7.57999989762902 637
7.59999989718199 607
7.61999989673495 618
7.63999989628792 612
7.65999989584088 598
7.67999989539385 625
7.69999989494681 593
7.71999989449978 636
7.73999989405274 637
7.75999989360571 628
7.77999989315867 631
7.79999989271164 617
7.8199998922646 655
7.83999989181757 607
7.85999989137053 617
7.8799998909235 591
7.89999989047646 638
7.91999989002943 616
7.9399998895824 603
7.95999988913536 614
7.97999988868833 637
7.99999988824129 610
8.01999988779426 619
8.03999988734722 638
8.05999988690019 630
8.07999988645315 627
8.09999988600612 632
8.11999988555908 650
8.13999988511205 625
8.15999988466501 648
8.17999988421798 600
8.19999988377094 605
8.21999988332391 578
8.23999988287687 612
8.25999988242984 613
8.2799998819828 577
8.29999988153577 608
8.31999988108873 586
8.3399998806417 622
8.35999988019466 638
8.37999987974763 611
8.39999987930059 623
8.41999987885356 612
8.43999987840652 601
8.45999987795949 558
8.47999987751245 611
8.49999987706542 569
8.51999987661839 588
8.53999987617135 661
8.55999987572432 608
8.57999987527728 625
8.59999987483025 616
8.61999987438321 615
8.63999987393618 573
8.65999987348914 636
8.67999987304211 624
8.69999987259507 638
8.71999987214804 601
8.739999871701 579
8.75999987125397 611
8.77999987080693 584
8.7999998703599 663
8.81999986991286 621
8.83999986946583 576
8.85999986901879 583
8.87999986857176 638
8.89999986812472 585
8.91999986767769 603
8.93999986723065 611
8.95999986678362 637
8.97999986633658 662
8.99999986588955 651
9.01999986544251 666
9.03999986499548 670
9.05999986454844 685
9.07999986410141 659
9.09999986365438 661
9.11999986320734 639
9.13999986276031 649
9.15999986231327 613
9.17999986186624 646
9.1999998614192 616
9.21999986097217 621
9.23999986052513 633
9.2599998600781 556
9.27999985963106 631
9.29999985918403 576
9.31999985873699 614
9.33999985828996 665
9.35999985784292 635
9.37999985739589 581
9.39999985694885 580
9.41999985650182 580
9.43999985605478 556
9.45999985560775 621
9.47999985516071 596
9.49999985471368 569
9.51999985426664 585
9.53999985381961 586
9.55999985337257 579
9.57999985292554 565
9.5999998524785 573
9.61999985203147 577
9.63999985158443 594
9.6599998511374 607
9.67999985069037 590
9.69999985024333 597
9.7199998497963 609
9.73999984934926 596
9.75999984890223 603
9.77999984845519 549
9.79999984800816 593
9.81999984756112 579
9.83999984711409 559
9.85999984666705 568
9.87999984622002 600
9.89999984577298 625
9.91999984532595 616
9.93999984487891 619
9.95999984443188 601
9.97999984398484 571
9.99999984353781 533
10.0199998430908 615
10.0399998426437 591
10.0599998421967 613
10.0799998417497 610
10.0999998413026 590
10.1199998408556 568
10.1399998404086 592
10.1599998399615 596
10.1799998395145 565
10.1999998390675 538
10.2199998386204 586
10.2399998381734 569
10.2599998377264 542
10.2799998372793 598
10.2999998368323 566
10.3199998363853 569
10.3399998359382 617
10.3599998354912 619
10.3799998350441 582
10.3999998345971 535
10.4199998341501 600
10.439999833703 604
10.459999833256 590
10.479999832809 573
10.4999998323619 607
10.5199998319149 548
10.5399998314679 572
10.5599998310208 557
10.5799998305738 614
10.5999998301268 628
10.6199998296797 561
10.6399998292327 553
10.6599998287857 577
10.6799998283386 578
10.6999998278916 586
10.7199998274446 581
10.7399998269975 546
10.7599998265505 587
10.7799998261034 531
10.7999998256564 600
10.8199998252094 574
10.8399998247623 573
10.8599998243153 627
10.8799998238683 549
10.8999998234212 574
10.9199998229742 603
10.9399998225272 562
10.9599998220801 551
10.9799998216331 592
10.9999998211861 572
11.019999820739 596
11.039999820292 568
11.059999819845 546
11.0799998193979 535
11.0999998189509 593
11.1199998185039 568
11.1399998180568 551
11.1599998176098 571
11.1799998171628 568
11.1999998167157 558
11.2199998162687 595
11.2399998158216 567
11.2599998153746 588
11.2799998149276 588
11.2999998144805 596
11.3199998140335 599
11.3399998135865 634
11.3599998131394 575
11.3799998126924 595
11.3999998122454 584
11.4199998117983 656
11.4399998113513 610
11.4599998109043 594
11.4799998104572 568
11.4999998100102 584
11.5199998095632 626
11.5399998091161 560
11.5599998086691 560
11.5799998082221 590
11.599999807775 544
11.619999807328 570
11.639999806881 603
11.6599998064339 574
11.6799998059869 576
11.6999998055398 551
11.7199998050928 590
11.7399998046458 582
11.7599998041987 585
11.7799998037517 564
11.7999998033047 542
11.8199998028576 588
11.8399998024106 562
11.8599998019636 589
11.8799998015165 571
11.8999998010695 606
11.9199998006225 620
11.9399998001754 602
11.9599997997284 606
11.9799997992814 578
11.9999997988343 604
12.0199997983873 610
12.0399997979403 575
12.0599997974932 630
12.0799997970462 610
12.0999997965992 620
12.1199997961521 586
12.1399997957051 615
12.159999795258 572
12.179999794811 598
12.199999794364 561
12.2199997939169 608
12.2399997934699 600
12.2599997930229 582
12.2799997925758 537
12.2999997921288 581
12.3199997916818 636
12.3399997912347 618
12.3599997907877 567
12.3799997903407 570
12.3999997898936 580
12.4199997894466 590
12.4399997889996 628
12.4599997885525 585
12.4799997881055 583
12.4999997876585 574
12.5199997872114 618
12.5399997867644 559
12.5599997863173 633
12.5799997858703 604
12.5999997854233 622
12.6199997849762 594
12.6399997845292 647
12.6599997840822 576
12.6799997836351 630
12.6999997831881 663
12.7199997827411 602
12.739999782294 587
12.759999781847 590
12.7799997814 615
12.7999997809529 574
12.8199997805059 569
12.8399997800589 620
12.8599997796118 649
12.8799997791648 653
12.8999997787178 591
12.9199997782707 616
12.9399997778237 643
12.9599997773767 612
12.9799997769296 576
12.9999997764826 616
13.0199997760355 597
13.0399997755885 582
13.0599997751415 617
13.0799997746944 623
13.0999997742474 626
13.1199997738004 632
13.1399997733533 607
13.1599997729063 648
13.1799997724593 609
13.1999997720122 630
13.2199997715652 633
13.2399997711182 636
13.2599997706711 632
13.2799997702241 671
13.2999997697771 632
13.31999976933 649
13.339999768883 655
13.359999768436 684
13.3799997679889 611
13.3999997675419 621
13.4199997670949 653
13.4399997666478 665
13.4599997662008 664
13.4799997657537 606
13.4999997653067 614
13.5199997648597 677
13.5399997644126 600
13.5599997639656 658
13.5799997635186 677
13.5999997630715 619
13.6199997626245 643
13.6399997621775 644
13.6599997617304 641
13.6799997612834 613
13.6999997608364 655
13.7199997603893 593
13.7399997599423 642
13.7599997594953 700
13.7799997590482 634
13.7999997586012 635
13.8199997581542 642
13.8399997577071 646
13.8599997572601 636
13.879999756813 612
13.899999756366 653
13.919999755919 681
13.9399997554719 672
13.9599997550249 658
13.9799997545779 655
13.9999997541308 646
14.0199997536838 674
14.0399997532368 642
14.0599997527897 625
14.0799997523427 668
14.0999997518957 676
14.1199997514486 649
14.1399997510016 655
14.1599997505546 611
14.1799997501075 636
14.1999997496605 622
14.2199997492135 655
14.2399997487664 655
14.2599997483194 701
14.2799997478724 653
14.2999997474253 610
14.3199997469783 657
14.3399997465312 659
14.3599997460842 645
14.3799997456372 675
14.3999997451901 660
14.4199997447431 691
14.4399997442961 647
14.459999743849 659
14.479999743402 691
14.499999742955 616
14.5199997425079 690
14.5399997420609 659
14.5599997416139 682
14.5799997411668 691
14.5999997407198 629
14.6199997402728 688
14.6399997398257 691
14.6599997393787 673
14.6799997389317 675
14.6999997384846 684
14.7199997380376 629
14.7399997375906 720
14.7599997371435 665
14.7799997366965 678
14.7999997362494 676
14.8199997358024 669
14.8399997353554 684
14.8599997349083 676
14.8799997344613 685
14.8999997340143 709
14.9199997335672 703
14.9399997331202 662
14.9599997326732 682
14.9799997322261 720
14.9999997317791 668
15.0199997313321 683
15.039999730885 692
15.059999730438 686
15.079999729991 736
15.0999997295439 736
15.1199997290969 716
15.1399997286499 736
15.1599997282028 681
15.1799997277558 715
15.1999997273088 692
15.2199997268617 705
15.2399997264147 728
15.2599997259676 688
15.2799997255206 733
15.2999997250736 767
15.3199997246265 736
15.3399997241795 724
15.3599997237325 724
15.3799997232854 749
15.3999997228384 772
15.4199997223914 734
15.4399997219443 687
15.4599997214973 730
15.4799997210503 755
15.4999997206032 742
15.5199997201562 759
15.5399997197092 693
15.5599997192621 736
15.5799997188151 722
15.5999997183681 766
15.619999717921 726
15.639999717474 750
15.659999717027 714
15.6799997165799 726
15.6999997161329 764
15.7199997156858 733
15.7399997152388 773
15.7599997147918 724
15.7799997143447 762
15.7999997138977 754
15.8199997134507 752
15.8399997130036 782
15.8599997125566 734
15.8799997121096 734
15.8999997116625 797
15.9199997112155 734
15.9399997107685 773
15.9599997103214 762
15.9799997098744 753
15.9999997094274 762
16.0199997089803 768
16.0399997085333 778
16.0599997080863 742
16.0799997076392 785
16.0999997071922 788
16.1199997067451 738
16.1399997062981 774
16.1599997058511 748
16.179999705404 807
16.199999704957 740
16.21999970451 782
16.2399997040629 786
16.2599997036159 804
16.2799997031689 773
16.2999997027218 793
16.3199997022748 787
16.3399997018278 829
16.3599997013807 794
16.3799997009337 760
16.3999997004867 803
16.4199997000396 826
16.4399996995926 870
16.4599996991456 785
16.4799996986985 797
16.4999996982515 847
16.5199996978045 805
16.5399996973574 837
16.5599996969104 842
16.5799996964633 878
16.5999996960163 871
16.6199996955693 900
16.6399996951222 916
16.6599996946752 874
16.6799996942282 895
16.6999996937811 873
16.7199996933341 974
16.7399996928871 943
16.75999969244 1012
16.779999691993 1009
16.799999691546 1045
16.8199996910989 1131
16.8399996906519 1127
16.8599996902049 1282
16.8799996897578 1368
16.8999996893108 1459
16.9199996888638 1704
16.9399996884167 1977
16.9599996879697 2039
16.9799996875226 2324
16.9999996870756 2488
17.0199996866286 2514
17.0399996861815 2461
17.0599996857345 2308
17.0799996852875 2008
17.0999996848404 1872
17.1199996843934 1603
17.1399996839464 1491
17.1599996834993 1394
17.1799996830523 1277
17.1999996826053 1217
17.2199996821582 1139
17.2399996817112 1051
17.2599996812642 1028
17.2799996808171 989
17.2999996803701 958
17.3199996799231 936
17.339999679476 900
17.359999679029 911
17.379999678582 912
17.3999996781349 910
17.4199996776879 965
17.4399996772408 904
17.4599996767938 925
17.4799996763468 939
17.4999996758997 921
17.5199996754527 883
17.5399996750057 1000
17.5599996745586 944
17.5799996741116 937
17.5999996736646 929
17.6199996732175 902
17.6399996727705 919
17.6599996723235 993
17.6799996718764 912
17.6999996714294 875
17.7199996709824 933
17.7399996705353 970
17.7599996700883 914
17.7799996696413 918
17.7999996691942 904
17.8199996687472 932
17.8399996683002 969
17.8599996678531 960
17.8799996674061 930
17.899999666959 939
17.919999666512 973
17.939999666065 885
17.9599996656179 943
17.9799996651709 973
17.9999996647239 968
18.0199996642768 973
18.0399996638298 951
18.0599996633828 968
18.0799996629357 957
18.0999996624887 963
18.1199996620417 951
18.1399996615946 962
18.1599996611476 1010
18.1799996607006 961
18.1999996602535 988
18.2199996598065 913
18.2399996593595 968
18.2599996589124 962
18.2799996584654 1024
18.2999996580184 984
18.3199996575713 985
18.3399996571243 966
18.3599996566772 968
18.3799996562302 1001
18.3999996557832 1009
18.4199996553361 997
18.4399996548891 1019
18.4599996544421 1033
18.479999653995 955
18.499999653548 1016
18.519999653101 1019
18.5399996526539 1083
18.5599996522069 1012
18.5799996517599 1052
18.5999996513128 1073
18.6199996508658 1038
18.6399996504188 1022
18.6599996499717 1063
18.6799996495247 974
18.6999996490777 1076
18.7199996486306 1023
18.7399996481836 1078
18.7599996477366 1076
18.7799996472895 1035
18.7999996468425 1049
18.8199996463954 1035
18.8399996459484 1076
18.8599996455014 1041
18.8799996450543 1046
18.8999996446073 1093
18.9199996441603 1081
18.9399996437132 1041
18.9599996432662 1049
18.9799996428192 1051
18.9999996423721 1091
19.0199996419251 1094
19.0399996414781 1055
19.059999641031 1124
19.079999640584 1074
19.099999640137 1062
19.1199996396899 1106
19.1399996392429 1102
19.1599996387959 1034
19.1799996383488 1046
19.1999996379018 1078
19.2199996374547 1087
19.2399996370077 1101
19.2599996365607 1101
19.2799996361136 1098
19.2999996356666 1129
19.3199996352196 1077
19.3399996347725 1102
19.3599996343255 1088
19.3799996338785 1070
19.3999996334314 1122
19.4199996329844 1075
19.4399996325374 1085
19.4599996320903 1087
19.4799996316433 1169
19.4999996311963 1147
19.5199996307492 1200
19.5399996303022 1124
19.5599996298552 1145
19.5799996294081 1092
19.5999996289611 1044
19.6199996285141 1151
19.639999628067 1195
19.65999962762 1163
19.6799996271729 1129
19.6999996267259 1159
19.7199996262789 1164
19.7399996258318 1139
19.7599996253848 1131
19.7799996249378 1171
19.7999996244907 1149
19.8199996240437 1119
19.8399996235967 1192
19.8599996231496 1186
19.8799996227026 1155
19.8999996222556 1140
19.9199996218085 1220
19.9399996213615 1184
19.9599996209145 1150
19.9799996204674 1128
19.9999996200204 1224
