3 2075
3.01999999955297 1990
3.03999999910593 1825
3.0599999986589 1725
3.07999999821186 1609
3.09999999776483 1583
3.11999999731779 1515
3.13999999687076 1484
3.15999999642372 1460
3.17999999597669 1440
3.19999999552965 1430
3.21999999508262 1359
3.23999999463558 1432
3.25999999418855 1296
3.27999999374151 1344
3.29999999329448 1328
3.31999999284744 1376
3.33999999240041 1310
3.35999999195337 1324
3.37999999150634 1300
3.3999999910593 1274
3.41999999061227 1216
3.43999999016523 1217
3.4599999897182 1339
3.47999998927116 1216
3.49999998882413 1160
3.51999998837709 1231
3.53999998793006 1180
3.55999998748302 1195
3.57999998703599 1183
3.59999998658895 1162
3.61999998614192 1176
3.63999998569489 1127
3.65999998524785 1124
3.67999998480082 1156
3.69999998435378 1089
3.71999998390675 1151
3.73999998345971 1106
3.75999998301268 1020
3.77999998256564 1109
3.79999998211861 1086
3.81999998167157 1081
3.83999998122454 1043
3.8599999807775 1070
3.87999998033047 1051
3.89999997988343 1102
3.9199999794364 1051
3.93999997898936 1039
3.95999997854233 1052
3.97999997809529 997
3.99999997764826 1031
4.01999997720122 1013
4.03999997675419 951
4.05999997630715 1014
4.07999997586012 995
4.09999997541308 899
4.11999997496605 968
4.13999997451901 946
4.15999997407198 979
4.17999997362494 976
4.19999997317791 978
4.21999997273087 909
4.23999997228384 924
4.25999997183681 976
4.27999997138977 985
4.29999997094274 907
4.3199999704957 924
4.33999997004867 930
4.35999996960163 874
4.3799999691546 932
4.39999996870756 943
4.41999996826053 836
4.43999996781349 861
4.45999996736646 889
4.47999996691942 911
4.49999996647239 881
4.51999996602535 900
4.53999996557832 921
4.55999996513128 856
4.57999996468425 922
4.59999996423721 855
4.61999996379018 861
4.63999996334314 832
4.65999996289611 861
4.67999996244907 874
4.69999996200204 842
4.719999961555 817
4.73999996110797 854
4.75999996066093 881
4.7799999602139 885
4.79999995976686 893
4.81999995931983 919
4.83999995887279 905
4.85999995842576 854
4.87999995797873 871
4.89999995753169 865
4.91999995708466 876
4.93999995663762 878
4.95999995619059 917
4.97999995574355 919
4.99999995529652 915
5.01999995484948 895
5.03999995440245 932
5.05999995395541 894
5.07999995350838 913
5.09999995306134 919
5.11999995261431 954
5.13999995216727 943
5.15999995172024 882
5.1799999512732 920
5.19999995082617 972
5.21999995037913 1034
5.2399999499321 1011
5.25999994948506 1002
5.27999994903803 992
5.29999994859099 1020
5.31999994814396 958
5.33999994769692 984
5.35999994724989 967
5.37999994680285 1049
5.39999994635582 1066
5.41999994590878 1069
5.43999994546175 1071
5.45999994501471 1066
5.47999994456768 1094
5.49999994412065 1129
5.51999994367361 1104
5.53999994322658 1062
5.55999994277954 1085
5.57999994233251 1147
5.59999994188547 1091
5.61999994143844 1140
5.6399999409914 1114
5.65999994054437 1105
5.67999994009733 1164
5.6999999396503 1142
5.71999993920326 1115
5.73999993875623 1216
5.75999993830919 1143
5.77999993786216 1157
5.79999993741512 1108
5.81999993696809 1101
5.83999993652105 1103
5.85999993607402 1083
5.87999993562698 1053
5.89999993517995 1157
5.91999993473291 1076
5.93999993428588 976
5.95999993383884 1014
5.97999993339181 955
5.99999993294477 933
6.01999993249774 952
6.0399999320507 992
6.05999993160367 921
6.07999993115663 945
6.0999999307096 872
6.11999993026257 856
6.13999992981553 847
6.1599999293685 827
6.17999992892146 809
6.19999992847443 815
6.21999992802739 823
6.23999992758036 799
6.25999992713332 800
6.27999992668629 779
6.29999992623925 792
6.31999992579222 750
6.33999992534518 722
6.35999992489815 757
6.37999992445111 708
6.39999992400408 718
6.41999992355704 717
6.43999992311001 704
6.45999992266297 738
6.47999992221594 717
6.4999999217689 772
6.51999992132187 681
6.53999992087483 686
6.5599999204278 665
6.57999991998076 664
6.59999991953373 652
6.61999991908669 705
6.63999991863966 666
6.65999991819262 702
6.67999991774559 680
6.69999991729855 626
6.71999991685152 681
6.73999991640449 660
6.75999991595745 682
6.77999991551042 660
6.79999991506338 657
6.81999991461635 649
6.83999991416931 669
6.85999991372228 634
6.87999991327524 636
6.89999991282821 637
6.91999991238117 645
6.93999991193414 607
6.9599999114871 637
6.97999991104007 662
6.99999991059303 599
7.019999910146 613
7.03999990969896 601
7.05999990925193 591
7.07999990880489 575
7.09999990835786 599
7.11999990791082 586
7.13999990746379 600
7.15999990701675 591
7.17999990656972 586
7.19999990612268 585
7.21999990567565 569
7.23999990522861 582
7.25999990478158 601
7.27999990433454 586
7.29999990388751 605
7.31999990344047 541
7.33999990299344 596
7.35999990254641 560
7.37999990209937 599
7.39999990165234 576
7.4199999012053 599
7.43999990075827 601
7.45999990031123 550
7.4799998998642 603
7.49999989941716 585
7.51999989897013 573
7.53999989852309 581
7.55999989807606 564
7.57999989762902 585
7.59999989718199 565
7.61999989673495 592
7.63999989628792 530
7.65999989584088 565
7.67999989539385 585
7.69999989494681 530
7.71999989449978 572
7.73999989405274 581
7.75999989360571 538
7.77999989315867 562
7.79999989271164 593
7.8199998922646 544
7.83999989181757 505
7.85999989137053 534
7.8799998909235 538
7.89999989047646 566
7.91999989002943 524
7.9399998895824 571
7.95999988913536 498
7.97999988868833 548
7.99999988824129 578
8.01999988779426 540
8.03999988734722 548
8.05999988690019 575
8.07999988645315 510
8.09999988600612 538
8.11999988555908 569
8.13999988511205 535
8.15999988466501 559
8.17999988421798 542
8.19999988377094 539
8.21999988332391 523
8.23999988287687 567
8.25999988242984 549
8.2799998819828 535
8.29999988153577 541
8.31999988108873 549
8.3399998806417 542
8.35999988019466 531
8.37999987974763 522
8.39999987930059 560
8.41999987885356 556
8.43999987840652 576
8.45999987795949 550
8.47999987751245 530
8.49999987706542 559
8.51999987661839 556
8.53999987617135 543
8.55999987572432 529
8.57999987527728 566
8.59999987483025 566
8.61999987438321 587
8.63999987393618 547
8.65999987348914 544
8.67999987304211 534
8.69999987259507 508
8.71999987214804 566
8.739999871701 522
8.75999987125397 561
8.77999987080693 503
8.7999998703599 534
8.81999986991286 531
8.83999986946583 550
8.85999986901879 585
8.87999986857176 571
8.89999986812472 585
8.91999986767769 535
8.93999986723065 547
8.95999986678362 609
8.97999986633658 583
8.99999986588955 574
9.01999986544251 621
9.03999986499548 561
9.05999986454844 533
9.07999986410141 617
9.09999986365438 574
9.11999986320734 580
9.13999986276031 591
9.15999986231327 594
9.17999986186624 578
9.1999998614192 572
9.21999986097217 557
9.23999986052513 583
9.2599998600781 608
9.27999985963106 588
9.29999985918403 665
9.31999985873699 615
9.33999985828996 545
9.35999985784292 623
9.37999985739589 633
9.39999985694885 619
9.41999985650182 610
9.43999985605478 560
9.45999985560775 561
9.47999985516071 602
9.49999985471368 597
9.51999985426664 596
9.53999985381961 575
9.55999985337257 599
9.57999985292554 609
9.5999998524785 550
9.61999985203147 598
9.63999985158443 592
9.6599998511374 555
9.67999985069037 577
9.69999985024333 599
9.7199998497963 527
9.73999984934926 536
9.75999984890223 525
9.77999984845519 573
9.79999984800816 578
9.81999984756112 544
9.83999984711409 567
9.85999984666705 558
9.87999984622002 560
9.89999984577298 535
9.91999984532595 505
9.93999984487891 509
9.95999984443188 497
9.97999984398484 535
9.99999984353781 564
10.0199998430908 545
10.0399998426437 500
10.0599998421967 589
10.0799998417497 529
10.0999998413026 529
10.1199998408556 577
10.1399998404086 555
10.1599998399615 542
10.1799998395145 503
10.1999998390675 549
10.2199998386204 548
10.2399998381734 607
10.2599998377264 563
10.2799998372793 550
10.2999998368323 517
10.3199998363853 493
10.3399998359382 526
10.3599998354912 541
10.3799998350441 522
10.3999998345971 558
10.4199998341501 530
10.439999833703 506
10.459999833256 514
10.479999832809 517
10.4999998323619 488
10.5199998319149 516
10.5399998314679 515
10.5599998310208 526
10.5799998305738 510
10.5999998301268 535
10.6199998296797 571
10.6399998292327 505
10.6599998287857 519
10.6799998283386 513
10.6999998278916 519
10.7199998274446 513
10.7399998269975 549
10.7599998265505 514
10.7799998261034 528
10.7999998256564 475
10.8199998252094 580
10.8399998247623 561
10.8599998243153 528
10.8799998238683 537
10.8999998234212 569
10.9199998229742 517
10.9399998225272 543
10.9599998220801 526
10.9799998216331 563
10.9999998211861 540
11.019999820739 567
11.039999820292 566
11.059999819845 519
11.0799998193979 563
11.0999998189509 554
11.1199998185039 554
11.1399998180568 536
11.1599998176098 537
11.1799998171628 548
11.1999998167157 503
11.2199998162687 565
11.2399998158216 539
11.2599998153746 551
11.2799998149276 521
11.2999998144805 519
11.3199998140335 528
11.3399998135865 541
11.3599998131394 519
11.3799998126924 533
11.3999998122454 511
11.4199998117983 508
11.4399998113513 534
11.4599998109043 521
11.4799998104572 470
11.4999998100102 501
11.5199998095632 522
11.5399998091161 504
11.5599998086691 493
11.5799998082221 516
11.599999807775 496
11.619999807328 494
11.639999806881 510
11.6599998064339 496
11.6799998059869 517
11.6999998055398 497
11.7199998050928 539
11.7399998046458 496
11.7599998041987 515
11.7799998037517 512
11.7999998033047 476
11.8199998028576 465
11.8399998024106 473
11.8599998019636 474
11.8799998015165 480
11.8999998010695 494
11.9199998006225 525
11.9399998001754 492
11.9599997997284 484
11.9799997992814 491
11.9999997988343 470
12.0199997983873 504
12.0399997979403 498
12.0599997974932 484
12.0799997970462 454
12.0999997965992 471
12.1199997961521 446
12.1399997957051 505
12.159999795258 503
12.179999794811 488
12.199999794364 502
12.2199997939169 475
12.2399997934699 455
12.2599997930229 487
12.2799997925758 495
12.2999997921288 475
12.3199997916818 494
12.3399997912347 506
12.3599997907877 487
12.3799997903407 507
12.3999997898936 462
12.4199997894466 479
12.4399997889996 460
12.4599997885525 499
12.4799997881055 484
12.4999997876585 437
12.5199997872114 445
12.5399997867644 469
12.5599997863173 463
12.5799997858703 454
12.5999997854233 461
12.6199997849762 499
12.6399997845292 502
12.6599997840822 450
12.6799997836351 501
12.6999997831881 486
12.7199997827411 501
12.739999782294 485
12.759999781847 492
12.7799997814 503
12.7999997809529 471
12.8199997805059 444
12.8399997800589 472
12.8599997796118 484
12.8799997791648 476
12.8999997787178 494
12.9199997782707 500
12.9399997778237 482
12.9599997773767 490
12.9799997769296 481
12.9999997764826 470
13.0199997760355 467
13.0399997755885 478
13.0599997751415 492
13.0799997746944 452
13.0999997742474 467
13.1199997738004 513
13.1399997733533 472
13.1599997729063 446
13.1799997724593 485
13.1999997720122 511
13.2199997715652 507
13.2399997711182 477
13.2599997706711 486
13.2799997702241 537
13.2999997697771 495
13.31999976933 476
13.339999768883 488
13.359999768436 498
13.3799997679889 509
13.3999997675419 496
13.4199997670949 544
13.4399997666478 500
13.4599997662008 521
13.4799997657537 475
13.4999997653067 470
13.5199997648597 520
13.5399997644126 494
13.5599997639656 480
13.5799997635186 497
13.5999997630715 465
13.6199997626245 489
13.6399997621775 503
13.6599997617304 507
13.6799997612834 511
13.6999997608364 500
13.7199997603893 516
13.7399997599423 460
13.7599997594953 447
13.7799997590482 464
13.7999997586012 509
13.8199997581542 507
13.8399997577071 530
13.8599997572601 529
13.879999756813 530
13.899999756366 498
13.919999755919 493
13.9399997554719 502
13.9599997550249 535
13.9799997545779 471
13.9999997541308 507
14.0199997536838 495
14.0399997532368 527
14.0599997527897 463
14.0799997523427 500
14.0999997518957 517
14.1199997514486 507
14.1399997510016 484
14.1599997505546 544
14.1799997501075 518
14.1999997496605 526
14.2199997492135 521
14.2399997487664 521
14.2599997483194 470
14.2799997478724 495
14.2999997474253 482
14.3199997469783 507
14.3399997465312 512
14.3599997460842 494
14.3799997456372 514
14.3999997451901 501
14.4199997447431 510
14.4399997442961 509
14.459999743849 531
14.479999743402 511
14.499999742955 496
14.5199997425079 534
14.5399997420609 498
14.5599997416139 559
14.5799997411668 510
14.5999997407198 564
14.6199997402728 519
14.6399997398257 523
14.6599997393787 527
14.6799997389317 529
14.6999997384846 555
14.7199997380376 534
14.7399997375906 532
14.7599997371435 551
14.7799997366965 511
14.7999997362494 502
14.8199997358024 572
14.8399997353554 539
14.8599997349083 547
14.8799997344613 562
14.8999997340143 548
14.9199997335672 552
14.9399997331202 590
14.9599997326732 539
14.9799997322261 540
14.9999997317791 507
15.0199997313321 560
15.039999730885 549
15.059999730438 563
15.079999729991 583
15.0999997295439 490
15.1199997290969 530
15.1399997286499 537
15.1599997282028 525
15.1799997277558 529
15.1999997273088 586
15.2199997268617 565
15.2399997264147 582
15.2599997259676 546
15.2799997255206 593
15.2999997250736 550
15.3199997246265 542
15.3399997241795 550
15.3599997237325 554
15.3799997232854 547
15.3999997228384 588
15.4199997223914 559
15.4399997219443 523
15.4599997214973 572
15.4799997210503 553
15.4999997206032 548
15.5199997201562 574
15.5399997197092 565
15.5599997192621 548
15.5799997188151 566
15.5999997183681 552
15.619999717921 574
15.639999717474 574
15.659999717027 553
15.6799997165799 557
15.6999997161329 574
15.7199997156858 566
15.7399997152388 582
15.7599997147918 586
15.7799997143447 539
15.7999997138977 588
15.8199997134507 564
15.8399997130036 631
15.8599997125566 586
15.8799997121096 610
15.8999997116625 565
15.9199997112155 605
15.9399997107685 587
15.9599997103214 618
15.9799997098744 576
15.9999997094274 557
16.0199997089803 568
16.0399997085333 551
16.0599997080863 608
16.0799997076392 597
16.0999997071922 577
16.1199997067451 593
16.1399997062981 594
16.1599997058511 623
16.179999705404 572
16.199999704957 583
16.21999970451 602
16.2399997040629 608
16.2599997036159 614
16.2799997031689 629
16.2999997027218 611
16.3199997022748 594
16.3399997018278 601
16.3599997013807 615
16.3799997009337 663
16.3999997004867 582
16.4199997000396 658
16.4399996995926 629
16.4599996991456 605
16.4799996986985 635
16.4999996982515 616
16.5199996978045 579
16.5399996973574 611
16.5599996969104 649
16.5799996964633 620
16.5999996960163 640
16.6199996955693 684
16.6399996951222 584
16.6599996946752 633
16.6799996942282 622
16.6999996937811 688
16.7199996933341 654
16.7399996928871 715
16.75999969244 634
16.779999691993 624
16.799999691546 658
16.8199996910989 632
16.8399996906519 653
16.8599996902049 656
16.8799996897578 690
16.8999996893108 679
16.9199996888638 673
16.9399996884167 724
16.9599996879697 738
16.9799996875226 779
16.9999996870756 827
17.0199996866286 879
17.0399996861815 915
17.0599996857345 917
17.0799996852875 980
17.0999996848404 1066
17.1199996843934 1129
17.1399996839464 1152
17.1599996834993 1167
17.1799996830523 1114
17.1999996826053 1020
17.2199996821582 943
17.2399996817112 838
17.2599996812642 754
17.2799996808171 712
17.2999996803701 681
17.3199996799231 693
17.339999679476 679
17.359999679029 752
17.379999678582 715
17.3999996781349 684
17.4199996776879 674
17.4399996772408 664
17.4599996767938 732
17.4799996763468 696
17.4999996758997 714
17.5199996754527 675
17.5399996750057 715
17.5599996745586 665
17.5799996741116 731
17.5999996736646 698
17.6199996732175 694
17.6399996727705 730
17.6599996723235 748
17.6799996718764 636
17.6999996714294 696
17.7199996709824 676
17.7399996705353 692
17.7599996700883 688
17.7799996696413 724
17.7999996691942 744
17.8199996687472 727
17.8399996683002 740
17.8599996678531 708
17.8799996674061 738
17.899999666959 704
17.919999666512 689
17.939999666065 734
17.9599996656179 711
17.9799996651709 726
17.9999996647239 703
18.0199996642768 720
18.0399996638298 735
18.0599996633828 735
18.0799996629357 731
18.0999996624887 723
18.1199996620417 758
18.1399996615946 742
18.1599996611476 695
18.1799996607006 721
18.1999996602535 722
18.2199996598065 758
18.2399996593595 776
18.2599996589124 762
18.2799996584654 744
18.2999996580184 726
18.3199996575713 749
18.3399996571243 753
18.3599996566772 721
18.3799996562302 772
18.3999996557832 732
18.4199996553361 748
18.4399996548891 762
18.4599996544421 736
18.479999653995 734
18.499999653548 797
18.519999653101 819
18.5399996526539 797
18.5599996522069 815
18.5799996517599 806
18.5999996513128 790
18.6199996508658 796
18.6399996504188 771
18.6599996499717 765
18.6799996495247 801
18.6999996490777 791
18.7199996486306 778
18.7399996481836 817
18.7599996477366 811
18.7799996472895 784
18.7999996468425 819
18.8199996463954 776
18.8399996459484 841
18.8599996455014 793
18.8799996450543 812
18.8999996446073 808
18.9199996441603 860
18.9399996437132 806
18.9599996432662 808
18.9799996428192 843
18.9999996423721 837
19.0199996419251 885
19.0399996414781 857
19.059999641031 822
19.079999640584 848
19.099999640137 829
19.1199996396899 804
19.1399996392429 849
19.1599996387959 847
19.1799996383488 826
19.1999996379018 811
19.2199996374547 876
19.2399996370077 845
19.2599996365607 864
19.2799996361136 876
19.2999996356666 911
19.3199996352196 866
19.3399996347725 897
19.3599996343255 807
19.3799996338785 914
19.3999996334314 847
19.4199996329844 921
19.4399996325374 858
19.4599996320903 895
19.4799996316433 853
19.4999996311963 906
19.5199996307492 902
19.5399996303022 924
19.5599996298552 910
19.5799996294081 911
19.5999996289611 890
19.6199996285141 902
19.639999628067 930
19.65999962762 900
19.6799996271729 896
19.6999996267259 897
19.7199996262789 869
19.7399996258318 930
19.7599996253848 943
19.7799996249378 922
19.7999996244907 898
19.8199996240437 881
19.8399996235967 924
19.8599996231496 941
19.8799996227026 903
19.8999996222556 908
19.9199996218085 872
19.9399996213615 845
19.9599996209145 887
19.9799996204674 959
19.9999996200204 920
