3 2467
3.01999999955297 2242
3.03999999910593 2281
3.0599999986589 2045
3.07999999821186 1973
3.09999999776483 1912
3.11999999731779 1865
3.13999999687076 1829
3.15999999642372 1854
3.17999999597669 1781
3.19999999552965 1795
3.21999999508262 1783
3.23999999463558 1775
3.25999999418855 1743
3.27999999374151 1762
3.29999999329448 1721
3.31999999284744 1766
3.33999999240041 1632
3.35999999195337 1745
3.37999999150634 1744
3.3999999910593 1716
3.41999999061227 1622
3.43999999016523 1620
3.4599999897182 1685
3.47999998927116 1631
3.49999998882413 1578
3.51999998837709 1602
3.53999998793006 1509
3.55999998748302 1594
3.57999998703599 1539
3.59999998658895 1581
3.61999998614192 1573
3.63999998569489 1501
3.65999998524785 1563
3.67999998480082 1447
3.69999998435378 1491
3.71999998390675 1421
3.73999998345971 1432
3.75999998301268 1428
3.77999998256564 1433
3.79999998211861 1399
3.81999998167157 1432
3.83999998122454 1401
3.8599999807775 1371
3.87999998033047 1414
3.89999997988343 1356
3.9199999794364 1392
3.93999997898936 1298
3.95999997854233 1382
3.97999997809529 1415
3.99999997764826 1401
4.01999997720122 1347
4.03999997675419 1303
4.05999997630715 1310
4.07999997586012 1319
4.09999997541308 1268
4.11999997496605 1332
4.13999997451901 1251
4.15999997407198 1232
4.17999997362494 1281
4.19999997317791 1253
4.21999997273087 1240
4.23999997228384 1199
4.25999997183681 1180
4.27999997138977 1175
4.29999997094274 1161
4.3199999704957 1178
4.33999997004867 1116
4.35999996960163 1148
4.3799999691546 1148
4.39999996870756 1217
4.41999996826053 1207
4.43999996781349 1171
4.45999996736646 1173
4.47999996691942 1181
4.49999996647239 1129
4.51999996602535 1155
4.53999996557832 1106
4.55999996513128 1123
4.57999996468425 1097
4.59999996423721 1154
4.61999996379018 1124
4.63999996334314 1068
4.65999996289611 1038
4.67999996244907 1140
4.69999996200204 1108
4.719999961555 1119
4.73999996110797 1085
4.75999996066093 1110
4.7799999602139 1081
4.79999995976686 1052
4.81999995931983 1056
4.83999995887279 1087
4.85999995842576 1022
4.87999995797873 1051
4.89999995753169 1139
4.91999995708466 1019
4.93999995663762 992
4.95999995619059 1024
4.97999995574355 955
4.99999995529652 1005
5.01999995484948 983
5.03999995440245 1072
5.05999995395541 1030
5.07999995350838 976
5.09999995306134 1044
5.11999995261431 984
5.13999995216727 984
5.15999995172024 1021
5.1799999512732 970
5.19999995082617 964
5.21999995037913 989
5.2399999499321 1018
5.25999994948506 1035
5.27999994903803 963
5.29999994859099 1025
5.31999994814396 1011
5.33999994769692 996
5.35999994724989 957
5.37999994680285 1001
5.39999994635582 948
5.41999994590878 1026
5.43999994546175 1001
5.45999994501471 980
5.47999994456768 1003
5.49999994412065 957
5.51999994367361 963
5.53999994322658 991
5.55999994277954 986
5.57999994233251 942
5.59999994188547 933
5.61999994143844 950
5.6399999409914 966
5.65999994054437 973
5.67999994009733 951
5.6999999396503 971
5.71999993920326 948
5.73999993875623 960
5.75999993830919 919
5.77999993786216 927
5.79999993741512 952
5.81999993696809 957
5.83999993652105 953
5.85999993607402 976
5.87999993562698 924
5.89999993517995 970
5.91999993473291 926
5.93999993428588 996
5.95999993383884 975
5.97999993339181 936
5.99999993294477 957
6.01999993249774 944
6.0399999320507 927
6.05999993160367 923
6.07999993115663 905
6.0999999307096 980
6.11999993026257 891
6.13999992981553 908
6.1599999293685 934
6.17999992892146 924
6.19999992847443 957
6.21999992802739 980
6.23999992758036 949
6.25999992713332 924
6.27999992668629 927
6.29999992623925 892
6.31999992579222 901
6.33999992534518 938
6.35999992489815 965
6.37999992445111 907
6.39999992400408 925
6.41999992355704 890
6.43999992311001 901
6.45999992266297 925
6.47999992221594 935
6.4999999217689 956
6.51999992132187 886
6.53999992087483 939
6.5599999204278 931
6.57999991998076 890
6.59999991953373 896
6.61999991908669 910
6.63999991863966 896
6.65999991819262 915
6.67999991774559 918
6.69999991729855 978
6.71999991685152 915
6.73999991640449 901
6.75999991595745 911
6.77999991551042 887
6.79999991506338 913
6.81999991461635 896
6.83999991416931 906
6.85999991372228 922
6.87999991327524 863
6.89999991282821 931
6.91999991238117 889
6.93999991193414 961
6.9599999114871 939
6.97999991104007 855
6.99999991059303 930
7.019999910146 911
7.03999990969896 935
7.05999990925193 933
7.07999990880489 898
7.09999990835786 851
7.11999990791082 883
7.13999990746379 902
7.15999990701675 899
7.17999990656972 946
7.19999990612268 880
7.21999990567565 880
7.23999990522861 875
7.25999990478158 853
7.27999990433454 868
7.29999990388751 919
7.31999990344047 882
7.33999990299344 898
7.35999990254641 901
7.37999990209937 958
7.39999990165234 868
7.4199999012053 915
7.43999990075827 877
7.45999990031123 867
7.4799998998642 934
7.49999989941716 857
7.51999989897013 859
7.53999989852309 927
7.55999989807606 894
7.57999989762902 895
7.59999989718199 888
7.61999989673495 894
7.63999989628792 943
7.65999989584088 907
7.67999989539385 897
7.69999989494681 944
7.71999989449978 901
7.73999989405274 889
7.75999989360571 833
7.77999989315867 934
7.79999989271164 934
7.8199998922646 839
7.83999989181757 898
7.85999989137053 918
7.8799998909235 877
7.89999989047646 880
7.91999989002943 898
7.9399998895824 859
7.95999988913536 920
7.97999988868833 890
7.99999988824129 906
8.01999988779426 915
8.03999988734722 900
8.05999988690019 907
8.07999988645315 891
8.09999988600612 880
8.11999988555908 866
8.13999988511205 882
8.15999988466501 853
8.17999988421798 862
8.19999988377094 880
8.21999988332391 828
8.23999988287687 850
8.25999988242984 892
8.2799998819828 882
8.29999988153577 899
8.31999988108873 881
8.3399998806417 860
8.35999988019466 903
8.37999987974763 894
8.39999987930059 869
8.41999987885356 886
8.43999987840652 805
8.45999987795949 881
8.47999987751245 907
8.49999987706542 879
8.51999987661839 841
8.53999987617135 836
8.55999987572432 862
8.57999987527728 875
8.59999987483025 901
8.61999987438321 856
8.63999987393618 886
8.65999987348914 932
8.67999987304211 866
8.69999987259507 821
8.71999987214804 815
8.739999871701 901
8.75999987125397 840
8.77999987080693 822
8.7999998703599 849
8.81999986991286 845
8.83999986946583 833
8.85999986901879 933
8.87999986857176 840
8.89999986812472 812
8.91999986767769 846
8.93999986723065 880
8.95999986678362 858
8.97999986633658 858
8.99999986588955 807
9.01999986544251 866
9.03999986499548 879
9.05999986454844 882
9.07999986410141 915
9.09999986365438 867
9.11999986320734 848
9.13999986276031 860
9.15999986231327 817
9.17999986186624 862
9.1999998614192 856
9.21999986097217 798
9.23999986052513 836
9.2599998600781 825
9.27999985963106 835
9.29999985918403 822
9.31999985873699 843
9.33999985828996 789
9.35999985784292 791
9.37999985739589 802
9.39999985694885 847
9.41999985650182 810
9.43999985605478 838
9.45999985560775 769
9.47999985516071 864
9.49999985471368 794
9.51999985426664 867
9.53999985381961 837
9.55999985337257 810
9.57999985292554 844
9.5999998524785 827
9.61999985203147 840
9.63999985158443 861
9.6599998511374 850
9.67999985069037 817
9.69999985024333 829
9.7199998497963 831
9.73999984934926 845
9.75999984890223 861
9.77999984845519 860
9.79999984800816 811
9.81999984756112 873
9.83999984711409 802
9.85999984666705 805
9.87999984622002 803
9.89999984577298 787
9.91999984532595 843
9.93999984487891 808
9.95999984443188 819
9.97999984398484 861
9.99999984353781 763
10.0199998430908 821
10.0399998426437 811
10.0599998421967 816
10.0799998417497 857
10.0999998413026 868
10.1199998408556 821
10.1399998404086 831
10.1599998399615 788
10.1799998395145 829
10.1999998390675 807
10.2199998386204 817
10.2399998381734 771
10.2599998377264 800
10.2799998372793 812
10.2999998368323 784
10.3199998363853 756
10.3399998359382 775
10.3599998354912 822
10.3799998350441 809
10.3999998345971 779
10.4199998341501 812
10.439999833703 785
10.459999833256 842
10.479999832809 813
10.4999998323619 791
10.5199998319149 809
10.5399998314679 770
10.5599998310208 777
10.5799998305738 813
10.5999998301268 801
10.6199998296797 765
10.6399998292327 801
10.6599998287857 818
10.6799998283386 821
10.6999998278916 745
10.7199998274446 753
10.7399998269975 800
10.7599998265505 790
10.7799998261034 781
10.7999998256564 771
10.8199998252094 850
10.8399998247623 815
10.8599998243153 770
10.8799998238683 850
10.8999998234212 833
10.9199998229742 757
10.9399998225272 805
10.9599998220801 773
10.9799998216331 805
10.9999998211861 823
11.019999820739 787
11.039999820292 809
11.059999819845 772
11.0799998193979 782
11.0999998189509 766
11.1199998185039 769
11.1399998180568 786
11.1599998176098 796
11.1799998171628 776
11.1999998167157 771
11.2199998162687 805
11.2399998158216 808
11.2599998153746 844
11.2799998149276 797
11.2999998144805 818
11.3199998140335 839
11.3399998135865 809
11.3599998131394 765
11.3799998126924 761
11.3999998122454 794
11.4199998117983 799
11.4399998113513 783
11.4599998109043 760
11.4799998104572 801
11.4999998100102 833
11.5199998095632 732
11.5399998091161 872
11.5599998086691 745
11.5799998082221 758
11.599999807775 810
11.619999807328 782
11.639999806881 781
11.6599998064339 772
11.6799998059869 774
11.6999998055398 778
11.7199998050928 803
11.7399998046458 810
11.7599998041987 748
11.7799998037517 790
11.7999998033047 825
11.8199998028576 789
11.8399998024106 811
11.8599998019636 739
11.8799998015165 780
11.8999998010695 816
11.9199998006225 848
11.9399998001754 816
11.9599997997284 819
11.9799997992814 749
11.9999997988343 779
12.0199997983873 809
12.0399997979403 744
12.0599997974932 759
12.0799997970462 788
12.0999997965992 772
12.1199997961521 780
12.1399997957051 834
12.159999795258 786
12.179999794811 760
12.199999794364 760
12.2199997939169 805
12.2399997934699 817
12.2599997930229 810
12.2799997925758 780
12.2999997921288 832
12.3199997916818 845
12.3399997912347 778
12.3599997907877 804
12.3799997903407 773
12.3999997898936 757
12.4199997894466 774
12.4399997889996 786
12.4599997885525 783
12.4799997881055 814
12.4999997876585 779
12.5199997872114 856
12.5399997867644 777
12.5599997863173 768
12.5799997858703 803
12.5999997854233 749
12.6199997849762 794
12.6399997845292 796
12.6599997840822 754
12.6799997836351 810
12.6999997831881 785
12.7199997827411 794
12.739999782294 824
12.759999781847 827
12.7799997814 815
12.7999997809529 840
12.8199997805059 782
12.8399997800589 844
12.8599997796118 829
12.8799997791648 782
12.8999997787178 798
12.9199997782707 793
12.9399997778237 810
12.9599997773767 805
12.9799997769296 800
12.9999997764826 796
13.0199997760355 864
13.0399997755885 850
13.0599997751415 813
13.0799997746944 812
13.0999997742474 841
13.1199997738004 819
13.1399997733533 833
13.1599997729063 800
13.1799997724593 784
13.1999997720122 831
13.2199997715652 805
13.2399997711182 862
13.2599997706711 840
13.2799997702241 870
13.2999997697771 896
13.31999976933 890
13.339999768883 841
13.359999768436 801
13.3799997679889 851
13.3999997675419 818
13.4199997670949 786
13.4399997666478 853
13.4599997662008 840
13.4799997657537 812
13.4999997653067 837
13.5199997648597 803
13.5399997644126 808
13.5599997639656 884
13.5799997635186 811
13.5999997630715 783
13.6199997626245 821
13.6399997621775 826
13.6599997617304 791
13.6799997612834 892
13.6999997608364 827
13.7199997603893 859
13.7399997599423 782
13.7599997594953 838
13.7799997590482 813
13.7999997586012 788
13.8199997581542 844
13.8399997577071 820
13.8599997572601 854
13.879999756813 832
13.899999756366 818
13.919999755919 856
13.9399997554719 883
13.9599997550249 851
13.9799997545779 832
13.9999997541308 834
14.0199997536838 867
14.0399997532368 820
14.0599997527897 826
14.0799997523427 825
14.0999997518957 856
14.1199997514486 773
14.1399997510016 858
14.1599997505546 812
14.1799997501075 827
14.1999997496605 876
14.2199997492135 847
14.2399997487664 871
14.2599997483194 872
14.2799997478724 849
14.2999997474253 863
14.3199997469783 887
14.3399997465312 857
14.3599997460842 871
14.3799997456372 867
14.3999997451901 833
14.4199997447431 821
14.4399997442961 815
14.459999743849 864
14.479999743402 853
14.499999742955 900
14.5199997425079 889
14.5399997420609 852
14.5599997416139 885
14.5799997411668 894
14.5999997407198 844
14.6199997402728 855
14.6399997398257 843
14.6599997393787 884
14.6799997389317 888
14.6999997384846 879
14.7199997380376 822
14.7399997375906 883
14.7599997371435 852
14.7799997366965 899
14.7999997362494 932
14.8199997358024 914
14.8399997353554 886
14.8599997349083 873
14.8799997344613 887
14.8999997340143 873
14.9199997335672 886
14.9399997331202 864
14.9599997326732 896
14.9799997322261 891
14.9999997317791 901
15.0199997313321 874
15.039999730885 864
15.059999730438 896
15.079999729991 880
15.0999997295439 891
15.1199997290969 884
15.1399997286499 864
15.1599997282028 859
15.1799997277558 884
15.1999997273088 895
15.2199997268617 885
15.2399997264147 861
15.2599997259676 933
15.2799997255206 929
15.2999997250736 944
15.3199997246265 1006
15.3399997241795 925
15.3599997237325 908
15.3799997232854 940
15.3999997228384 928
15.4199997223914 916
15.4399997219443 897
15.4599997214973 914
15.4799997210503 933
15.4999997206032 940
15.5199997201562 934
15.5399997197092 882
15.5599997192621 923
15.5799997188151 915
15.5999997183681 938
15.619999717921 929
15.639999717474 902
15.659999717027 949
15.6799997165799 942
15.6999997161329 894
15.7199997156858 919
15.7399997152388 896
15.7599997147918 909
15.7799997143447 917
15.7999997138977 999
15.8199997134507 941
15.8399997130036 936
15.8599997125566 967
15.8799997121096 989
15.8999997116625 996
15.9199997112155 947
15.9399997107685 954
15.9599997103214 990
15.9799997098744 936
15.9999997094274 1008
16.0199997089803 942
16.0399997085333 982
16.0599997080863 965
16.0799997076392 966
16.0999997071922 934
16.1199997067451 940
16.1399997062981 976
16.1599997058511 944
16.179999705404 987
16.199999704957 951
16.21999970451 974
16.2399997040629 1023
16.2599997036159 1015
16.2799997031689 912
16.2999997027218 967
16.3199997022748 979
16.3399997018278 1026
16.3599997013807 1009
16.3799997009337 965
16.3999997004867 1035
16.4199997000396 1005
16.4399996995926 1023
16.4599996991456 1016
16.4799996986985 1013
16.4999996982515 1016
16.5199996978045 1018
16.5399996973574 1043
16.5599996969104 987
16.5799996964633 1020
16.5999996960163 1070
16.6199996955693 1089
16.6399996951222 1092
16.6599996946752 1067
16.6799996942282 1144
16.6999996937811 1118
16.7199996933341 1156
16.7399996928871 1188
16.75999969244 1186
16.779999691993 1242
16.799999691546 1260
16.8199996910989 1381
16.8399996906519 1385
16.8599996902049 1470
16.8799996897578 1617
16.8999996893108 1714
16.9199996888638 1947
16.9399996884167 2036
16.9599996879697 2274
16.9799996875226 2499
16.9999996870756 2609
17.0199996866286 2655
17.0399996861815 2374
17.0599996857345 2166
17.0799996852875 1941
17.0999996848404 1705
17.1199996843934 1581
17.1399996839464 1423
17.1599996834993 1349
17.1799996830523 1283
17.1999996826053 1221
17.2199996821582 1180
17.2399996817112 1141
17.2599996812642 1176
17.2799996808171 1162
17.2999996803701 1058
17.3199996799231 1115
17.339999679476 1124
17.359999679029 1153
17.379999678582 1143
17.3999996781349 1104
17.4199996776879 1116
17.4399996772408 1184
17.4599996767938 1120
17.4799996763468 1125
17.4999996758997 1092
17.5199996754527 1050
17.5399996750057 1076
17.5599996745586 1146
17.5799996741116 1145
17.5999996736646 1070
17.6199996732175 1143
17.6399996727705 1124
17.6599996723235 1109
17.6799996718764 1148
17.6999996714294 1205
17.7199996709824 1172
17.7399996705353 1132
17.7599996700883 1143
17.7799996696413 1116
17.7999996691942 1176
17.8199996687472 1222
17.8399996683002 1172
17.8599996678531 1155
17.8799996674061 1190
17.899999666959 1142
17.919999666512 1214
17.939999666065 1247
17.9599996656179 1193
17.9799996651709 1263
17.9999996647239 1264
18.0199996642768 1240
18.0399996638298 1175
18.0599996633828 1193
18.0799996629357 1182
18.0999996624887 1224
18.1199996620417 1156
18.1399996615946 1178
18.1599996611476 1212
18.1799996607006 1214
18.1999996602535 1225
18.2199996598065 1200
18.2399996593595 1175
18.2599996589124 1257
18.2799996584654 1204
18.2999996580184 1233
18.3199996575713 1283
18.3399996571243 1220
18.3599996566772 1221
18.3799996562302 1191
18.3999996557832 1287
18.4199996553361 1282
18.4399996548891 1245
18.4599996544421 1258
18.479999653995 1290
18.499999653548 1198
18.519999653101 1218
18.5399996526539 1294
18.5599996522069 1360
18.5799996517599 1286
18.5999996513128 1283
18.6199996508658 1296
18.6399996504188 1270
18.6599996499717 1291
18.6799996495247 1300
18.6999996490777 1284
18.7199996486306 1344
18.7399996481836 1309
18.7599996477366 1353
18.7799996472895 1386
18.7999996468425 1279
18.8199996463954 1290
18.8399996459484 1313
18.8599996455014 1394
18.8799996450543 1296
18.8999996446073 1338
18.9199996441603 1306
18.9399996437132 1359
18.9599996432662 1343
18.9799996428192 1301
18.9999996423721 1338
19.0199996419251 1303
19.0399996414781 1319
19.059999641031 1301
19.079999640584 1328
19.099999640137 1370
19.1199996396899 1355
19.1399996392429 1269
19.1599996387959 1421
19.1799996383488 1351
19.1999996379018 1347
19.2199996374547 1392
19.2399996370077 1305
19.2599996365607 1367
19.2799996361136 1315
19.2999996356666 1355
19.3199996352196 1418
19.3399996347725 1362
19.3599996343255 1376
19.3799996338785 1340
19.3999996334314 1428
19.4199996329844 1362
19.4399996325374 1399
19.4599996320903 1448
19.4799996316433 1382
19.4999996311963 1364
19.5199996307492 1440
19.5399996303022 1411
19.5599996298552 1462
19.5799996294081 1412
19.5999996289611 1469
19.6199996285141 1472
19.639999628067 1487
19.65999962762 1393
19.6799996271729 1436
19.6999996267259 1420
19.7199996262789 1439
19.7399996258318 1477
19.7599996253848 1495
19.7799996249378 1472
19.7999996244907 1489
19.8199996240437 1482
19.8399996235967 1474
19.8599996231496 1482
19.8799996227026 1473
19.8999996222556 1555
19.9199996218085 1561
19.9399996213615 1521
19.9599996209145 1518
19.9799996204674 1521
19.9999996200204 1480
