3 2033
3.01999999955297 1957
3.03999999910593 1725
3.0599999986589 1594
3.07999999821186 1488
3.09999999776483 1517
3.11999999731779 1387
3.13999999687076 1387
3.15999999642372 1391
3.17999999597669 1383
3.19999999552965 1372
3.21999999508262 1316
3.23999999463558 1283
3.25999999418855 1315
3.27999999374151 1270
3.29999999329448 1279
3.31999999284744 1240
3.33999999240041 1312
3.35999999195337 1260
3.37999999150634 1292
3.3999999910593 1230
3.41999999061227 1267
3.43999999016523 1198
3.4599999897182 1186
3.47999998927116 1176
3.49999998882413 1153
3.51999998837709 1169
3.53999998793006 1121
3.55999998748302 1167
3.57999998703599 1168
3.59999998658895 1127
3.61999998614192 1181
3.63999998569489 1124
3.65999998524785 1138
3.67999998480082 1089
3.69999998435378 1163
3.71999998390675 1092
3.73999998345971 1083
3.75999998301268 1072
3.77999998256564 1075
3.79999998211861 1119
3.81999998167157 1068
3.83999998122454 997
3.8599999807775 1059
3.87999998033047 1046
3.89999997988343 1014
3.9199999794364 998
3.93999997898936 958
3.95999997854233 947
3.97999997809529 980
3.99999997764826 926
4.01999997720122 956
4.03999997675419 999
4.05999997630715 955
4.07999997586012 968
4.09999997541308 889
4.11999997496605 947
4.13999997451901 916
4.15999997407198 942
4.17999997362494 958
4.19999997317791 891
4.21999997273087 915
4.23999997228384 906
4.25999997183681 896
4.27999997138977 818
4.29999997094274 841
4.3199999704957 874
4.33999997004867 930
4.35999996960163 893
4.3799999691546 901
4.39999996870756 896
4.41999996826053 868
4.43999996781349 886
4.45999996736646 849
4.47999996691942 854
4.49999996647239 868
4.51999996602535 797
4.53999996557832 784
4.55999996513128 795
4.57999996468425 850
4.59999996423721 814
4.61999996379018 819
4.63999996334314 843
4.65999996289611 774
4.67999996244907 825
4.69999996200204 861
4.719999961555 817
4.73999996110797 776
4.75999996066093 810
4.7799999602139 824
4.79999995976686 788
4.81999995931983 792
4.83999995887279 798
4.85999995842576 785
4.87999995797873 772
4.89999995753169 759
4.91999995708466 800
4.93999995663762 787
4.95999995619059 759
4.97999995574355 772
4.99999995529652 785
5.01999995484948 783
5.03999995440245 775
5.05999995395541 779
5.07999995350838 699
5.09999995306134 717
5.11999995261431 798
5.13999995216727 786
5.15999995172024 775
5.1799999512732 736
5.19999995082617 792
5.21999995037913 772
5.2399999499321 765
5.25999994948506 719
5.27999994903803 768
5.29999994859099 746
5.31999994814396 714
5.33999994769692 771
5.35999994724989 769
5.37999994680285 700
5.39999994635582 711
5.41999994590878 727
5.43999994546175 748
5.45999994501471 739
5.47999994456768 701
5.49999994412065 678
5.51999994367361 752
5.53999994322658 744
5.55999994277954 706
5.57999994233251 731
5.59999994188547 729
5.61999994143844 759
5.6399999409914 748
5.65999994054437 715
5.67999994009733 714
5.6999999396503 712
5.71999993920326 697
5.73999993875623 744
5.75999993830919 744
5.77999993786216 724
5.79999993741512 726
5.81999993696809 729
5.83999993652105 737
5.85999993607402 692
5.87999993562698 759
5.89999993517995 697
5.91999993473291 740
5.93999993428588 662
5.95999993383884 708
5.97999993339181 697
5.99999993294477 719
6.01999993249774 701
6.0399999320507 697
6.05999993160367 740
6.07999993115663 692
6.0999999307096 693
6.11999993026257 707
6.13999992981553 743
6.1599999293685 727
6.17999992892146 698
6.19999992847443 751
6.21999992802739 768
6.23999992758036 675
6.25999992713332 708
6.27999992668629 762
6.29999992623925 675
6.31999992579222 719
6.33999992534518 713
6.35999992489815 733
6.37999992445111 752
6.39999992400408 702
6.41999992355704 716
6.43999992311001 723
6.45999992266297 727
6.47999992221594 723
6.4999999217689 731
6.51999992132187 667
6.53999992087483 776
6.5599999204278 734
6.57999991998076 689
6.59999991953373 721
6.61999991908669 740
6.63999991863966 742
6.65999991819262 732
6.67999991774559 730
6.69999991729855 710
6.71999991685152 728
6.73999991640449 683
6.75999991595745 719
6.77999991551042 656
6.79999991506338 719
6.81999991461635 715
6.83999991416931 673
6.85999991372228 715
6.87999991327524 728
6.89999991282821 707
6.91999991238117 726
6.93999991193414 727
6.9599999114871 725
6.97999991104007 691
6.99999991059303 722
7.019999910146 666
7.03999990969896 654
7.05999990925193 690
7.07999990880489 737
7.09999990835786 668
7.11999990791082 719
7.13999990746379 685
7.15999990701675 700
7.17999990656972 646
7.19999990612268 685
7.21999990567565 724
7.23999990522861 712
7.25999990478158 659
7.27999990433454 676
7.29999990388751 676
7.31999990344047 700
7.33999990299344 700
7.35999990254641 644
7.37999990209937 724
7.39999990165234 700
7.4199999012053 658
7.43999990075827 670
7.45999990031123 665
7.4799998998642 658
7.49999989941716 653
7.51999989897013 654
7.53999989852309 674
7.55999989807606 684
7.57999989762902 668
7.59999989718199 655
7.61999989673495 659
7.63999989628792 692
7.65999989584088 649
7.67999989539385 643
7.69999989494681 686
7.71999989449978 697
7.73999989405274 660
7.75999989360571 675
7.77999989315867 694
7.79999989271164 662
7.8199998922646 730
7.83999989181757 680
7.85999989137053 668
7.8799998909235 640
7.89999989047646 647
7.91999989002943 637
7.9399998895824 658
7.95999988913536 664
7.97999988868833 673
7.99999988824129 686
8.01999988779426 640
8.03999988734722 655
8.05999988690019 666
8.07999988645315 662
8.09999988600612 659
8.11999988555908 674
8.13999988511205 625
8.15999988466501 677
8.17999988421798 656
8.19999988377094 617
8.21999988332391 667
8.23999988287687 629
8.25999988242984 612
8.2799998819828 663
8.29999988153577 678
8.31999988108873 651
8.3399998806417 681
8.35999988019466 701
8.37999987974763 636
8.39999987930059 655
8.41999987885356 676
8.43999987840652 663
8.45999987795949 652
8.47999987751245 663
8.49999987706542 677
8.51999987661839 621
8.53999987617135 628
8.55999987572432 645
8.57999987527728 676
8.59999987483025 673
8.61999987438321 630
8.63999987393618 656
8.65999987348914 585
8.67999987304211 627
8.69999987259507 614
8.71999987214804 645
8.739999871701 623
8.75999987125397 659
8.77999987080693 614
8.7999998703599 660
8.81999986991286 646
8.83999986946583 622
8.85999986901879 634
8.87999986857176 617
8.89999986812472 652
8.91999986767769 605
8.93999986723065 621
8.95999986678362 650
8.97999986633658 628
8.99999986588955 648
9.01999986544251 637
9.03999986499548 639
9.05999986454844 646
9.07999986410141 611
9.09999986365438 636
9.11999986320734 611
9.13999986276031 626
9.15999986231327 599
9.17999986186624 623
9.1999998614192 619
9.21999986097217 615
9.23999986052513 591
9.2599998600781 619
9.27999985963106 611
9.29999985918403 669
9.31999985873699 610
9.33999985828996 593
9.35999985784292 615
9.37999985739589 623
9.39999985694885 570
9.41999985650182 637
9.43999985605478 601
9.45999985560775 642
9.47999985516071 626
9.49999985471368 636
9.51999985426664 625
9.53999985381961 622
9.55999985337257 600
9.57999985292554 596
9.5999998524785 625
9.61999985203147 638
9.63999985158443 624
9.6599998511374 631
9.67999985069037 654
9.69999985024333 655
9.7199998497963 602
9.73999984934926 617
9.75999984890223 631
9.77999984845519 608
9.79999984800816 562
9.81999984756112 601
9.83999984711409 562
9.85999984666705 629
9.87999984622002 623
9.89999984577298 636
9.91999984532595 612
9.93999984487891 633
9.95999984443188 615
9.97999984398484 652
9.99999984353781 610
10.0199998430908 633
10.0399998426437 607
10.0599998421967 586
10.0799998417497 659
10.0999998413026 607
10.1199998408556 618
10.1399998404086 600
10.1599998399615 633
10.1799998395145 624
10.1999998390675 586
10.2199998386204 603
10.2399998381734 607
10.2599998377264 606
10.2799998372793 633
10.2999998368323 630
10.3199998363853 602
10.3399998359382 623
10.3599998354912 601
10.3799998350441 611
10.3999998345971 590
10.4199998341501 641
10.439999833703 620
10.459999833256 593
10.479999832809 602
10.4999998323619 604
10.5199998319149 613
10.5399998314679 612
10.5599998310208 579
10.5799998305738 650
10.5999998301268 629
10.6199998296797 588
10.6399998292327 577
10.6599998287857 625
10.6799998283386 599
10.6999998278916 608
10.7199998274446 634
10.7399998269975 604
10.7599998265505 621
10.7799998261034 617
10.7999998256564 642
10.8199998252094 644
10.8399998247623 643
10.8599998243153 611
10.8799998238683 621
10.8999998234212 610
10.9199998229742 597
10.9399998225272 607
10.9599998220801 661
10.9799998216331 639
10.9999998211861 605
11.019999820739 578
11.039999820292 662
11.059999819845 596
11.0799998193979 592
11.0999998189509 584
11.1199998185039 589
11.1399998180568 618
11.1599998176098 643
11.1799998171628 608
11.1999998167157 594
11.2199998162687 609
11.2399998158216 589
11.2599998153746 604
11.2799998149276 560
11.2999998144805 599
11.3199998140335 608
11.3399998135865 611
11.3599998131394 627
11.3799998126924 562
11.3999998122454 603
11.4199998117983 623
11.4399998113513 595
11.4599998109043 606
11.4799998104572 562
11.4999998100102 629
11.5199998095632 573
11.5399998091161 627
11.5599998086691 611
11.5799998082221 578
11.599999807775 583
11.619999807328 579
11.639999806881 577
11.6599998064339 588
11.6799998059869 616
11.6999998055398 584
11.7199998050928 595
11.7399998046458 619
11.7599998041987 600
11.7799998037517 624
11.7999998033047 679
11.8199998028576 602
11.8399998024106 596
11.8599998019636 619
11.8799998015165 608
11.8999998010695 664
11.9199998006225 609
11.9399998001754 616
11.9599997997284 583
11.9799997992814 588
11.9999997988343 607
12.0199997983873 594
12.0399997979403 580
12.0599997974932 579
12.0799997970462 621
12.0999997965992 589
12.1199997961521 623
12.1399997957051 551
12.159999795258 610
12.179999794811 605
12.199999794364 595
12.2199997939169 612
12.2399997934699 607
12.2599997930229 600
12.2799997925758 612
12.2999997921288 629
12.3199997916818 581
12.3399997912347 601
12.3599997907877 628
12.3799997903407 598
12.3999997898936 623
12.4199997894466 610
12.4399997889996 592
12.4599997885525 582
12.4799997881055 620
12.4999997876585 577
12.5199997872114 619
12.5399997867644 614
12.5599997863173 561
12.5799997858703 601
12.5999997854233 630
12.6199997849762 608
12.6399997845292 568
12.6599997840822 619
12.6799997836351 608
12.6999997831881 599
12.7199997827411 639
12.739999782294 594
12.759999781847 593
12.7799997814 604
12.7999997809529 597
12.8199997805059 614
12.8399997800589 596
12.8599997796118 593
12.8799997791648 641
12.8999997787178 599
12.9199997782707 621
12.9399997778237 609
12.9599997773767 622
12.9799997769296 622
12.9999997764826 629
13.0199997760355 647
13.0399997755885 642
13.0599997751415 600
13.0799997746944 643
13.0999997742474 628
13.1199997738004 609
13.1399997733533 579
13.1599997729063 615
13.1799997724593 642
13.1999997720122 653
13.2199997715652 644
13.2399997711182 611
13.2599997706711 648
13.2799997702241 649
13.2999997697771 577
13.31999976933 609
13.339999768883 606
13.359999768436 620
13.3799997679889 609
13.3999997675419 634
13.4199997670949 575
13.4399997666478 618
13.4599997662008 678
13.4799997657537 626
13.4999997653067 668
13.5199997648597 587
13.5399997644126 627
13.5599997639656 636
13.5799997635186 631
13.5999997630715 648
13.6199997626245 660
13.6399997621775 667
13.6599997617304 627
13.6799997612834 673
13.6999997608364 628
13.7199997603893 644
13.7399997599423 644
13.7599997594953 669
13.7799997590482 649
13.7999997586012 610
13.8199997581542 642
13.8399997577071 613
13.8599997572601 632
13.879999756813 664
13.899999756366 641
13.919999755919 612
13.9399997554719 710
13.9599997550249 633
13.9799997545779 575
13.9999997541308 638
14.0199997536838 598
14.0399997532368 641
14.0599997527897 650
14.0799997523427 639
14.0999997518957 646
14.1199997514486 640
14.1399997510016 672
14.1599997505546 626
14.1799997501075 638
14.1999997496605 652
14.2199997492135 656
14.2399997487664 657
14.2599997483194 668
14.2799997478724 629
14.2999997474253 668
14.3199997469783 667
14.3399997465312 674
14.3599997460842 703
14.3799997456372 660
14.3999997451901 666
14.4199997447431 630
14.4399997442961 671
14.459999743849 696
14.479999743402 685
14.499999742955 677
14.5199997425079 638
14.5399997420609 663
14.5599997416139 691
14.5799997411668 668
14.5999997407198 640
14.6199997402728 714
14.6399997398257 706
14.6599997393787 644
14.6799997389317 642
14.6999997384846 660
14.7199997380376 676
14.7399997375906 653
14.7599997371435 699
14.7799997366965 673
14.7999997362494 654
14.8199997358024 717
14.8399997353554 699
14.8599997349083 672
14.8799997344613 664
14.8999997340143 715
14.9199997335672 674
14.9399997331202 710
14.9599997326732 717
14.9799997322261 714
14.9999997317791 723
15.0199997313321 782
15.039999730885 719
15.059999730438 667
15.079999729991 722
15.0999997295439 731
15.1199997290969 727
15.1399997286499 719
15.1599997282028 718
15.1799997277558 727
15.1999997273088 695
15.2199997268617 699
15.2399997264147 679
15.2599997259676 707
15.2799997255206 703
15.2999997250736 714
15.3199997246265 718
15.3399997241795 703
15.3599997237325 738
15.3799997232854 722
15.3999997228384 690
15.4199997223914 742
15.4399997219443 709
15.4599997214973 767
15.4799997210503 690
15.4999997206032 724
15.5199997201562 758
15.5399997197092 760
15.5599997192621 762
15.5799997188151 767
15.5999997183681 743
15.619999717921 772
15.639999717474 713
15.659999717027 786
15.6799997165799 745
15.6999997161329 765
15.7199997156858 801
15.7399997152388 781
15.7599997147918 755
15.7799997143447 744
15.7999997138977 712
15.8199997134507 762
15.8399997130036 755
15.8599997125566 793
15.8799997121096 703
15.8999997116625 763
15.9199997112155 768
15.9399997107685 747
15.9599997103214 782
15.9799997098744 793
15.9999997094274 811
16.0199997089803 815
16.0399997085333 810
16.0599997080863 756
16.0799997076392 734
16.0999997071922 775
16.1199997067451 766
16.1399997062981 795
16.1599997058511 814
16.179999705404 747
16.199999704957 775
16.21999970451 766
16.2399997040629 844
16.2599997036159 828
16.2799997031689 783
16.2999997027218 843
16.3199997022748 815
16.3399997018278 840
16.3599997013807 846
16.3799997009337 840
16.3999997004867 871
16.4199997000396 812
16.4399996995926 806
16.4599996991456 824
16.4799996986985 861
16.4999996982515 808
16.5199996978045 807
16.5399996973574 856
16.5599996969104 876
16.5799996964633 883
16.5999996960163 782
16.6199996955693 860
16.6399996951222 835
16.6599996946752 867
16.6799996942282 842
16.6999996937811 893
16.7199996933341 903
16.7399996928871 828
16.75999969244 863
16.779999691993 881
16.799999691546 842
16.8199996910989 919
16.8399996906519 868
16.8599996902049 885
16.8799996897578 839
16.8999996893108 903
16.9199996888638 912
16.9399996884167 976
16.9599996879697 910
16.9799996875226 962
16.9999996870756 959
17.0199996866286 1038
17.0399996861815 1100
17.0599996857345 1024
17.0799996852875 1128
17.0999996848404 1091
17.1199996843934 1088
17.1399996839464 1076
17.1599996834993 1069
17.1799996830523 1133
17.1999996826053 1084
17.2199996821582 1073
17.2399996817112 1066
17.2599996812642 995
17.2799996808171 1019
17.2999996803701 992
17.3199996799231 1007
17.339999679476 948
17.359999679029 920
17.379999678582 948
17.3999996781349 945
17.4199996776879 984
17.4399996772408 978
17.4599996767938 941
17.4799996763468 1021
17.4999996758997 967
17.5199996754527 987
17.5399996750057 929
17.5599996745586 1012
17.5799996741116 1006
17.5999996736646 983
17.6199996732175 990
17.6399996727705 979
17.6599996723235 1005
17.6799996718764 968
17.6999996714294 946
17.7199996709824 1005
17.7399996705353 1009
17.7599996700883 1026
17.7799996696413 1029
17.7999996691942 1016
17.8199996687472 1035
17.8399996683002 1051
17.8599996678531 1092
17.8799996674061 1028
17.899999666959 1047
17.919999666512 1044
17.939999666065 1014
17.9599996656179 1093
17.9799996651709 1018
17.9999996647239 1068
18.0199996642768 1056
18.0399996638298 1043
18.0599996633828 1096
18.0799996629357 1044
18.0999996624887 1023
18.1199996620417 1019
18.1399996615946 1122
18.1599996611476 1097
18.1799996607006 1079
18.1999996602535 1083
18.2199996598065 1071
18.2399996593595 1082
18.2599996589124 1069
18.2799996584654 1130
18.2999996580184 1059
18.3199996575713 1082
18.3399996571243 1122
18.3599996566772 1106
18.3799996562302 1100
18.3999996557832 1084
18.4199996553361 1089
18.4399996548891 1113
18.4599996544421 1186
18.479999653995 1129
18.499999653548 1163
18.519999653101 1130
18.5399996526539 1182
18.5599996522069 1181
18.5799996517599 1116
18.5999996513128 1187
18.6199996508658 1133
18.6399996504188 1144
18.6599996499717 1226
18.6799996495247 1147
18.6999996490777 1183
18.7199996486306 1200
18.7399996481836 1135
18.7599996477366 1155
18.7799996472895 1156
18.7999996468425 1248
18.8199996463954 1181
18.8399996459484 1190
18.8599996455014 1214
18.8799996450543 1233
18.8999996446073 1209
18.9199996441603 1253
18.9399996437132 1234
18.9599996432662 1243
18.9799996428192 1215
18.9999996423721 1177
19.0199996419251 1218
19.0399996414781 1229
19.059999641031 1153
19.079999640584 1256
19.099999640137 1267
19.1199996396899 1250
19.1399996392429 1166
19.1599996387959 1190
19.1799996383488 1271
19.1999996379018 1255
19.2199996374547 1311
19.2399996370077 1304
19.2599996365607 1215
19.2799996361136 1265
19.2999996356666 1343
19.3199996352196 1250
19.3399996347725 1274
19.3599996343255 1291
19.3799996338785 1287
19.3999996334314 1266
19.4199996329844 1323
19.4399996325374 1274
19.4599996320903 1323
19.4799996316433 1321
19.4999996311963 1307
19.5199996307492 1294
19.5399996303022 1334
19.5599996298552 1272
19.5799996294081 1337
19.5999996289611 1274
19.6199996285141 1333
19.639999628067 1313
19.65999962762 1310
19.6799996271729 1307
19.6999996267259 1350
19.7199996262789 1420
19.7399996258318 1336
19.7599996253848 1313
19.7799996249378 1317
19.7999996244907 1371
19.8199996240437 1340
19.8399996235967 1354
19.8599996231496 1315
19.8799996227026 1350
19.8999996222556 1386
19.9199996218085 1349
19.9399996213615 1366
19.9599996209145 1419
19.9799996204674 1411
19.9999996200204 1416
