3 2296
3.01999999955297 2057
3.03999999910593 1989
3.0599999986589 1858
3.07999999821186 1802
3.09999999776483 1738
3.11999999731779 1733
3.13999999687076 1641
3.15999999642372 1578
3.17999999597669 1605
3.19999999552965 1490
3.21999999508262 1642
3.23999999463558 1576
3.25999999418855 1542
3.27999999374151 1541
3.29999999329448 1463
3.31999999284744 1448
3.33999999240041 1427
3.35999999195337 1440
3.37999999150634 1376
3.3999999910593 1469
3.41999999061227 1392
3.43999999016523 1384
3.4599999897182 1405
3.47999998927116 1418
3.49999998882413 1372
3.51999998837709 1364
3.53999998793006 1367
3.55999998748302 1325
3.57999998703599 1324
3.59999998658895 1316
3.61999998614192 1226
3.63999998569489 1305
3.65999998524785 1301
3.67999998480082 1244
3.69999998435378 1281
3.71999998390675 1230
3.73999998345971 1225
3.75999998301268 1188
3.77999998256564 1233
3.79999998211861 1318
3.81999998167157 1218
3.83999998122454 1158
3.8599999807775 1139
3.87999998033047 1176
3.89999997988343 1175
3.9199999794364 1176
3.93999997898936 1108
3.95999997854233 1105
3.97999997809529 1153
3.99999997764826 1108
4.01999997720122 1168
4.03999997675419 1090
4.05999997630715 1063
4.07999997586012 1104
4.09999997541308 1043
4.11999997496605 1044
4.13999997451901 1048
4.15999997407198 1074
4.17999997362494 1038
4.19999997317791 1029
4.21999997273087 1066
4.23999997228384 1034
4.25999997183681 1002
4.27999997138977 1026
4.29999997094274 1020
4.3199999704957 1079
4.33999997004867 991
4.35999996960163 958
4.3799999691546 976
4.39999996870756 985
4.41999996826053 963
4.43999996781349 988
4.45999996736646 968
4.47999996691942 1034
4.49999996647239 1023
4.51999996602535 1005
4.53999996557832 991
4.55999996513128 936
4.57999996468425 987
4.59999996423721 990
4.61999996379018 960
4.63999996334314 988
4.65999996289611 922
4.67999996244907 916
4.69999996200204 919
4.719999961555 937
4.73999996110797 945
4.75999996066093 906
4.7799999602139 957
4.79999995976686 951
4.81999995931983 925
4.83999995887279 943
4.85999995842576 919
4.87999995797873 909
4.89999995753169 925
4.91999995708466 951
4.93999995663762 896
4.95999995619059 948
4.97999995574355 975
4.99999995529652 947
5.01999995484948 928
5.03999995440245 947
5.05999995395541 934
5.07999995350838 964
5.09999995306134 1041
5.11999995261431 994
5.13999995216727 951
5.15999995172024 1054
5.1799999512732 967
5.19999995082617 981
5.21999995037913 1038
5.2399999499321 1055
5.25999994948506 1002
5.27999994903803 1023
5.29999994859099 1133
5.31999994814396 1048
5.33999994769692 1087
5.35999994724989 1141
5.37999994680285 1146
5.39999994635582 1116
5.41999994590878 1084
5.43999994546175 1196
5.45999994501471 1208
5.47999994456768 1172
5.49999994412065 1213
5.51999994367361 1242
5.53999994322658 1184
5.55999994277954 1213
5.57999994233251 1240
5.59999994188547 1229
5.61999994143844 1316
5.6399999409914 1244
5.65999994054437 1281
5.67999994009733 1230
5.6999999396503 1190
5.71999993920326 1243
5.73999993875623 1269
5.75999993830919 1268
5.77999993786216 1256
5.79999993741512 1230
5.81999993696809 1233
5.83999993652105 1232
5.85999993607402 1111
5.87999993562698 1201
5.89999993517995 1151
5.91999993473291 1087
5.93999993428588 1082
5.95999993383884 1027
5.97999993339181 1001
5.99999993294477 961
6.01999993249774 982
6.0399999320507 934
6.05999993160367 906
6.07999993115663 875
6.0999999307096 922
6.11999993026257 921
6.13999992981553 930
6.1599999293685 864
6.17999992892146 803
6.19999992847443 835
6.21999992802739 860
6.23999992758036 861
6.25999992713332 841
6.27999992668629 860
6.29999992623925 874
6.31999992579222 836
6.33999992534518 858
6.35999992489815 817
6.37999992445111 823
6.39999992400408 831
6.41999992355704 802
6.43999992311001 774
6.45999992266297 809
6.47999992221594 855
6.4999999217689 802
6.51999992132187 816
6.53999992087483 743
6.5599999204278 835
6.57999991998076 810
6.59999991953373 741
6.61999991908669 835
6.63999991863966 815
6.65999991819262 785
6.67999991774559 797
6.69999991729855 862
6.71999991685152 796
6.73999991640449 774
6.75999991595745 841
6.77999991551042 795
6.79999991506338 777
6.81999991461635 767
6.83999991416931 790
6.85999991372228 749
6.87999991327524 746
6.89999991282821 765
6.91999991238117 749
6.93999991193414 770
6.9599999114871 789
6.97999991104007 752
6.99999991059303 808
7.019999910146 748
7.03999990969896 751
7.05999990925193 780
7.07999990880489 735
7.09999990835786 755
7.11999990791082 777
7.13999990746379 756
7.15999990701675 739
7.17999990656972 751
7.19999990612268 736
7.21999990567565 775
7.23999990522861 701
7.25999990478158 773
7.27999990433454 727
7.29999990388751 757
7.31999990344047 736
7.33999990299344 750
7.35999990254641 735
7.37999990209937 741
7.39999990165234 731
7.4199999012053 766
7.43999990075827 739
7.45999990031123 716
7.4799998998642 745
7.49999989941716 731
7.51999989897013 710
7.53999989852309 706
7.55999989807606 748
7.57999989762902 735
7.59999989718199 691
7.61999989673495 713
7.63999989628792 760
7.65999989584088 751
7.67999989539385 764
7.69999989494681 780
7.71999989449978 727
7.73999989405274 768
7.75999989360571 772
7.77999989315867 703
7.79999989271164 747
7.8199998922646 782
7.83999989181757 781
7.85999989137053 745
7.8799998909235 760
7.89999989047646 741
7.91999989002943 731
7.9399998895824 711
7.95999988913536 735
7.97999988868833 726
7.99999988824129 712
8.01999988779426 728
8.03999988734722 729
8.05999988690019 701
8.07999988645315 732
8.09999988600612 776
8.11999988555908 728
8.13999988511205 692
8.15999988466501 756
8.17999988421798 741
8.19999988377094 674
8.21999988332391 722
8.23999988287687 689
8.25999988242984 696
8.2799998819828 726
8.29999988153577 680
8.31999988108873 724
8.3399998806417 713
8.35999988019466 698
8.37999987974763 718
8.39999987930059 726
8.41999987885356 686
8.43999987840652 709
8.45999987795949 695
8.47999987751245 698
8.49999987706542 702
8.51999987661839 705
8.53999987617135 708
8.55999987572432 683
8.57999987527728 734
8.59999987483025 705
8.61999987438321 699
8.63999987393618 693
8.65999987348914 739
8.67999987304211 755
8.69999987259507 731
8.71999987214804 722
8.739999871701 684
8.75999987125397 738
8.77999987080693 713
8.7999998703599 730
8.81999986991286 735
8.83999986946583 718
8.85999986901879 696
8.87999986857176 760
8.89999986812472 731
8.91999986767769 734
8.93999986723065 717
8.95999986678362 759
8.97999986633658 716
8.99999986588955 731
9.01999986544251 714
9.03999986499548 775
9.05999986454844 755
9.07999986410141 766
9.09999986365438 806
9.11999986320734 813
9.13999986276031 762
9.15999986231327 729
9.17999986186624 815
9.1999998614192 747
9.21999986097217 748
9.23999986052513 801
9.2599998600781 757
9.27999985963106 799
9.29999985918403 833
9.31999985873699 816
9.33999985828996 785
9.35999985784292 849
9.37999985739589 837
9.39999985694885 815
9.41999985650182 792
9.43999985605478 795
9.45999985560775 754
9.47999985516071 759
9.49999985471368 749
9.51999985426664 754
9.53999985381961 751
9.55999985337257 753
9.57999985292554 746
9.5999998524785 713
9.61999985203147 737
9.63999985158443 745
9.6599998511374 709
9.67999985069037 723
9.69999985024333 706
9.7199998497963 725
9.73999984934926 708
9.75999984890223 722
9.77999984845519 756
9.79999984800816 708
9.81999984756112 773
9.83999984711409 720
9.85999984666705 745
9.87999984622002 712
9.89999984577298 712
9.91999984532595 663
9.93999984487891 749
9.95999984443188 715
9.97999984398484 735
9.99999984353781 673
10.0199998430908 728
10.0399998426437 680
10.0599998421967 715
10.0799998417497 676
10.0999998413026 708
10.1199998408556 734
10.1399998404086 765
10.1599998399615 715
10.1799998395145 696
10.1999998390675 683
10.2199998386204 687
10.2399998381734 739
10.2599998377264 775
10.2799998372793 742
10.2999998368323 724
10.3199998363853 684
10.3399998359382 665
10.3599998354912 706
10.3799998350441 651
10.3999998345971 665
10.4199998341501 693
10.439999833703 721
10.459999833256 694
10.479999832809 675
10.4999998323619 692
10.5199998319149 674
10.5399998314679 720
10.5599998310208 727
10.5799998305738 712
10.5999998301268 723
10.6199998296797 714
10.6399998292327 703
10.6599998287857 723
10.6799998283386 719
10.6999998278916 746
10.7199998274446 722
10.7399998269975 718
10.7599998265505 719
10.7799998261034 750
10.7999998256564 736
10.8199998252094 741
10.8399998247623 752
10.8599998243153 748
10.8799998238683 748
10.8999998234212 719
10.9199998229742 803
10.9399998225272 757
10.9599998220801 723
10.9799998216331 744
10.9999998211861 791
11.019999820739 766
11.039999820292 748
11.059999819845 744
11.0799998193979 727
11.0999998189509 719
11.1199998185039 712
11.1399998180568 722
11.1599998176098 709
11.1799998171628 720
11.1999998167157 703
11.2199998162687 701
11.2399998158216 657
11.2599998153746 739
11.2799998149276 719
11.2999998144805 705
11.3199998140335 724
11.3399998135865 710
11.3599998131394 676
11.3799998126924 687
11.3999998122454 718
11.4199998117983 751
11.4399998113513 716
11.4599998109043 662
11.4799998104572 713
11.4999998100102 670
11.5199998095632 704
11.5399998091161 726
11.5599998086691 705
11.5799998082221 709
11.599999807775 656
11.619999807328 721
11.639999806881 689
11.6599998064339 697
11.6799998059869 688
11.6999998055398 670
11.7199998050928 701
11.7399998046458 694
11.7599998041987 674
11.7799998037517 659
11.7999998033047 736
11.8199998028576 670
11.8399998024106 690
11.8599998019636 721
11.8799998015165 683
11.8999998010695 723
11.9199998006225 664
11.9399998001754 670
11.9599997997284 707
11.9799997992814 657
11.9999997988343 693
12.0199997983873 687
12.0399997979403 664
12.0599997974932 654
12.0799997970462 701
12.0999997965992 723
12.1199997961521 678
12.1399997957051 699
12.159999795258 677
12.179999794811 691
12.199999794364 657
12.2199997939169 648
12.2399997934699 678
12.2599997930229 710
12.2799997925758 706
12.2999997921288 712
12.3199997916818 695
12.3399997912347 644
12.3599997907877 708
12.3799997903407 685
12.3999997898936 686
12.4199997894466 689
12.4399997889996 680
12.4599997885525 669
12.4799997881055 660
12.4999997876585 690
12.5199997872114 676
12.5399997867644 696
12.5599997863173 654
12.5799997858703 736
12.5999997854233 695
12.6199997849762 711
12.6399997845292 705
12.6599997840822 667
12.6799997836351 707
12.6999997831881 676
12.7199997827411 693
12.739999782294 674
12.759999781847 666
12.7799997814 687
12.7999997809529 697
12.8199997805059 673
12.8399997800589 678
12.8599997796118 698
12.8799997791648 700
12.8999997787178 643
12.9199997782707 628
12.9399997778237 695
12.9599997773767 700
12.9799997769296 670
12.9999997764826 667
13.0199997760355 715
13.0399997755885 713
13.0599997751415 737
13.0799997746944 707
13.0999997742474 686
13.1199997738004 693
13.1399997733533 689
13.1599997729063 683
13.1799997724593 717
13.1999997720122 709
13.2199997715652 689
13.2399997711182 738
13.2599997706711 692
13.2799997702241 681
13.2999997697771 708
13.31999976933 692
13.339999768883 683
13.359999768436 739
13.3799997679889 721
13.3999997675419 708
13.4199997670949 732
13.4399997666478 770
13.4599997662008 716
13.4799997657537 705
13.4999997653067 697
13.5199997648597 761
13.5399997644126 727
13.5599997639656 730
13.5799997635186 729
13.5999997630715 734
13.6199997626245 709
13.6399997621775 716
13.6599997617304 757
13.6799997612834 750
13.6999997608364 718
13.7199997603893 717
13.7399997599423 721
13.7599997594953 724
13.7799997590482 700
13.7999997586012 757
13.8199997581542 720
13.8399997577071 751
13.8599997572601 726
13.879999756813 773
13.899999756366 768
13.919999755919 755
13.9399997554719 748
13.9599997550249 733
13.9799997545779 698
13.9999997541308 752
14.0199997536838 742
14.0399997532368 710
14.0599997527897 709
14.0799997523427 740
14.0999997518957 733
14.1199997514486 748
14.1399997510016 774
14.1599997505546 773
14.1799997501075 748
14.1999997496605 733
14.2199997492135 741
14.2399997487664 786
14.2599997483194 805
14.2799997478724 757
14.2999997474253 731
14.3199997469783 792
14.3399997465312 746
14.3599997460842 763
14.3799997456372 742
14.3999997451901 712
14.4199997447431 760
14.4399997442961 747
14.459999743849 754
14.479999743402 766
14.499999742955 818
14.5199997425079 763
14.5399997420609 813
14.5599997416139 723
14.5799997411668 773
14.5999997407198 800
14.6199997402728 783
14.6399997398257 780
14.6599997393787 740
14.6799997389317 810
14.6999997384846 817
14.7199997380376 752
14.7399997375906 802
14.7599997371435 779
14.7799997366965 811
14.7999997362494 808
14.8199997358024 816
14.8399997353554 758
14.8599997349083 786
14.8799997344613 729
14.8999997340143 791
14.9199997335672 756
14.9399997331202 780
14.9599997326732 844
14.9799997322261 776
14.9999997317791 803
15.0199997313321 827
15.039999730885 809
15.059999730438 796
15.079999729991 825
15.0999997295439 818
15.1199997290969 845
15.1399997286499 805
15.1599997282028 794
15.1799997277558 833
15.1999997273088 799
15.2199997268617 823
15.2399997264147 817
15.2599997259676 809
15.2799997255206 789
15.2999997250736 817
15.3199997246265 755
15.3399997241795 804
15.3599997237325 795
15.3799997232854 857
15.3999997228384 791
15.4199997223914 784
15.4399997219443 804
15.4599997214973 796
15.4799997210503 841
15.4999997206032 881
15.5199997201562 884
15.5399997197092 812
15.5599997192621 775
15.5799997188151 824
15.5999997183681 852
15.619999717921 868
15.639999717474 831
15.659999717027 863
15.6799997165799 825
15.6999997161329 882
15.7199997156858 843
15.7399997152388 896
15.7599997147918 803
15.7799997143447 894
15.7999997138977 857
15.8199997134507 834
15.8399997130036 803
15.8599997125566 834
15.8799997121096 856
15.8999997116625 812
15.9199997112155 806
15.9399997107685 880
15.9599997103214 859
15.9799997098744 808
15.9999997094274 814
16.0199997089803 855
16.0399997085333 842
16.0599997080863 849
16.0799997076392 826
16.0999997071922 826
16.1199997067451 887
16.1399997062981 850
16.1599997058511 825
16.179999705404 837
16.199999704957 907
16.21999970451 854
16.2399997040629 865
16.2599997036159 819
16.2799997031689 831
16.2999997027218 872
16.3199997022748 886
16.3399997018278 882
16.3599997013807 824
16.3799997009337 889
16.3999997004867 888
16.4199997000396 881
16.4399996995926 925
16.4599996991456 857
16.4799996986985 835
16.4999996982515 883
16.5199996978045 941
16.5399996973574 904
16.5599996969104 928
16.5799996964633 878
16.5999996960163 896
16.6199996955693 876
16.6399996951222 911
16.6599996946752 839
16.6799996942282 851
16.6999996937811 903
16.7199996933341 920
16.7399996928871 911
16.75999969244 883
16.779999691993 965
16.799999691546 914
16.8199996910989 941
16.8399996906519 913
16.8599996902049 876
16.8799996897578 925
16.8999996893108 921
16.9199996888638 938
16.9399996884167 924
16.9599996879697 911
16.9799996875226 912
16.9999996870756 900
17.0199996866286 964
17.0399996861815 919
17.0599996857345 940
17.0799996852875 915
17.0999996848404 926
17.1199996843934 877
17.1399996839464 878
17.1599996834993 958
17.1799996830523 970
17.1999996826053 954
17.2199996821582 926
17.2399996817112 971
17.2599996812642 925
17.2799996808171 892
17.2999996803701 959
17.3199996799231 994
17.339999679476 1007
17.359999679029 1014
17.379999678582 974
17.3999996781349 964
17.4199996776879 987
17.4399996772408 1004
17.4599996767938 960
17.4799996763468 974
17.4999996758997 989
17.5199996754527 1045
17.5399996750057 1033
17.5599996745586 919
17.5799996741116 967
17.5999996736646 1040
17.6199996732175 980
17.6399996727705 1016
17.6599996723235 1005
17.6799996718764 1041
17.6999996714294 987
17.7199996709824 958
17.7399996705353 978
17.7599996700883 970
17.7799996696413 974
17.7999996691942 983
17.8199996687472 1053
17.8399996683002 1005
17.8599996678531 1013
17.8799996674061 980
17.899999666959 1008
17.919999666512 1026
17.939999666065 971
17.9599996656179 1055
17.9799996651709 1022
17.9999996647239 1028
18.0199996642768 982
18.0399996638298 1005
18.0599996633828 1024
18.0799996629357 1059
18.0999996624887 989
18.1199996620417 1012
18.1399996615946 955
18.1599996611476 1021
18.1799996607006 1084
18.1999996602535 1091
18.2199996598065 1071
18.2399996593595 985
18.2599996589124 1007
18.2799996584654 1115
18.2999996580184 991
18.3199996575713 970
18.3399996571243 1043
18.3599996566772 1045
18.3799996562302 1073
18.3999996557832 1058
18.4199996553361 1003
18.4399996548891 1104
18.4599996544421 1020
18.479999653995 1085
18.499999653548 1069
18.519999653101 1098
18.5399996526539 1045
18.5599996522069 1076
18.5799996517599 1076
18.5999996513128 1073
18.6199996508658 1065
18.6399996504188 1038
18.6599996499717 1114
18.6799996495247 1058
18.6999996490777 1115
18.7199996486306 1042
18.7399996481836 1092
18.7599996477366 1052
18.7799996472895 1085
18.7999996468425 1076
18.8199996463954 1122
18.8399996459484 1094
18.8599996455014 1100
18.8799996450543 1127
18.8999996446073 1055
18.9199996441603 1138
18.9399996437132 1156
18.9599996432662 1091
18.9799996428192 1070
18.9999996423721 1089
19.0199996419251 1115
19.0399996414781 1118
19.059999641031 1056
19.079999640584 1161
19.099999640137 1129
19.1199996396899 1176
19.1399996392429 1156
19.1599996387959 1092
19.1799996383488 1090
19.1999996379018 1101
19.2199996374547 1133
19.2399996370077 1151
19.2599996365607 1160
19.2799996361136 1101
19.2999996356666 1195
19.3199996352196 1145
19.3399996347725 1154
19.3599996343255 1258
19.3799996338785 1158
19.3999996334314 1120
19.4199996329844 1180
19.4399996325374 1156
19.4599996320903 1160
19.4799996316433 1230
19.4999996311963 1176
19.5199996307492 1179
19.5399996303022 1091
19.5599996298552 1189
19.5799996294081 1116
19.5999996289611 1183
19.6199996285141 1155
19.639999628067 1157
19.65999962762 1072
19.6799996271729 1185
19.6999996267259 1159
19.7199996262789 1165
19.7399996258318 1168
19.7599996253848 1178
19.7799996249378 1238
19.7999996244907 1185
19.8199996240437 1172
19.8399996235967 1210
19.8599996231496 1134
19.8799996227026 1100
19.8999996222556 1170
19.9199996218085 1224
19.9399996213615 1208
19.9599996209145 1235
19.9799996204674 1168
19.9999996200204 1174
