3 2214
3.01999999955297 2057
3.03999999910593 1889
3.0599999986589 1691
3.07999999821186 1662
3.09999999776483 1684
3.11999999731779 1577
3.13999999687076 1484
3.15999999642372 1463
3.17999999597669 1469
3.19999999552965 1440
3.21999999508262 1443
3.23999999463558 1459
3.25999999418855 1350
3.27999999374151 1348
3.29999999329448 1317
3.31999999284744 1313
3.33999999240041 1377
3.35999999195337 1374
3.37999999150634 1352
3.3999999910593 1328
3.41999999061227 1292
3.43999999016523 1332
3.4599999897182 1300
3.47999998927116 1311
3.49999998882413 1169
3.51999998837709 1176
3.53999998793006 1218
3.55999998748302 1163
3.57999998703599 1200
3.59999998658895 1214
3.61999998614192 1177
3.63999998569489 1187
3.65999998524785 1156
3.67999998480082 1118
3.69999998435378 1200
3.71999998390675 1160
3.73999998345971 1130
3.75999998301268 1166
3.77999998256564 1103
3.79999998211861 1095
3.81999998167157 1134
3.83999998122454 1078
3.8599999807775 1102
3.87999998033047 1050
3.89999997988343 1081
3.9199999794364 1045
3.93999997898936 1058
3.95999997854233 1050
3.97999997809529 978
3.99999997764826 1030
4.01999997720122 999
4.03999997675419 1020
4.05999997630715 1056
4.07999997586012 989
4.09999997541308 1001
4.11999997496605 977
4.13999997451901 895
4.15999997407198 967
4.17999997362494 934
4.19999997317791 938
4.21999997273087 958
4.23999997228384 921
4.25999997183681 951
4.27999997138977 891
4.29999997094274 882
4.3199999704957 931
4.33999997004867 896
4.35999996960163 875
4.3799999691546 890
4.39999996870756 881
4.41999996826053 911
4.43999996781349 881
4.45999996736646 862
4.47999996691942 856
4.49999996647239 840
4.51999996602535 877
4.53999996557832 871
4.55999996513128 832
4.57999996468425 829
4.59999996423721 829
4.61999996379018 828
4.63999996334314 805
4.65999996289611 852
4.67999996244907 846
4.69999996200204 856
4.719999961555 828
4.73999996110797 813
4.75999996066093 830
4.7799999602139 822
4.79999995976686 831
4.81999995931983 836
4.83999995887279 843
4.85999995842576 819
4.87999995797873 848
4.89999995753169 759
4.91999995708466 788
4.93999995663762 816
4.95999995619059 788
4.97999995574355 827
4.99999995529652 827
5.01999995484948 791
5.03999995440245 754
5.05999995395541 797
5.07999995350838 773
5.09999995306134 788
5.11999995261431 800
5.13999995216727 795
5.15999995172024 809
5.1799999512732 744
5.19999995082617 759
5.21999995037913 785
5.2399999499321 762
5.25999994948506 795
5.27999994903803 756
5.29999994859099 745
5.31999994814396 748
5.33999994769692 763
5.35999994724989 700
5.37999994680285 781
5.39999994635582 705
5.41999994590878 790
5.43999994546175 768
5.45999994501471 687
5.47999994456768 771
5.49999994412065 748
5.51999994367361 735
5.53999994322658 832
5.55999994277954 728
5.57999994233251 755
5.59999994188547 786
5.61999994143844 725
5.6399999409914 791
5.65999994054437 748
5.67999994009733 785
5.6999999396503 732
5.71999993920326 773
5.73999993875623 738
5.75999993830919 753
5.77999993786216 736
5.79999993741512 760
5.81999993696809 711
5.83999993652105 740
5.85999993607402 716
5.87999993562698 750
5.89999993517995 737
5.91999993473291 705
5.93999993428588 741
5.95999993383884 756
5.97999993339181 695
5.99999993294477 748
6.01999993249774 693
6.0399999320507 709
6.05999993160367 706
6.07999993115663 710
6.0999999307096 739
6.11999993026257 726
6.13999992981553 709
6.1599999293685 725
6.17999992892146 719
6.19999992847443 704
6.21999992802739 741
6.23999992758036 731
6.25999992713332 703
6.27999992668629 748
6.29999992623925 749
6.31999992579222 740
6.33999992534518 735
6.35999992489815 719
6.37999992445111 755
6.39999992400408 707
6.41999992355704 691
6.43999992311001 704
6.45999992266297 735
6.47999992221594 699
6.4999999217689 746
6.51999992132187 725
6.53999992087483 721
6.5599999204278 715
6.57999991998076 795
6.59999991953373 711
6.61999991908669 696
6.63999991863966 697
6.65999991819262 713
6.67999991774559 688
6.69999991729855 683
6.71999991685152 658
6.73999991640449 675
6.75999991595745 666
6.77999991551042 715
6.79999991506338 723
6.81999991461635 712
6.83999991416931 704
6.85999991372228 783
6.87999991327524 671
6.89999991282821 688
6.91999991238117 731
6.93999991193414 730
6.9599999114871 702
6.97999991104007 737
6.99999991059303 732
7.019999910146 696
7.03999990969896 700
7.05999990925193 756
7.07999990880489 711
7.09999990835786 662
7.11999990791082 672
7.13999990746379 701
7.15999990701675 695
7.17999990656972 686
7.19999990612268 693
7.21999990567565 666
7.23999990522861 695
7.25999990478158 710
7.27999990433454 683
7.29999990388751 634
7.31999990344047 640
7.33999990299344 665
7.35999990254641 719
7.37999990209937 684
7.39999990165234 685
7.4199999012053 700
7.43999990075827 708
7.45999990031123 712
7.4799998998642 722
7.49999989941716 681
7.51999989897013 696
7.53999989852309 697
7.55999989807606 680
7.57999989762902 648
7.59999989718199 684
7.61999989673495 644
7.63999989628792 697
7.65999989584088 716
7.67999989539385 661
7.69999989494681 666
7.71999989449978 684
7.73999989405274 693
7.75999989360571 694
7.77999989315867 678
7.79999989271164 686
7.8199998922646 634
7.83999989181757 668
7.85999989137053 698
7.8799998909235 704
7.89999989047646 746
7.91999989002943 654
7.9399998895824 672
7.95999988913536 681
7.97999988868833 651
7.99999988824129 676
8.01999988779426 687
8.03999988734722 691
8.05999988690019 674
8.07999988645315 644
8.09999988600612 732
8.11999988555908 738
8.13999988511205 682
8.15999988466501 659
8.17999988421798 684
8.19999988377094 660
8.21999988332391 680
8.23999988287687 677
8.25999988242984 660
8.2799998819828 686
8.29999988153577 666
8.31999988108873 665
8.3399998806417 710
8.35999988019466 675
8.37999987974763 688
8.39999987930059 643
8.41999987885356 668
8.43999987840652 675
8.45999987795949 630
8.47999987751245 663
8.49999987706542 671
8.51999987661839 705
8.53999987617135 685
8.55999987572432 636
8.57999987527728 655
8.59999987483025 645
8.61999987438321 647
8.63999987393618 635
8.65999987348914 628
8.67999987304211 635
8.69999987259507 653
8.71999987214804 641
8.739999871701 648
8.75999987125397 675
8.77999987080693 613
8.7999998703599 651
8.81999986991286 634
8.83999986946583 620
8.85999986901879 650
8.87999986857176 629
8.89999986812472 648
8.91999986767769 636
8.93999986723065 648
8.95999986678362 672
8.97999986633658 696
8.99999986588955 670
9.01999986544251 608
9.03999986499548 637
9.05999986454844 667
9.07999986410141 632
9.09999986365438 642
9.11999986320734 637
9.13999986276031 644
9.15999986231327 629
9.17999986186624 589
9.1999998614192 658
9.21999986097217 623
9.23999986052513 664
9.2599998600781 642
9.27999985963106 598
9.29999985918403 621
9.31999985873699 646
9.33999985828996 608
9.35999985784292 652
9.37999985739589 651
9.39999985694885 660
9.41999985650182 655
9.43999985605478 636
9.45999985560775 649
9.47999985516071 657
9.49999985471368 606
9.51999985426664 593
9.53999985381961 646
9.55999985337257 614
9.57999985292554 669
9.5999998524785 660
9.61999985203147 588
9.63999985158443 595
9.6599998511374 672
9.67999985069037 661
9.69999985024333 643
9.7199998497963 631
9.73999984934926 623
9.75999984890223 635
9.77999984845519 612
9.79999984800816 578
9.81999984756112 609
9.83999984711409 636
9.85999984666705 671
9.87999984622002 650
9.89999984577298 647
9.91999984532595 591
9.93999984487891 635
9.95999984443188 627
9.97999984398484 583
9.99999984353781 605
10.0199998430908 565
10.0399998426437 584
10.0599998421967 642
10.0799998417497 623
10.0999998413026 629
10.1199998408556 614
10.1399998404086 648
10.1599998399615 559
10.1799998395145 586
10.1999998390675 619
10.2199998386204 633
10.2399998381734 570
10.2599998377264 635
10.2799998372793 646
10.2999998368323 685
10.3199998363853 580
10.3399998359382 589
10.3599998354912 627
10.3799998350441 656
10.3999998345971 616
10.4199998341501 596
10.439999833703 595
10.459999833256 597
10.479999832809 591
10.4999998323619 620
10.5199998319149 632
10.5399998314679 638
10.5599998310208 643
10.5799998305738 611
10.5999998301268 579
10.6199998296797 621
10.6399998292327 593
10.6599998287857 611
10.6799998283386 571
10.6999998278916 605
10.7199998274446 590
10.7399998269975 602
10.7599998265505 574
10.7799998261034 596
10.7999998256564 587
10.8199998252094 610
10.8399998247623 574
10.8599998243153 596
10.8799998238683 575
10.8999998234212 595
10.9199998229742 589
10.9399998225272 616
10.9599998220801 613
10.9799998216331 611
10.9999998211861 577
11.019999820739 613
11.039999820292 601
11.059999819845 606
11.0799998193979 632
11.0999998189509 611
11.1199998185039 616
11.1399998180568 584
11.1599998176098 622
11.1799998171628 634
11.1999998167157 601
11.2199998162687 592
11.2399998158216 581
11.2599998153746 582
11.2799998149276 588
11.2999998144805 568
11.3199998140335 608
11.3399998135865 609
11.3599998131394 615
11.3799998126924 601
11.3999998122454 628
11.4199998117983 615
11.4399998113513 598
11.4599998109043 607
11.4799998104572 619
11.4999998100102 590
11.5199998095632 581
11.5399998091161 610
11.5599998086691 616
11.5799998082221 620
11.599999807775 599
11.619999807328 579
11.639999806881 602
11.6599998064339 592
11.6799998059869 544
11.6999998055398 593
11.7199998050928 616
11.7399998046458 603
11.7599998041987 618
11.7799998037517 615
11.7999998033047 635
11.8199998028576 565
11.8399998024106 616
11.8599998019636 572
11.8799998015165 625
11.8999998010695 589
11.9199998006225 639
11.9399998001754 608
11.9599997997284 629
11.9799997992814 639
11.9999997988343 578
12.0199997983873 601
12.0399997979403 625
12.0599997974932 613
12.0799997970462 610
12.0999997965992 627
12.1199997961521 631
12.1399997957051 634
12.159999795258 632
12.179999794811 578
12.199999794364 604
12.2199997939169 620
12.2399997934699 589
12.2599997930229 559
12.2799997925758 626
12.2999997921288 580
12.3199997916818 603
12.3399997912347 553
12.3599997907877 634
12.3799997903407 599
12.3999997898936 630
12.4199997894466 574
12.4399997889996 641
12.4599997885525 600
12.4799997881055 601
12.4999997876585 621
12.5199997872114 633
12.5399997867644 654
12.5599997863173 623
12.5799997858703 598
12.5999997854233 620
12.6199997849762 574
12.6399997845292 566
12.6599997840822 645
12.6799997836351 575
12.6999997831881 609
12.7199997827411 577
12.739999782294 617
12.759999781847 612
12.7799997814 616
12.7999997809529 558
12.8199997805059 534
12.8399997800589 653
12.8599997796118 614
12.8799997791648 616
12.8999997787178 650
12.9199997782707 600
12.9399997778237 612
12.9599997773767 599
12.9799997769296 588
12.9999997764826 580
13.0199997760355 609
13.0399997755885 600
13.0599997751415 601
13.0799997746944 623
13.0999997742474 580
13.1199997738004 608
13.1399997733533 633
13.1599997729063 605
13.1799997724593 637
13.1999997720122 582
13.2199997715652 610
13.2399997711182 642
13.2599997706711 620
13.2799997702241 642
13.2999997697771 629
13.31999976933 613
13.339999768883 638
13.359999768436 630
13.3799997679889 658
13.3999997675419 643
13.4199997670949 630
13.4399997666478 637
13.4599997662008 640
13.4799997657537 621
13.4999997653067 641
13.5199997648597 637
13.5399997644126 631
13.5599997639656 674
13.5799997635186 646
13.5999997630715 609
13.6199997626245 634
13.6399997621775 622
13.6599997617304 620
13.6799997612834 654
13.6999997608364 670
13.7199997603893 646
13.7399997599423 635
13.7599997594953 641
13.7799997590482 647
13.7999997586012 689
13.8199997581542 658
13.8399997577071 604
13.8599997572601 632
13.879999756813 665
13.899999756366 632
13.919999755919 620
13.9399997554719 655
13.9599997550249 665
13.9799997545779 647
13.9999997541308 651
14.0199997536838 617
14.0399997532368 651
14.0599997527897 679
14.0799997523427 646
14.0999997518957 668
14.1199997514486 626
14.1399997510016 629
14.1599997505546 688
14.1799997501075 657
14.1999997496605 664
14.2199997492135 644
14.2399997487664 655
14.2599997483194 675
14.2799997478724 637
14.2999997474253 681
14.3199997469783 680
14.3399997465312 668
14.3599997460842 659
14.3799997456372 641
14.3999997451901 656
14.4199997447431 688
14.4399997442961 656
14.459999743849 669
14.479999743402 662
14.499999742955 702
14.5199997425079 706
14.5399997420609 653
14.5599997416139 653
14.5799997411668 697
14.5999997407198 671
14.6199997402728 680
14.6399997398257 678
14.6599997393787 667
14.6799997389317 696
14.6999997384846 675
14.7199997380376 702
14.7399997375906 681
14.7599997371435 699
14.7799997366965 676
14.7999997362494 738
14.8199997358024 703
14.8399997353554 742
14.8599997349083 687
14.8799997344613 698
14.8999997340143 685
14.9199997335672 726
14.9399997331202 720
14.9599997326732 696
14.9799997322261 718
14.9999997317791 715
15.0199997313321 740
15.039999730885 708
15.059999730438 700
15.079999729991 732
15.0999997295439 710
15.1199997290969 695
15.1399997286499 713
15.1599997282028 757
15.1799997277558 725
15.1999997273088 677
15.2199997268617 674
15.2399997264147 798
15.2599997259676 746
15.2799997255206 717
15.2999997250736 741
15.3199997246265 752
15.3399997241795 720
15.3599997237325 739
15.3799997232854 752
15.3999997228384 778
15.4199997223914 788
15.4399997219443 748
15.4599997214973 768
15.4799997210503 748
15.4999997206032 774
15.5199997201562 772
15.5399997197092 756
15.5599997192621 698
15.5799997188151 690
15.5999997183681 721
15.619999717921 757
15.639999717474 741
15.659999717027 785
15.6799997165799 778
15.6999997161329 746
15.7199997156858 738
15.7399997152388 766
15.7599997147918 768
15.7799997143447 782
15.7999997138977 797
15.8199997134507 824
15.8399997130036 783
15.8599997125566 787
15.8799997121096 792
15.8999997116625 796
15.9199997112155 805
15.9399997107685 812
15.9599997103214 765
15.9799997098744 772
15.9999997094274 768
16.0199997089803 725
16.0399997085333 743
16.0599997080863 784
16.0799997076392 768
16.0999997071922 767
16.1199997067451 856
16.1399997062981 824
16.1599997058511 795
16.179999705404 816
16.199999704957 808
16.21999970451 809
16.2399997040629 816
16.2599997036159 825
16.2799997031689 804
16.2999997027218 756
16.3199997022748 768
16.3399997018278 816
16.3599997013807 870
16.3799997009337 805
16.3999997004867 777
16.4199997000396 781
16.4399996995926 858
16.4599996991456 828
16.4799996986985 865
16.4999996982515 801
16.5199996978045 862
16.5399996973574 830
16.5599996969104 879
16.5799996964633 882
16.5999996960163 855
16.6199996955693 921
16.6399996951222 887
16.6599996946752 859
16.6799996942282 877
16.6999996937811 883
16.7199996933341 905
16.7399996928871 937
16.75999969244 945
16.779999691993 996
16.799999691546 1004
16.8199996910989 1007
16.8399996906519 1062
16.8599996902049 1063
16.8799996897578 1117
16.8999996893108 1121
16.9199996888638 1190
16.9399996884167 1322
16.9599996879697 1413
16.9799996875226 1424
16.9999996870756 1659
17.0199996866286 1824
17.0399996861815 1942
17.0599996857345 2131
17.0799996852875 2222
17.0999996848404 2224
17.1199996843934 2386
17.1399996839464 2179
17.1599996834993 1948
17.1799996830523 1686
17.1999996826053 1434
17.2199996821582 1219
17.2399996817112 1098
17.2599996812642 981
17.2799996808171 1006
17.2999996803701 995
17.3199996799231 968
17.339999679476 994
17.359999679029 952
17.379999678582 962
17.3999996781349 981
17.4199996776879 923
17.4399996772408 977
17.4599996767938 953
17.4799996763468 938
17.4999996758997 980
17.5199996754527 979
17.5399996750057 975
17.5599996745586 957
17.5799996741116 999
17.5999996736646 959
17.6199996732175 903
17.6399996727705 991
17.6599996723235 989
17.6799996718764 986
17.6999996714294 1002
17.7199996709824 1016
17.7399996705353 991
17.7599996700883 1025
17.7799996696413 1028
17.7999996691942 1001
17.8199996687472 1042
17.8399996683002 1085
17.8599996678531 1059
17.8799996674061 1031
17.899999666959 1034
17.919999666512 1007
17.939999666065 1059
17.9599996656179 1062
17.9799996651709 1087
17.9999996647239 1041
18.0199996642768 1020
18.0399996638298 1032
18.0599996633828 1036
18.0799996629357 1062
18.0999996624887 1072
18.1199996620417 1079
18.1399996615946 1121
18.1599996611476 1081
18.1799996607006 1075
18.1999996602535 1044
18.2199996598065 1050
18.2399996593595 1029
18.2599996589124 1102
18.2799996584654 1119
18.2999996580184 1072
18.3199996575713 1077
18.3399996571243 1074
18.3599996566772 1057
18.3799996562302 1127
18.3999996557832 1099
18.4199996553361 1105
18.4399996548891 1096
18.4599996544421 1093
18.479999653995 1101
18.499999653548 1074
18.519999653101 1133
18.5399996526539 1097
18.5599996522069 1150
18.5799996517599 1161
18.5999996513128 1119
18.6199996508658 1147
18.6399996504188 1112
18.6599996499717 1107
18.6799996495247 1171
18.6999996490777 1180
18.7199996486306 1195
18.7399996481836 1128
18.7599996477366 1168
18.7799996472895 1138
18.7999996468425 1197
18.8199996463954 1186
18.8399996459484 1130
18.8599996455014 1197
18.8799996450543 1187
18.8999996446073 1174
18.9199996441603 1169
18.9399996437132 1171
18.9599996432662 1217
18.9799996428192 1276
18.9999996423721 1301
19.0199996419251 1188
19.0399996414781 1161
19.059999641031 1231
19.079999640584 1220
19.099999640137 1234
19.1199996396899 1205
19.1399996392429 1219
19.1599996387959 1239
19.1799996383488 1200
19.1999996379018 1227
19.2199996374547 1203
19.2399996370077 1256
19.2599996365607 1209
19.2799996361136 1243
19.2999996356666 1284
19.3199996352196 1299
19.3399996347725 1265
19.3599996343255 1301
19.3799996338785 1219
19.3999996334314 1248
19.4199996329844 1308
19.4399996325374 1282
19.4599996320903 1347
19.4799996316433 1321
19.4999996311963 1311
19.5199996307492 1306
19.5399996303022 1294
19.5599996298552 1242
19.5799996294081 1281
19.5999996289611 1266
19.6199996285141 1267
19.639999628067 1249
19.65999962762 1288
19.6799996271729 1275
19.6999996267259 1324
19.7199996262789 1295
19.7399996258318 1311
19.7599996253848 1339
19.7799996249378 1338
19.7999996244907 1325
19.8199996240437 1343
19.8399996235967 1307
19.8599996231496 1313
19.8799996227026 1293
19.8999996222556 1352
19.9199996218085 1350
19.9399996213615 1423
19.9599996209145 1321
19.9799996204674 1329
19.9999996200204 1404
