3 2381
3.01999999955297 2232
3.03999999910593 2091
3.0599999986589 1955
3.07999999821186 1831
3.09999999776483 1752
3.11999999731779 1677
3.13999999687076 1680
3.15999999642372 1606
3.17999999597669 1618
3.19999999552965 1588
3.21999999508262 1530
3.23999999463558 1466
3.25999999418855 1458
3.27999999374151 1471
3.29999999329448 1515
3.31999999284744 1479
3.33999999240041 1417
3.35999999195337 1350
3.37999999150634 1418
3.3999999910593 1393
3.41999999061227 1374
3.43999999016523 1381
3.4599999897182 1365
3.47999998927116 1336
3.49999998882413 1306
3.51999998837709 1243
3.53999998793006 1288
3.55999998748302 1266
3.57999998703599 1192
3.59999998658895 1264
3.61999998614192 1228
3.63999998569489 1204
3.65999998524785 1217
3.67999998480082 1184
3.69999998435378 1144
3.71999998390675 1199
3.73999998345971 1151
3.75999998301268 1205
3.77999998256564 1124
3.79999998211861 1093
3.81999998167157 1119
3.83999998122454 1082
3.8599999807775 1113
3.87999998033047 1117
3.89999997988343 1082
3.9199999794364 1058
3.93999997898936 1127
3.95999997854233 1019
3.97999997809529 1044
3.99999997764826 1041
4.01999997720122 1038
4.03999997675419 988
4.05999997630715 969
4.07999997586012 902
4.09999997541308 1005
4.11999997496605 920
4.13999997451901 912
4.15999997407198 974
4.17999997362494 972
4.19999997317791 933
4.21999997273087 931
4.23999997228384 955
4.25999997183681 894
4.27999997138977 902
4.29999997094274 888
4.3199999704957 895
4.33999997004867 872
4.35999996960163 879
4.3799999691546 905
4.39999996870756 912
4.41999996826053 880
4.43999996781349 897
4.45999996736646 857
4.47999996691942 902
4.49999996647239 892
4.51999996602535 837
4.53999996557832 871
4.55999996513128 824
4.57999996468425 800
4.59999996423721 792
4.61999996379018 838
4.63999996334314 874
4.65999996289611 819
4.67999996244907 785
4.69999996200204 773
4.719999961555 808
4.73999996110797 792
4.75999996066093 784
4.7799999602139 795
4.79999995976686 767
4.81999995931983 783
4.83999995887279 799
4.85999995842576 818
4.87999995797873 829
4.89999995753169 749
4.91999995708466 778
4.93999995663762 797
4.95999995619059 789
4.97999995574355 723
4.99999995529652 757
5.01999995484948 809
5.03999995440245 740
5.05999995395541 773
5.07999995350838 753
5.09999995306134 719
5.11999995261431 760
5.13999995216727 744
5.15999995172024 775
5.1799999512732 774
5.19999995082617 764
5.21999995037913 707
5.2399999499321 729
5.25999994948506 712
5.27999994903803 761
5.29999994859099 751
5.31999994814396 753
5.33999994769692 731
5.35999994724989 750
5.37999994680285 771
5.39999994635582 725
5.41999994590878 743
5.43999994546175 746
5.45999994501471 698
5.47999994456768 742
5.49999994412065 716
5.51999994367361 785
5.53999994322658 737
5.55999994277954 743
5.57999994233251 753
5.59999994188547 682
5.61999994143844 757
5.6399999409914 729
5.65999994054437 674
5.67999994009733 752
5.6999999396503 689
5.71999993920326 724
5.73999993875623 698
5.75999993830919 731
5.77999993786216 728
5.79999993741512 716
5.81999993696809 726
5.83999993652105 733
5.85999993607402 711
5.87999993562698 722
5.89999993517995 731
5.91999993473291 723
5.93999993428588 682
5.95999993383884 742
5.97999993339181 679
5.99999993294477 688
6.01999993249774 708
6.0399999320507 757
6.05999993160367 707
6.07999993115663 693
6.0999999307096 715
6.11999993026257 695
6.13999992981553 738
6.1599999293685 738
6.17999992892146 721
6.19999992847443 659
6.21999992802739 698
6.23999992758036 718
6.25999992713332 696
6.27999992668629 711
6.29999992623925 710
6.31999992579222 683
6.33999992534518 689
6.35999992489815 691
6.37999992445111 716
6.39999992400408 700
6.41999992355704 701
6.43999992311001 666
6.45999992266297 718
6.47999992221594 659
6.4999999217689 712
6.51999992132187 748
6.53999992087483 692
6.5599999204278 717
6.57999991998076 689
6.59999991953373 671
6.61999991908669 711
6.63999991863966 687
6.65999991819262 650
6.67999991774559 674
6.69999991729855 695
6.71999991685152 728
6.73999991640449 651
6.75999991595745 710
6.77999991551042 678
6.79999991506338 744
6.81999991461635 704
6.83999991416931 689
6.85999991372228 665
6.87999991327524 682
6.89999991282821 710
6.91999991238117 681
6.93999991193414 749
6.9599999114871 700
6.97999991104007 715
6.99999991059303 681
7.019999910146 688
7.03999990969896 704
7.05999990925193 669
7.07999990880489 651
7.09999990835786 644
7.11999990791082 697
7.13999990746379 671
7.15999990701675 667
7.17999990656972 677
7.19999990612268 676
7.21999990567565 710
7.23999990522861 680
7.25999990478158 678
7.27999990433454 659
7.29999990388751 675
7.31999990344047 724
7.33999990299344 691
7.35999990254641 719
7.37999990209937 660
7.39999990165234 686
7.4199999012053 702
7.43999990075827 719
7.45999990031123 706
7.4799998998642 719
7.49999989941716 715
7.51999989897013 662
7.53999989852309 650
7.55999989807606 692
7.57999989762902 680
7.59999989718199 654
7.61999989673495 665
7.63999989628792 692
7.65999989584088 694
7.67999989539385 654
7.69999989494681 685
7.71999989449978 645
7.73999989405274 665
7.75999989360571 658
7.77999989315867 687
7.79999989271164 664
7.8199998922646 665
7.83999989181757 665
7.85999989137053 637
7.8799998909235 653
7.89999989047646 694
7.91999989002943 677
7.9399998895824 680
7.95999988913536 648
7.97999988868833 699
7.99999988824129 619
8.01999988779426 638
8.03999988734722 648
8.05999988690019 700
8.07999988645315 663
8.09999988600612 697
8.11999988555908 702
8.13999988511205 670
8.15999988466501 663
8.17999988421798 652
8.19999988377094 654
8.21999988332391 691
8.23999988287687 659
8.25999988242984 622
8.2799998819828 673
8.29999988153577 684
8.31999988108873 625
8.3399998806417 660
8.35999988019466 664
8.37999987974763 628
8.39999987930059 644
8.41999987885356 665
8.43999987840652 633
8.45999987795949 666
8.47999987751245 621
8.49999987706542 705
8.51999987661839 661
8.53999987617135 646
8.55999987572432 665
8.57999987527728 673
8.59999987483025 651
8.61999987438321 673
8.63999987393618 667
8.65999987348914 659
8.67999987304211 664
8.69999987259507 635
8.71999987214804 665
8.739999871701 676
8.75999987125397 637
8.77999987080693 649
8.7999998703599 657
8.81999986991286 620
8.83999986946583 666
8.85999986901879 663
8.87999986857176 601
8.89999986812472 628
8.91999986767769 715
8.93999986723065 658
8.95999986678362 638
8.97999986633658 628
8.99999986588955 650
9.01999986544251 649
9.03999986499548 606
9.05999986454844 655
9.07999986410141 684
9.09999986365438 648
9.11999986320734 660
9.13999986276031 644
9.15999986231327 663
9.17999986186624 612
9.1999998614192 605
9.21999986097217 641
9.23999986052513 609
9.2599998600781 654
9.27999985963106 634
9.29999985918403 673
9.31999985873699 683
9.33999985828996 659
9.35999985784292 646
9.37999985739589 699
9.39999985694885 646
9.41999985650182 628
9.43999985605478 653
9.45999985560775 634
9.47999985516071 657
9.49999985471368 617
9.51999985426664 657
9.53999985381961 650
9.55999985337257 661
9.57999985292554 667
9.5999998524785 639
9.61999985203147 658
9.63999985158443 652
9.6599998511374 636
9.67999985069037 627
9.69999985024333 581
9.7199998497963 635
9.73999984934926 613
9.75999984890223 680
9.77999984845519 619
9.79999984800816 674
9.81999984756112 649
9.83999984711409 608
9.85999984666705 619
9.87999984622002 650
9.89999984577298 589
9.91999984532595 611
9.93999984487891 626
9.95999984443188 599
9.97999984398484 607
9.99999984353781 658
10.0199998430908 624
10.0399998426437 619
10.0599998421967 618
10.0799998417497 613
10.0999998413026 599
10.1199998408556 637
10.1399998404086 643
10.1599998399615 622
10.1799998395145 631
10.1999998390675 641
10.2199998386204 655
10.2399998381734 640
10.2599998377264 604
10.2799998372793 604
10.2999998368323 625
10.3199998363853 587
10.3399998359382 601
10.3599998354912 650
10.3799998350441 617
10.3999998345971 616
10.4199998341501 647
10.439999833703 594
10.459999833256 649
10.479999832809 587
10.4999998323619 583
10.5199998319149 640
10.5399998314679 614
10.5599998310208 624
10.5799998305738 582
10.5999998301268 612
10.6199998296797 615
10.6399998292327 606
10.6599998287857 599
10.6799998283386 591
10.6999998278916 606
10.7199998274446 608
10.7399998269975 628
10.7599998265505 647
10.7799998261034 646
10.7999998256564 607
10.8199998252094 628
10.8399998247623 622
10.8599998243153 591
10.8799998238683 570
10.8999998234212 638
10.9199998229742 571
10.9399998225272 609
10.9599998220801 628
10.9799998216331 640
10.9999998211861 637
11.019999820739 577
11.039999820292 623
11.059999819845 619
11.0799998193979 603
11.0999998189509 640
11.1199998185039 637
11.1399998180568 574
11.1599998176098 604
11.1799998171628 588
11.1999998167157 629
11.2199998162687 661
11.2399998158216 638
11.2599998153746 627
11.2799998149276 653
11.2999998144805 649
11.3199998140335 640
11.3399998135865 594
11.3599998131394 621
11.3799998126924 589
11.3999998122454 627
11.4199998117983 576
11.4399998113513 575
11.4599998109043 625
11.4799998104572 610
11.4999998100102 629
11.5199998095632 646
11.5399998091161 643
11.5599998086691 590
11.5799998082221 592
11.599999807775 666
11.619999807328 635
11.639999806881 642
11.6599998064339 617
11.6799998059869 607
11.6999998055398 600
11.7199998050928 595
11.7399998046458 598
11.7599998041987 627
11.7799998037517 565
11.7999998033047 647
11.8199998028576 652
11.8399998024106 611
11.8599998019636 579
11.8799998015165 670
11.8999998010695 646
11.9199998006225 635
11.9399998001754 632
11.9599997997284 587
11.9799997992814 617
11.9999997988343 625
12.0199997983873 622
12.0399997979403 617
12.0599997974932 586
12.0799997970462 613
12.0999997965992 629
12.1199997961521 614
12.1399997957051 638
12.159999795258 631
12.179999794811 687
12.199999794364 619
12.2199997939169 651
12.2399997934699 662
12.2599997930229 594
12.2799997925758 594
12.2999997921288 608
12.3199997916818 662
12.3399997912347 617
12.3599997907877 610
12.3799997903407 618
12.3999997898936 631
12.4199997894466 605
12.4399997889996 599
12.4599997885525 628
12.4799997881055 644
12.4999997876585 669
12.5199997872114 598
12.5399997867644 618
12.5599997863173 648
12.5799997858703 662
12.5999997854233 662
12.6199997849762 649
12.6399997845292 624
12.6599997840822 611
12.6799997836351 645
12.6999997831881 647
12.7199997827411 676
12.739999782294 604
12.759999781847 648
12.7799997814 625
12.7999997809529 700
12.8199997805059 686
12.8399997800589 664
12.8599997796118 667
12.8799997791648 659
12.8999997787178 706
12.9199997782707 631
12.9399997778237 668
12.9599997773767 698
12.9799997769296 651
12.9999997764826 653
13.0199997760355 634
13.0399997755885 654
13.0599997751415 633
13.0799997746944 658
13.0999997742474 636
13.1199997738004 620
13.1399997733533 647
13.1599997729063 697
13.1799997724593 665
13.1999997720122 642
13.2199997715652 650
13.2399997711182 680
13.2599997706711 662
13.2799997702241 684
13.2999997697771 723
13.31999976933 669
13.339999768883 691
13.359999768436 622
13.3799997679889 713
13.3999997675419 644
13.4199997670949 665
13.4399997666478 667
13.4599997662008 677
13.4799997657537 638
13.4999997653067 678
13.5199997648597 603
13.5399997644126 669
13.5599997639656 653
13.5799997635186 654
13.5999997630715 666
13.6199997626245 625
13.6399997621775 681
13.6599997617304 683
13.6799997612834 666
13.6999997608364 676
13.7199997603893 653
13.7399997599423 659
13.7599997594953 711
13.7799997590482 687
13.7999997586012 679
13.8199997581542 653
13.8399997577071 718
13.8599997572601 697
13.879999756813 676
13.899999756366 694
13.919999755919 686
13.9399997554719 686
13.9599997550249 678
13.9799997545779 653
13.9999997541308 696
14.0199997536838 677
14.0399997532368 720
14.0599997527897 678
14.0799997523427 712
14.0999997518957 699
14.1199997514486 693
14.1399997510016 710
14.1599997505546 716
14.1799997501075 701
14.1999997496605 699
14.2199997492135 723
14.2399997487664 701
14.2599997483194 766
14.2799997478724 662
14.2999997474253 684
14.3199997469783 669
14.3399997465312 691
14.3599997460842 691
14.3799997456372 720
14.3999997451901 694
14.4199997447431 706
14.4399997442961 708
14.459999743849 690
14.479999743402 731
14.499999742955 638
14.5199997425079 727
14.5399997420609 725
14.5599997416139 692
14.5799997411668 754
14.5999997407198 675
14.6199997402728 716
14.6399997398257 710
14.6599997393787 704
14.6799997389317 700
14.6999997384846 749
14.7199997380376 747
14.7399997375906 706
14.7599997371435 694
14.7799997366965 782
14.7999997362494 749
14.8199997358024 720
14.8399997353554 742
14.8599997349083 721
14.8799997344613 730
14.8999997340143 782
14.9199997335672 753
14.9399997331202 721
14.9599997326732 759
14.9799997322261 713
14.9999997317791 722
15.0199997313321 738
15.039999730885 717
15.059999730438 700
15.079999729991 747
15.0999997295439 723
15.1199997290969 744
15.1399997286499 754
15.1599997282028 726
15.1799997277558 817
15.1999997273088 809
15.2199997268617 781
15.2399997264147 781
15.2599997259676 756
15.2799997255206 753
15.2999997250736 793
15.3199997246265 789
15.3399997241795 759
15.3599997237325 792
15.3799997232854 784
15.3999997228384 754
15.4199997223914 759
15.4399997219443 800
15.4599997214973 807
15.4799997210503 762
15.4999997206032 739
15.5199997201562 774
15.5399997197092 794
15.5599997192621 765
15.5799997188151 791
15.5999997183681 727
15.619999717921 718
15.639999717474 817
15.659999717027 781
15.6799997165799 781
15.6999997161329 822
15.7199997156858 787
15.7399997152388 793
15.7599997147918 828
15.7799997143447 856
15.7999997138977 731
15.8199997134507 835
15.8399997130036 846
15.8599997125566 839
15.8799997121096 827
15.8999997116625 816
15.9199997112155 809
15.9399997107685 836
15.9599997103214 832
15.9799997098744 804
15.9999997094274 830
16.0199997089803 803
16.0399997085333 850
16.0599997080863 845
16.0799997076392 786
16.0999997071922 825
16.1199997067451 815
16.1399997062981 822
16.1599997058511 836
16.179999705404 853
16.199999704957 823
16.21999970451 872
16.2399997040629 871
16.2599997036159 825
16.2799997031689 814
16.2999997027218 877
16.3199997022748 825
16.3399997018278 908
16.3599997013807 826
16.3799997009337 841
16.3999997004867 873
16.4199997000396 904
16.4399996995926 882
16.4599996991456 878
16.4799996986985 856
16.4999996982515 964
16.5199996978045 858
16.5399996973574 874
16.5599996969104 895
16.5799996964633 944
16.5999996960163 910
16.6199996955693 877
16.6399996951222 870
16.6599996946752 889
16.6799996942282 955
16.6999996937811 902
16.7199996933341 897
16.7399996928871 985
16.75999969244 1008
16.779999691993 1011
16.799999691546 1023
16.8199996910989 1020
16.8399996906519 1073
16.8599996902049 1136
16.8799996897578 1134
16.8999996893108 1268
16.9199996888638 1304
16.9399996884167 1445
16.9599996879697 1614
16.9799996875226 1876
16.9999996870756 1992
17.0199996866286 2273
17.0399996861815 2504
17.0599996857345 2350
17.0799996852875 2339
17.0999996848404 2003
17.1199996843934 1739
17.1399996839464 1459
17.1599996834993 1193
17.1799996830523 1099
17.1999996826053 1088
17.2199996821582 1037
17.2399996817112 1023
17.2599996812642 966
17.2799996808171 989
17.2999996803701 1049
17.3199996799231 997
17.339999679476 953
17.359999679029 984
17.379999678582 1011
17.3999996781349 979
17.4199996776879 1044
17.4399996772408 988
17.4599996767938 975
17.4799996763468 980
17.4999996758997 1041
17.5199996754527 1042
17.5399996750057 1029
17.5599996745586 1060
17.5799996741116 1059
17.5999996736646 1007
17.6199996732175 1040
17.6399996727705 1033
17.6599996723235 1011
17.6799996718764 1054
17.6999996714294 968
17.7199996709824 1011
17.7399996705353 1060
17.7599996700883 1006
17.7799996696413 983
17.7999996691942 1073
17.8199996687472 1012
17.8399996683002 1034
17.8599996678531 1007
17.8799996674061 1017
17.899999666959 1050
17.919999666512 1107
17.939999666065 1014
17.9599996656179 1057
17.9799996651709 1094
17.9999996647239 1067
18.0199996642768 1049
18.0399996638298 1082
18.0599996633828 1050
18.0799996629357 1042
18.0999996624887 1054
18.1199996620417 1062
18.1399996615946 1171
18.1599996611476 1116
18.1799996607006 1086
18.1999996602535 1068
18.2199996598065 1092
18.2399996593595 1122
18.2599996589124 1078
18.2799996584654 1052
18.2999996580184 1066
18.3199996575713 1093
18.3399996571243 1112
18.3599996566772 1064
18.3799996562302 1138
18.3999996557832 1131
18.4199996553361 1107
18.4399996548891 1118
18.4599996544421 1134
18.479999653995 1158
18.499999653548 1152
18.519999653101 1133
18.5399996526539 1132
18.5599996522069 1148
18.5799996517599 1165
18.5999996513128 1090
18.6199996508658 1190
18.6399996504188 1112
18.6599996499717 1121
18.6799996495247 1169
18.6999996490777 1128
18.7199996486306 1143
18.7399996481836 1218
18.7599996477366 1166
18.7799996472895 1109
18.7999996468425 1190
18.8199996463954 1212
18.8399996459484 1202
18.8599996455014 1171
18.8799996450543 1198
18.8999996446073 1231
18.9199996441603 1216
18.9399996437132 1245
18.9599996432662 1161
18.9799996428192 1185
18.9999996423721 1211
19.0199996419251 1200
19.0399996414781 1205
19.059999641031 1224
19.079999640584 1216
19.099999640137 1216
19.1199996396899 1270
19.1399996392429 1235
19.1599996387959 1216
19.1799996383488 1284
19.1999996379018 1226
19.2199996374547 1205
19.2399996370077 1275
19.2599996365607 1203
19.2799996361136 1260
19.2999996356666 1266
19.3199996352196 1263
19.3399996347725 1238
19.3599996343255 1279
19.3799996338785 1221
19.3999996334314 1218
19.4199996329844 1301
19.4399996325374 1281
19.4599996320903 1311
19.4799996316433 1304
19.4999996311963 1254
19.5199996307492 1301
19.5399996303022 1340
19.5599996298552 1279
19.5799996294081 1349
19.5999996289611 1288
19.6199996285141 1321
19.639999628067 1258
19.65999962762 1351
19.6799996271729 1351
19.6999996267259 1352
19.7199996262789 1324
19.7399996258318 1369
19.7599996253848 1353
19.7799996249378 1350
19.7999996244907 1368
19.8199996240437 1313
19.8399996235967 1353
19.8599996231496 1318
19.8799996227026 1342
19.8999996222556 1398
19.9199996218085 1376
19.9399996213615 1358
19.9599996209145 1345
19.9799996204674 1378
19.9999996200204 1385
