3 2253
3.01999999955297 2045
3.03999999910593 1876
3.0599999986589 1811
3.07999999821186 1632
3.09999999776483 1577
3.11999999731779 1504
3.13999999687076 1496
3.15999999642372 1430
3.17999999597669 1465
3.19999999552965 1411
3.21999999508262 1412
3.23999999463558 1398
3.25999999418855 1337
3.27999999374151 1314
3.29999999329448 1285
3.31999999284744 1347
3.33999999240041 1295
3.35999999195337 1312
3.37999999150634 1271
3.3999999910593 1317
3.41999999061227 1268
3.43999999016523 1313
3.4599999897182 1214
3.47999998927116 1239
3.49999998882413 1238
3.51999998837709 1200
3.53999998793006 1173
3.55999998748302 1149
3.57999998703599 1151
3.59999998658895 1134
3.61999998614192 1221
3.63999998569489 1168
3.65999998524785 1149
3.67999998480082 1185
3.69999998435378 1121
3.71999998390675 1106
3.73999998345971 1103
3.75999998301268 1131
3.77999998256564 1157
3.79999998211861 1144
3.81999998167157 1112
3.83999998122454 1043
3.8599999807775 1121
3.87999998033047 1069
3.89999997988343 1113
3.9199999794364 1066
3.93999997898936 1046
3.95999997854233 1051
3.97999997809529 1044
3.99999997764826 1117
4.01999997720122 1020
4.03999997675419 1069
4.05999997630715 1096
4.07999997586012 1033
4.09999997541308 1027
4.11999997496605 1007
4.13999997451901 1045
4.15999997407198 1034
4.17999997362494 1014
4.19999997317791 1093
4.21999997273087 993
4.23999997228384 1013
4.25999997183681 1066
4.27999997138977 1006
4.29999997094274 983
4.3199999704957 1043
4.33999997004867 975
4.35999996960163 1049
4.3799999691546 1018
4.39999996870756 1015
4.41999996826053 1081
4.43999996781349 1072
4.45999996736646 1027
4.47999996691942 1010
4.49999996647239 1009
4.51999996602535 983
4.53999996557832 1003
4.55999996513128 1033
4.57999996468425 1038
4.59999996423721 1044
4.61999996379018 999
4.63999996334314 1078
4.65999996289611 987
4.67999996244907 1076
4.69999996200204 1013
4.719999961555 1022
4.73999996110797 1014
4.75999996066093 1047
4.7799999602139 1055
4.79999995976686 1020
4.81999995931983 983
4.83999995887279 968
4.85999995842576 1068
4.87999995797873 1048
4.89999995753169 987
4.91999995708466 1044
4.93999995663762 1069
4.95999995619059 1053
4.97999995574355 1001
4.99999995529652 976
5.01999995484948 1075
5.03999995440245 1074
5.05999995395541 1024
5.07999995350838 1049
5.09999995306134 1099
5.11999995261431 1021
5.13999995216727 1023
5.15999995172024 1040
5.1799999512732 1036
5.19999995082617 1043
5.21999995037913 998
5.2399999499321 1028
5.25999994948506 1080
5.27999994903803 1049
5.29999994859099 1093
5.31999994814396 1041
5.33999994769692 1086
5.35999994724989 1074
5.37999994680285 992
5.39999994635582 1082
5.41999994590878 1096
5.43999994546175 1057
5.45999994501471 1049
5.47999994456768 1112
5.49999994412065 1106
5.51999994367361 1099
5.53999994322658 1048
5.55999994277954 1060
5.57999994233251 1087
5.59999994188547 1083
5.61999994143844 1083
5.6399999409914 1069
5.65999994054437 1073
5.67999994009733 1086
5.6999999396503 1001
5.71999993920326 1047
5.73999993875623 1084
5.75999993830919 1092
5.77999993786216 1077
5.79999993741512 1063
5.81999993696809 1072
5.83999993652105 1062
5.85999993607402 1100
5.87999993562698 1050
5.89999993517995 1063
5.91999993473291 1070
5.93999993428588 1007
5.95999993383884 1044
5.97999993339181 983
5.99999993294477 1016
6.01999993249774 1054
6.0399999320507 1029
6.05999993160367 988
6.07999993115663 1048
6.0999999307096 1032
6.11999993026257 988
6.13999992981553 1020
6.1599999293685 1004
6.17999992892146 1003
6.19999992847443 964
6.21999992802739 968
6.23999992758036 963
6.25999992713332 1015
6.27999992668629 973
6.29999992623925 959
6.31999992579222 936
6.33999992534518 957
6.35999992489815 955
6.37999992445111 971
6.39999992400408 956
6.41999992355704 922
6.43999992311001 915
6.45999992266297 934
6.47999992221594 918
6.4999999217689 945
6.51999992132187 900
6.53999992087483 903
6.5599999204278 845
6.57999991998076 844
6.59999991953373 904
6.61999991908669 824
6.63999991863966 883
6.65999991819262 855
6.67999991774559 863
6.69999991729855 829
6.71999991685152 763
6.73999991640449 844
6.75999991595745 815
6.77999991551042 848
6.79999991506338 813
6.81999991461635 817
6.83999991416931 781
6.85999991372228 789
6.87999991327524 757
6.89999991282821 780
6.91999991238117 811
6.93999991193414 794
6.9599999114871 731
6.97999991104007 784
6.99999991059303 770
7.019999910146 741
7.03999990969896 738
7.05999990925193 717
7.07999990880489 739
7.09999990835786 762
7.11999990791082 742
7.13999990746379 752
7.15999990701675 775
7.17999990656972 729
7.19999990612268 723
7.21999990567565 764
7.23999990522861 715
7.25999990478158 675
7.27999990433454 688
7.29999990388751 742
7.31999990344047 716
7.33999990299344 709
7.35999990254641 698
7.37999990209937 660
7.39999990165234 663
7.4199999012053 696
7.43999990075827 692
7.45999990031123 651
7.4799998998642 649
7.49999989941716 662
7.51999989897013 644
7.53999989852309 699
7.55999989807606 596
7.57999989762902 608
7.59999989718199 736
7.61999989673495 638
7.63999989628792 635
7.65999989584088 667
7.67999989539385 645
7.69999989494681 614
7.71999989449978 625
7.73999989405274 590
7.75999989360571 641
7.77999989315867 636
7.79999989271164 621
7.8199998922646 585
7.83999989181757 599
7.85999989137053 632
7.8799998909235 588
7.89999989047646 645
7.91999989002943 612
7.9399998895824 623
7.95999988913536 601
7.97999988868833 619
7.99999988824129 619
8.01999988779426 627
8.03999988734722 562
8.05999988690019 570
8.07999988645315 575
8.09999988600612 553
8.11999988555908 585
8.13999988511205 606
8.15999988466501 609
8.17999988421798 587
8.19999988377094 584
8.21999988332391 596
8.23999988287687 583
8.25999988242984 549
8.2799998819828 617
8.29999988153577 604
8.31999988108873 580
8.3399998806417 609
8.35999988019466 589
8.37999987974763 592
8.39999987930059 556
8.41999987885356 589
8.43999987840652 554
8.45999987795949 603
8.47999987751245 588
8.49999987706542 603
8.51999987661839 569
8.53999987617135 577
8.55999987572432 602
8.57999987527728 563
8.59999987483025 575
8.61999987438321 591
8.63999987393618 528
8.65999987348914 581
8.67999987304211 565
8.69999987259507 560
8.71999987214804 566
8.739999871701 567
8.75999987125397 593
8.77999987080693 580
8.7999998703599 579
8.81999986991286 579
8.83999986946583 565
8.85999986901879 555
8.87999986857176 570
8.89999986812472 557
8.91999986767769 574
8.93999986723065 558
8.95999986678362 553
8.97999986633658 536
8.99999986588955 561
9.01999986544251 556
9.03999986499548 550
9.05999986454844 566
9.07999986410141 524
9.09999986365438 573
9.11999986320734 558
9.13999986276031 572
9.15999986231327 567
9.17999986186624 583
9.1999998614192 527
9.21999986097217 548
9.23999986052513 558
9.2599998600781 568
9.27999985963106 563
9.29999985918403 581
9.31999985873699 569
9.33999985828996 564
9.35999985784292 589
9.37999985739589 545
9.39999985694885 530
9.41999985650182 550
9.43999985605478 553
9.45999985560775 508
9.47999985516071 535
9.49999985471368 537
9.51999985426664 506
9.53999985381961 569
9.55999985337257 538
9.57999985292554 552
9.5999998524785 532
9.61999985203147 555
9.63999985158443 525
9.6599998511374 573
9.67999985069037 534
9.69999985024333 528
9.7199998497963 525
9.73999984934926 563
9.75999984890223 557
9.77999984845519 516
9.79999984800816 480
9.81999984756112 548
9.83999984711409 510
9.85999984666705 524
9.87999984622002 520
9.89999984577298 519
9.91999984532595 525
9.93999984487891 516
9.95999984443188 537
9.97999984398484 551
9.99999984353781 531
10.0199998430908 559
10.0399998426437 539
10.0599998421967 548
10.0799998417497 502
10.0999998413026 512
10.1199998408556 511
10.1399998404086 515
10.1599998399615 544
10.1799998395145 547
10.1999998390675 514
10.2199998386204 492
10.2399998381734 542
10.2599998377264 558
10.2799998372793 522
10.2999998368323 533
10.3199998363853 517
10.3399998359382 547
10.3599998354912 553
10.3799998350441 501
10.3999998345971 555
10.4199998341501 516
10.439999833703 537
10.459999833256 523
10.479999832809 502
10.4999998323619 584
10.5199998319149 545
10.5399998314679 553
10.5599998310208 520
10.5799998305738 533
10.5999998301268 540
10.6199998296797 503
10.6399998292327 513
10.6599998287857 520
10.6799998283386 485
10.6999998278916 519
10.7199998274446 521
10.7399998269975 520
10.7599998265505 524
10.7799998261034 520
10.7999998256564 535
10.8199998252094 485
10.8399998247623 493
10.8599998243153 525
10.8799998238683 484
10.8999998234212 529
10.9199998229742 541
10.9399998225272 525
10.9599998220801 520
10.9799998216331 477
10.9999998211861 481
11.019999820739 504
11.039999820292 502
11.059999819845 523
11.0799998193979 490
11.0999998189509 540
11.1199998185039 538
11.1399998180568 521
11.1599998176098 530
11.1799998171628 532
11.1999998167157 525
11.2199998162687 540
11.2399998158216 543
11.2599998153746 503
11.2799998149276 529
11.2999998144805 512
11.3199998140335 527
11.3399998135865 536
11.3599998131394 532
11.3799998126924 542
11.3999998122454 538
11.4199998117983 572
11.4399998113513 550
11.4599998109043 526
11.4799998104572 497
11.4999998100102 552
11.5199998095632 547
11.5399998091161 506
11.5599998086691 507
11.5799998082221 502
11.599999807775 549
11.619999807328 493
11.639999806881 510
11.6599998064339 500
11.6799998059869 480
11.6999998055398 548
11.7199998050928 508
11.7399998046458 516
11.7599998041987 496
11.7799998037517 512
11.7999998033047 530
11.8199998028576 537
11.8399998024106 526
11.8599998019636 517
11.8799998015165 491
11.8999998010695 482
11.9199998006225 513
11.9399998001754 505
11.9599997997284 515
11.9799997992814 501
11.9999997988343 508
12.0199997983873 553
12.0399997979403 510
12.0599997974932 511
12.0799997970462 588
12.0999997965992 507
12.1199997961521 487
12.1399997957051 509
12.159999795258 512
12.179999794811 486
12.199999794364 503
12.2199997939169 518
12.2399997934699 505
12.2599997930229 472
12.2799997925758 518
12.2999997921288 505
12.3199997916818 459
12.3399997912347 476
12.3599997907877 442
12.3799997903407 543
12.3999997898936 529
12.4199997894466 495
12.4399997889996 473
12.4599997885525 472
12.4799997881055 498
12.4999997876585 473
12.5199997872114 432
12.5399997867644 461
12.5599997863173 541
12.5799997858703 513
12.5999997854233 495
12.6199997849762 515
12.6399997845292 498
12.6599997840822 476
12.6799997836351 501
12.6999997831881 512
12.7199997827411 489
12.739999782294 516
12.759999781847 480
12.7799997814 482
12.7999997809529 482
12.8199997805059 499
12.8399997800589 513
12.8599997796118 482
12.8799997791648 504
12.8999997787178 508
12.9199997782707 501
12.9399997778237 497
12.9599997773767 518
12.9799997769296 471
12.9999997764826 499
13.0199997760355 486
13.0399997755885 484
13.0599997751415 461
13.0799997746944 520
13.0999997742474 502
13.1199997738004 492
13.1399997733533 476
13.1599997729063 480
13.1799997724593 485
13.1999997720122 530
13.2199997715652 483
13.2399997711182 480
13.2599997706711 534
13.2799997702241 523
13.2999997697771 518
13.31999976933 489
13.339999768883 476
13.359999768436 517
13.3799997679889 495
13.3999997675419 513
13.4199997670949 535
13.4399997666478 508
13.4599997662008 459
13.4799997657537 488
13.4999997653067 532
13.5199997648597 482
13.5399997644126 528
13.5599997639656 460
13.5799997635186 468
13.5999997630715 513
13.6199997626245 513
13.6399997621775 504
13.6599997617304 487
13.6799997612834 499
13.6999997608364 470
13.7199997603893 497
13.7399997599423 493
13.7599997594953 498
13.7799997590482 486
13.7999997586012 498
13.8199997581542 494
13.8399997577071 487
13.8599997572601 498
13.879999756813 520
13.899999756366 551
13.919999755919 508
13.9399997554719 478
13.9599997550249 489
13.9799997545779 519
13.9999997541308 487
14.0199997536838 506
14.0399997532368 462
14.0599997527897 519
14.0799997523427 492
14.0999997518957 501
14.1199997514486 507
14.1399997510016 505
14.1599997505546 509
14.1799997501075 529
14.1999997496605 490
14.2199997492135 488
14.2399997487664 480
14.2599997483194 516
14.2799997478724 512
14.2999997474253 517
14.3199997469783 512
14.3399997465312 518
14.3599997460842 515
14.3799997456372 559
14.3999997451901 515
14.4199997447431 484
14.4399997442961 475
14.459999743849 526
14.479999743402 500
14.499999742955 498
14.5199997425079 502
14.5399997420609 509
14.5599997416139 513
14.5799997411668 521
14.5999997407198 508
14.6199997402728 501
14.6399997398257 532
14.6599997393787 538
14.6799997389317 556
14.6999997384846 576
14.7199997380376 504
14.7399997375906 516
14.7599997371435 562
14.7799997366965 484
14.7999997362494 494
14.8199997358024 519
14.8399997353554 554
14.8599997349083 541
14.8799997344613 494
14.8999997340143 534
14.9199997335672 499
14.9399997331202 543
14.9599997326732 507
14.9799997322261 527
14.9999997317791 550
15.0199997313321 482
15.039999730885 529
15.059999730438 511
15.079999729991 531
15.0999997295439 514
15.1199997290969 504
15.1399997286499 543
15.1599997282028 512
15.1799997277558 564
15.1999997273088 545
15.2199997268617 556
15.2399997264147 524
15.2599997259676 542
15.2799997255206 581
15.2999997250736 525
15.3199997246265 566
15.3399997241795 564
15.3599997237325 550
15.3799997232854 539
15.3999997228384 588
15.4199997223914 543
15.4399997219443 508
15.4599997214973 495
15.4799997210503 598
15.4999997206032 520
15.5199997201562 570
15.5399997197092 557
15.5599997192621 548
15.5799997188151 577
15.5999997183681 561
15.619999717921 588
15.639999717474 559
15.659999717027 535
15.6799997165799 566
15.6999997161329 552
15.7199997156858 547
15.7399997152388 575
15.7599997147918 595
15.7799997143447 567
15.7999997138977 582
15.8199997134507 565
15.8399997130036 597
15.8599997125566 561
15.8799997121096 548
15.8999997116625 567
15.9199997112155 574
15.9399997107685 567
15.9599997103214 573
15.9799997098744 572
15.9999997094274 548
16.0199997089803 600
16.0399997085333 610
16.0599997080863 551
16.0799997076392 535
16.0999997071922 577
16.1199997067451 574
16.1399997062981 568
16.1599997058511 572
16.179999705404 609
16.199999704957 594
16.21999970451 576
16.2399997040629 587
16.2599997036159 605
16.2799997031689 633
16.2999997027218 610
16.3199997022748 592
16.3399997018278 583
16.3599997013807 580
16.3799997009337 557
16.3999997004867 598
16.4199997000396 611
16.4399996995926 606
16.4599996991456 607
16.4799996986985 636
16.4999996982515 597
16.5199996978045 614
16.5399996973574 620
16.5599996969104 610
16.5799996964633 639
16.5999996960163 649
16.6199996955693 591
16.6399996951222 656
16.6599996946752 650
16.6799996942282 642
16.6999996937811 591
16.7199996933341 629
16.7399996928871 629
16.75999969244 630
16.779999691993 595
16.799999691546 616
16.8199996910989 639
16.8399996906519 629
16.8599996902049 631
16.8799996897578 655
16.8999996893108 672
16.9199996888638 674
16.9399996884167 665
16.9599996879697 654
16.9799996875226 633
16.9999996870756 640
17.0199996866286 660
17.0399996861815 693
17.0599996857345 681
17.0799996852875 616
17.0999996848404 651
17.1199996843934 638
17.1399996839464 647
17.1599996834993 679
17.1799996830523 685
17.1999996826053 648
17.2199996821582 677
17.2399996817112 654
17.2599996812642 678
17.2799996808171 672
17.2999996803701 703
17.3199996799231 675
17.339999679476 650
17.359999679029 656
17.379999678582 630
17.3999996781349 652
17.4199996776879 675
17.4399996772408 728
17.4599996767938 658
17.4799996763468 669
17.4999996758997 720
17.5199996754527 727
17.5399996750057 676
17.5599996745586 679
17.5799996741116 721
17.5999996736646 680
17.6199996732175 755
17.6399996727705 660
17.6599996723235 655
17.6799996718764 706
17.6999996714294 714
17.7199996709824 714
17.7399996705353 651
17.7599996700883 726
17.7799996696413 683
17.7999996691942 720
17.8199996687472 685
17.8399996683002 758
17.8599996678531 710
17.8799996674061 739
17.899999666959 702
17.919999666512 747
17.939999666065 696
17.9599996656179 716
17.9799996651709 735
17.9999996647239 709
18.0199996642768 726
18.0399996638298 738
18.0599996633828 705
18.0799996629357 757
18.0999996624887 715
18.1199996620417 748
18.1399996615946 703
18.1599996611476 724
18.1799996607006 722
18.1999996602535 719
18.2199996598065 743
18.2399996593595 773
18.2599996589124 769
18.2799996584654 773
18.2999996580184 755
18.3199996575713 780
18.3399996571243 780
18.3599996566772 781
18.3799996562302 745
18.3999996557832 766
18.4199996553361 781
18.4399996548891 742
18.4599996544421 762
18.479999653995 763
18.499999653548 812
18.519999653101 758
18.5399996526539 759
18.5599996522069 820
18.5799996517599 791
18.5999996513128 813
18.6199996508658 802
18.6399996504188 832
18.6599996499717 738
18.6799996495247 824
18.6999996490777 834
18.7199996486306 744
18.7399996481836 825
18.7599996477366 755
18.7799996472895 767
18.7999996468425 802
18.8199996463954 783
18.8399996459484 787
18.8599996455014 805
18.8799996450543 812
18.8999996446073 802
18.9199996441603 803
18.9399996437132 807
18.9599996432662 764
18.9799996428192 802
18.9999996423721 823
19.0199996419251 787
19.0399996414781 819
19.059999641031 797
19.079999640584 865
19.099999640137 820
19.1199996396899 796
19.1399996392429 832
19.1599996387959 821
19.1799996383488 798
19.1999996379018 819
19.2199996374547 771
19.2399996370077 786
19.2599996365607 863
19.2799996361136 822
19.2999996356666 799
19.3199996352196 859
19.3399996347725 840
19.3599996343255 838
19.3799996338785 866
19.3999996334314 852
19.4199996329844 852
19.4399996325374 856
19.4599996320903 812
19.4799996316433 796
19.4999996311963 797
19.5199996307492 870
19.5399996303022 819
19.5599996298552 885
19.5799996294081 833
19.5999996289611 817
19.6199996285141 840
19.639999628067 862
19.65999962762 857
19.6799996271729 867
19.6999996267259 850
19.7199996262789 852
19.7399996258318 849
19.7599996253848 846
19.7799996249378 850
19.7999996244907 852
19.8199996240437 895
19.8399996235967 823
19.8599996231496 837
19.8799996227026 837
19.8999996222556 834
19.9199996218085 897
19.9399996213615 846
19.9599996209145 898
19.9799996204674 883
19.9999996200204 855
