3 2412
3.01999999955297 2227
3.03999999910593 2012
3.0599999986589 1908
3.07999999821186 1832
3.09999999776483 1813
3.11999999731779 1682
3.13999999687076 1684
3.15999999642372 1626
3.17999999597669 1674
3.19999999552965 1625
3.21999999508262 1578
3.23999999463558 1567
3.25999999418855 1627
3.27999999374151 1499
3.29999999329448 1465
3.31999999284744 1473
3.33999999240041 1489
3.35999999195337 1476
3.37999999150634 1423
3.3999999910593 1403
3.41999999061227 1426
3.43999999016523 1384
3.4599999897182 1423
3.47999998927116 1418
3.49999998882413 1364
3.51999998837709 1313
3.53999998793006 1317
3.55999998748302 1280
3.57999998703599 1336
3.59999998658895 1316
3.61999998614192 1262
3.63999998569489 1331
3.65999998524785 1273
3.67999998480082 1282
3.69999998435378 1269
3.71999998390675 1279
3.73999998345971 1208
3.75999998301268 1287
3.77999998256564 1237
3.79999998211861 1201
3.81999998167157 1214
3.83999998122454 1190
3.8599999807775 1290
3.87999998033047 1206
3.89999997988343 1277
3.9199999794364 1164
3.93999997898936 1211
3.95999997854233 1165
3.97999997809529 1239
3.99999997764826 1207
4.01999997720122 1114
4.03999997675419 1205
4.05999997630715 1143
4.07999997586012 1202
4.09999997541308 1166
4.11999997496605 1174
4.13999997451901 1172
4.15999997407198 1175
4.17999997362494 1126
4.19999997317791 1114
4.21999997273087 1133
4.23999997228384 1161
4.25999997183681 1144
4.27999997138977 1144
4.29999997094274 1132
4.3199999704957 1134
4.33999997004867 1119
4.35999996960163 1124
4.3799999691546 1076
4.39999996870756 1106
4.41999996826053 1113
4.43999996781349 1185
4.45999996736646 1156
4.47999996691942 1135
4.49999996647239 1110
4.51999996602535 1109
4.53999996557832 1136
4.55999996513128 1107
4.57999996468425 1149
4.59999996423721 1194
4.61999996379018 1143
4.63999996334314 1191
4.65999996289611 1156
4.67999996244907 1164
4.69999996200204 1207
4.719999961555 1153
4.73999996110797 1147
4.75999996066093 1197
4.7799999602139 1139
4.79999995976686 1172
4.81999995931983 1188
4.83999995887279 1210
4.85999995842576 1192
4.87999995797873 1232
4.89999995753169 1302
4.91999995708466 1190
4.93999995663762 1266
4.95999995619059 1285
4.97999995574355 1298
4.99999995529652 1279
5.01999995484948 1324
5.03999995440245 1335
5.05999995395541 1337
5.07999995350838 1414
5.09999995306134 1382
5.11999995261431 1431
5.13999995216727 1431
5.15999995172024 1409
5.1799999512732 1525
5.19999995082617 1523
5.21999995037913 1609
5.2399999499321 1529
5.25999994948506 1599
5.27999994903803 1613
5.29999994859099 1608
5.31999994814396 1668
5.33999994769692 1681
5.35999994724989 1773
5.37999994680285 1856
5.39999994635582 1775
5.41999994590878 1821
5.43999994546175 2007
5.45999994501471 2029
5.47999994456768 2086
5.49999994412065 2165
5.51999994367361 2238
5.53999994322658 2335
5.55999994277954 2502
5.57999994233251 2617
5.59999994188547 2672
5.61999994143844 2780
5.6399999409914 3015
5.65999994054437 3102
5.67999994009733 3295
5.6999999396503 3528
5.71999993920326 3725
5.73999993875623 3895
5.75999993830919 3914
5.77999993786216 3706
5.79999993741512 3527
5.81999993696809 3067
5.83999993652105 2540
5.85999993607402 2308
5.87999993562698 2085
5.89999993517995 1918
5.91999993473291 1759
5.93999993428588 1664
5.95999993383884 1609
5.97999993339181 1566
5.99999993294477 1531
6.01999993249774 1572
6.0399999320507 1429
6.05999993160367 1458
6.07999993115663 1412
6.0999999307096 1410
6.11999993026257 1389
6.13999992981553 1429
6.1599999293685 1421
6.17999992892146 1416
6.19999992847443 1368
6.21999992802739 1437
6.23999992758036 1433
6.25999992713332 1422
6.27999992668629 1442
6.29999992623925 1503
6.31999992579222 1497
6.33999992534518 1561
6.35999992489815 1541
6.37999992445111 1590
6.39999992400408 1599
6.41999992355704 1554
6.43999992311001 1627
6.45999992266297 1665
6.47999992221594 1776
6.4999999217689 1861
6.51999992132187 1915
6.53999992087483 1959
6.5599999204278 2031
6.57999991998076 2136
6.59999991953373 2149
6.61999991908669 2288
6.63999991863966 2335
6.65999991819262 2230
6.67999991774559 2042
6.69999991729855 1874
6.71999991685152 1696
6.73999991640449 1517
6.75999991595745 1439
6.77999991551042 1283
6.79999991506338 1287
6.81999991461635 1234
6.83999991416931 1170
6.85999991372228 1215
6.87999991327524 1171
6.89999991282821 1109
6.91999991238117 1146
6.93999991193414 1180
6.9599999114871 1129
6.97999991104007 1107
6.99999991059303 1187
7.019999910146 1143
7.03999990969896 1117
7.05999990925193 1143
7.07999990880489 1108
7.09999990835786 1087
7.11999990791082 1109
7.13999990746379 1136
7.15999990701675 1099
7.17999990656972 1131
7.19999990612268 1038
7.21999990567565 1146
7.23999990522861 1040
7.25999990478158 1068
7.27999990433454 1122
7.29999990388751 1092
7.31999990344047 1097
7.33999990299344 1119
7.35999990254641 1083
7.37999990209937 1076
7.39999990165234 1059
7.4199999012053 1090
7.43999990075827 1027
7.45999990031123 1024
7.4799998998642 1004
7.49999989941716 1028
7.51999989897013 1029
7.53999989852309 1064
7.55999989807606 990
7.57999989762902 991
7.59999989718199 1012
7.61999989673495 1006
7.63999989628792 982
7.65999989584088 988
7.67999989539385 1013
7.69999989494681 1004
7.71999989449978 998
7.73999989405274 930
7.75999989360571 996
7.77999989315867 999
7.79999989271164 1008
7.8199998922646 934
7.83999989181757 990
7.85999989137053 961
7.8799998909235 970
7.89999989047646 898
7.91999989002943 943
7.9399998895824 924
7.95999988913536 991
7.97999988868833 945
7.99999988824129 930
8.01999988779426 924
8.03999988734722 952
8.05999988690019 967
8.07999988645315 964
8.09999988600612 928
8.11999988555908 957
8.13999988511205 946
8.15999988466501 932
8.17999988421798 931
8.19999988377094 900
8.21999988332391 932
8.23999988287687 1010
8.25999988242984 943
8.2799998819828 928
8.29999988153577 975
8.31999988108873 895
8.3399998806417 897
8.35999988019466 969
8.37999987974763 933
8.39999987930059 890
8.41999987885356 937
8.43999987840652 931
8.45999987795949 948
8.47999987751245 924
8.49999987706542 934
8.51999987661839 881
8.53999987617135 914
8.55999987572432 891
8.57999987527728 919
8.59999987483025 880
8.61999987438321 882
8.63999987393618 861
8.65999987348914 950
8.67999987304211 937
8.69999987259507 921
8.71999987214804 889
8.739999871701 887
8.75999987125397 893
8.77999987080693 916
8.7999998703599 941
8.81999986991286 957
8.83999986946583 956
8.85999986901879 971
8.87999986857176 992
8.89999986812472 951
8.91999986767769 940
8.93999986723065 955
8.95999986678362 998
8.97999986633658 1081
8.99999986588955 989
9.01999986544251 1059
9.03999986499548 1058
9.05999986454844 1067
9.07999986410141 1071
9.09999986365438 1137
9.11999986320734 1089
9.13999986276031 1171
9.15999986231327 1272
9.17999986186624 1274
9.1999998614192 1253
9.21999986097217 1375
9.23999986052513 1413
9.2599998600781 1565
9.27999985963106 1608
9.29999985918403 1596
9.31999985873699 1766
9.33999985828996 1832
9.35999985784292 1978
9.37999985739589 1947
9.39999985694885 1854
9.41999985650182 1707
9.43999985605478 1615
9.45999985560775 1401
9.47999985516071 1287
9.49999985471368 1234
9.51999985426664 1178
9.53999985381961 1093
9.55999985337257 1045
9.57999985292554 1027
9.5999998524785 1054
9.61999985203147 1022
9.63999985158443 1038
9.6599998511374 1041
9.67999985069037 1002
9.69999985024333 1010
9.7199998497963 977
9.73999984934926 1006
9.75999984890223 1026
9.77999984845519 966
9.79999984800816 952
9.81999984756112 1025
9.83999984711409 965
9.85999984666705 998
9.87999984622002 963
9.89999984577298 1009
9.91999984532595 981
9.93999984487891 928
9.95999984443188 902
9.97999984398484 934
9.99999984353781 931
10.0199998430908 909
10.0399998426437 1018
10.0599998421967 964
10.0799998417497 992
10.0999998413026 949
10.1199998408556 944
10.1399998404086 921
10.1599998399615 956
10.1799998395145 970
10.1999998390675 960
10.2199998386204 976
10.2399998381734 1018
10.2599998377264 959
10.2799998372793 927
10.2999998368323 1016
10.3199998363853 933
10.3399998359382 958
10.3599998354912 956
10.3799998350441 970
10.3999998345971 958
10.4199998341501 963
10.439999833703 968
10.459999833256 999
10.479999832809 945
10.4999998323619 1007
10.5199998319149 1036
10.5399998314679 1012
10.5599998310208 1049
10.5799998305738 1038
10.5999998301268 1043
10.6199998296797 1069
10.6399998292327 1069
10.6599998287857 1041
10.6799998283386 1109
10.6999998278916 1080
10.7199998274446 1139
10.7399998269975 1173
10.7599998265505 1165
10.7799998261034 1198
10.7999998256564 1231
10.8199998252094 1281
10.8399998247623 1337
10.8599998243153 1313
10.8799998238683 1372
10.8999998234212 1509
10.9199998229742 1609
10.9399998225272 1628
10.9599998220801 1799
10.9799998216331 1733
10.9999998211861 1736
11.019999820739 1703
11.039999820292 1517
11.059999819845 1409
11.0799998193979 1333
11.0999998189509 1171
11.1199998185039 1239
11.1399998180568 1151
11.1599998176098 1152
11.1799998171628 1108
11.1999998167157 1133
11.2199998162687 1111
11.2399998158216 1189
11.2599998153746 1113
11.2799998149276 1146
11.2999998144805 1190
11.3199998140335 1202
11.3399998135865 1210
11.3599998131394 1164
11.3799998126924 1208
11.3999998122454 1202
11.4199998117983 1310
11.4399998113513 1337
11.4599998109043 1331
11.4799998104572 1371
11.4999998100102 1346
11.5199998095632 1265
11.5399998091161 1235
11.5599998086691 1172
11.5799998082221 1106
11.599999807775 1075
11.619999807328 1059
11.639999806881 975
11.6599998064339 1066
11.6799998059869 1042
11.6999998055398 1018
11.7199998050928 1007
11.7399998046458 961
11.7599998041987 1006
11.7799998037517 1042
11.7999998033047 958
11.8199998028576 966
11.8399998024106 1029
11.8599998019636 988
11.8799998015165 1017
11.8999998010695 1031
11.9199998006225 1001
11.9399998001754 998
11.9599997997284 959
11.9799997992814 1029
11.9999997988343 973
12.0199997983873 1031
12.0399997979403 1003
12.0599997974932 960
12.0799997970462 980
12.0999997965992 1000
12.1199997961521 943
12.1399997957051 1039
12.159999795258 1027
12.179999794811 961
12.199999794364 1010
12.2199997939169 1002
12.2399997934699 921
12.2599997930229 985
12.2799997925758 937
12.2999997921288 958
12.3199997916818 1017
12.3399997912347 1008
12.3599997907877 956
12.3799997903407 985
12.3999997898936 967
12.4199997894466 1011
12.4399997889996 1010
12.4599997885525 988
12.4799997881055 1003
12.4999997876585 1011
12.5199997872114 988
12.5399997867644 993
12.5599997863173 932
12.5799997858703 1049
12.5999997854233 957
12.6199997849762 954
12.6399997845292 942
12.6599997840822 991
12.6799997836351 995
12.6999997831881 1001
12.7199997827411 999
12.739999782294 1050
12.759999781847 1003
12.7799997814 930
12.7999997809529 1043
12.8199997805059 1076
12.8399997800589 1026
12.8599997796118 1054
12.8799997791648 1006
12.8999997787178 1001
12.9199997782707 1068
12.9399997778237 996
12.9599997773767 1036
12.9799997769296 1068
12.9999997764826 1044
13.0199997760355 1002
13.0399997755885 1049
13.0599997751415 1026
13.0799997746944 1078
13.0999997742474 1091
13.1199997738004 1147
13.1399997733533 1089
13.1599997729063 1134
13.1799997724593 1162
13.1999997720122 1124
13.2199997715652 1125
13.2399997711182 1203
13.2599997706711 1183
13.2799997702241 1167
13.2999997697771 1168
13.31999976933 1149
13.339999768883 1115
13.359999768436 1041
13.3799997679889 1072
13.3999997675419 1085
13.4199997670949 1122
13.4399997666478 1118
13.4599997662008 1099
13.4799997657537 1118
13.4999997653067 1080
13.5199997648597 1081
13.5399997644126 1101
13.5599997639656 1057
13.5799997635186 1124
13.5999997630715 1103
13.6199997626245 1049
13.6399997621775 1115
13.6599997617304 1100
13.6799997612834 1098
13.6999997608364 1182
13.7199997603893 1148
13.7399997599423 1135
13.7599997594953 1125
13.7799997590482 1157
13.7999997586012 1079
13.8199997581542 1074
13.8399997577071 1116
13.8599997572601 1157
13.879999756813 1165
13.899999756366 1133
13.919999755919 1141
13.9399997554719 1098
13.9599997550249 1090
13.9799997545779 1133
13.9999997541308 1186
14.0199997536838 1181
14.0399997532368 1225
14.0599997527897 1175
14.0799997523427 1195
14.0999997518957 1194
14.1199997514486 1166
14.1399997510016 1164
14.1599997505546 1149
14.1799997501075 1185
14.1999997496605 1242
14.2199997492135 1239
14.2399997487664 1190
14.2599997483194 1230
14.2799997478724 1240
14.2999997474253 1311
14.3199997469783 1291
14.3399997465312 1300
14.3599997460842 1281
14.3799997456372 1384
14.3999997451901 1390
14.4199997447431 1338
14.4399997442961 1381
14.459999743849 1356
14.479999743402 1294
14.499999742955 1350
14.5199997425079 1314
14.5399997420609 1333
14.5599997416139 1259
14.5799997411668 1302
14.5999997407198 1312
14.6199997402728 1270
14.6399997398257 1274
14.6599997393787 1285
14.6799997389317 1245
14.6999997384846 1274
14.7199997380376 1289
14.7399997375906 1256
14.7599997371435 1273
14.7799997366965 1241
14.7999997362494 1236
14.8199997358024 1253
14.8399997353554 1290
14.8599997349083 1341
14.8799997344613 1280
14.8999997340143 1321
14.9199997335672 1305
14.9399997331202 1280
14.9599997326732 1315
14.9799997322261 1275
14.9999997317791 1317
15.0199997313321 1318
15.039999730885 1247
15.059999730438 1344
15.079999729991 1325
15.0999997295439 1342
15.1199997290969 1325
15.1399997286499 1313
15.1599997282028 1277
15.1799997277558 1363
15.1999997273088 1295
15.2199997268617 1280
15.2399997264147 1350
15.2599997259676 1367
15.2799997255206 1353
15.2999997250736 1323
15.3199997246265 1290
15.3399997241795 1291
15.3599997237325 1338
15.3799997232854 1378
15.3999997228384 1347
15.4199997223914 1396
15.4399997219443 1375
15.4599997214973 1398
15.4799997210503 1455
15.4999997206032 1328
15.5199997201562 1440
15.5399997197092 1432
15.5599997192621 1412
15.5799997188151 1474
15.5999997183681 1375
15.619999717921 1414
15.639999717474 1473
15.659999717027 1402
15.6799997165799 1451
15.6999997161329 1441
15.7199997156858 1484
15.7399997152388 1452
15.7599997147918 1403
15.7799997143447 1412
15.7999997138977 1418
15.8199997134507 1533
15.8399997130036 1435
15.8599997125566 1470
15.8799997121096 1478
15.8999997116625 1489
15.9199997112155 1470
15.9399997107685 1465
15.9599997103214 1501
15.9799997098744 1521
15.9999997094274 1510
16.0199997089803 1556
16.0399997085333 1545
16.0599997080863 1465
16.0799997076392 1505
16.0999997071922 1517
16.1199997067451 1494
16.1399997062981 1582
16.1599997058511 1539
16.179999705404 1508
16.199999704957 1620
16.21999970451 1596
16.2399997040629 1487
16.2599997036159 1507
16.2799997031689 1553
16.2999997027218 1605
16.3199997022748 1549
16.3399997018278 1582
16.3599997013807 1526
16.3799997009337 1603
16.3999997004867 1600
16.4199997000396 1518
16.4399996995926 1572
16.4599996991456 1596
16.4799996986985 1531
16.4999996982515 1612
16.5199996978045 1701
16.5399996973574 1667
16.5599996969104 1608
16.5799996964633 1683
16.5999996960163 1622
16.6199996955693 1639
16.6399996951222 1698
16.6599996946752 1701
16.6799996942282 1640
16.6999996937811 1683
16.7199996933341 1665
16.7399996928871 1725
16.75999969244 1618
16.779999691993 1747
16.799999691546 1738
16.8199996910989 1748
16.8399996906519 1742
16.8599996902049 1766
16.8799996897578 1722
16.8999996893108 1774
16.9199996888638 1784
16.9399996884167 1791
16.9599996879697 1837
16.9799996875226 1764
16.9999996870756 1761
17.0199996866286 1895
17.0399996861815 1883
17.0599996857345 1793
17.0799996852875 1884
17.0999996848404 1849
17.1199996843934 1887
17.1399996839464 1886
17.1599996834993 1894
17.1799996830523 1961
17.1999996826053 1952
17.2199996821582 2004
17.2399996817112 2004
17.2599996812642 1980
17.2799996808171 2002
17.2999996803701 1892
17.3199996799231 1892
17.339999679476 1902
17.359999679029 1880
17.379999678582 1915
17.3999996781349 1880
17.4199996776879 1875
17.4399996772408 1848
17.4599996767938 1891
17.4799996763468 1835
17.4999996758997 1848
17.5199996754527 1927
17.5399996750057 1936
17.5599996745586 1988
17.5799996741116 1951
17.5999996736646 1913
17.6199996732175 1940
17.6399996727705 1977
17.6599996723235 1957
17.6799996718764 1854
17.6999996714294 1996
17.7199996709824 1964
17.7399996705353 1933
17.7599996700883 1896
17.7799996696413 1968
17.7999996691942 1957
17.8199996687472 2009
17.8399996683002 1989
17.8599996678531 1992
17.8799996674061 1951
17.899999666959 1999
17.919999666512 2076
17.939999666065 1992
17.9599996656179 1971
17.9799996651709 2025
17.9999996647239 2054
18.0199996642768 2032
18.0399996638298 2055
18.0599996633828 2010
18.0799996629357 2032
18.0999996624887 2045
18.1199996620417 2140
18.1399996615946 1943
18.1599996611476 2088
18.1799996607006 2039
18.1999996602535 2143
18.2199996598065 2124
18.2399996593595 2104
18.2599996589124 2103
18.2799996584654 2056
18.2999996580184 2080
18.3199996575713 2150
18.3399996571243 2094
18.3599996566772 2110
18.3799996562302 2131
18.3999996557832 2062
18.4199996553361 2166
18.4399996548891 2132
18.4599996544421 2113
18.479999653995 2072
18.499999653548 2220
18.519999653101 2228
18.5399996526539 2215
18.5599996522069 2277
18.5799996517599 2195
18.5999996513128 2196
18.6199996508658 2167
18.6399996504188 2227
18.6599996499717 2203
18.6799996495247 2255
18.6999996490777 2299
18.7199996486306 2208
18.7399996481836 2243
18.7599996477366 2271
18.7799996472895 2271
18.7999996468425 2225
18.8199996463954 2233
18.8399996459484 2200
18.8599996455014 2183
18.8799996450543 2254
18.8999996446073 2253
18.9199996441603 2258
18.9399996437132 2295
18.9599996432662 2364
18.9799996428192 2267
18.9999996423721 2275
19.0199996419251 2315
19.0399996414781 2325
19.059999641031 2292
19.079999640584 2308
19.099999640137 2365
19.1199996396899 2358
19.1399996392429 2320
19.1599996387959 2344
19.1799996383488 2333
19.1999996379018 2470
19.2199996374547 2367
19.2399996370077 2362
19.2599996365607 2402
19.2799996361136 2398
19.2999996356666 2319
19.3199996352196 2396
19.3399996347725 2426
19.3599996343255 2520
19.3799996338785 2419
19.3999996334314 2420
19.4199996329844 2521
19.4399996325374 2516
19.4599996320903 2533
19.4799996316433 2475
19.4999996311963 2590
19.5199996307492 2659
19.5399996303022 2705
19.5599996298552 2752
19.5799996294081 2830
19.5999996289611 2745
19.6199996285141 2803
19.639999628067 2831
19.65999962762 2786
19.6799996271729 2711
19.6999996267259 2832
19.7199996262789 2676
19.7399996258318 2663
19.7599996253848 2665
19.7799996249378 2736
19.7999996244907 2818
19.8199996240437 2795
19.8399996235967 2753
19.8599996231496 2801
19.8799996227026 2914
19.8999996222556 2896
19.9199996218085 2884
19.9399996213615 2734
19.9599996209145 2681
19.9799996204674 2667
19.9999996200204 2574
