3 2008
3.01999999955297 1918
3.03999999910593 1763
3.0599999986589 1648
3.07999999821186 1590
3.09999999776483 1495
3.11999999731779 1428
3.13999999687076 1405
3.15999999642372 1427
3.17999999597669 1401
3.19999999552965 1333
3.21999999508262 1325
3.23999999463558 1344
3.25999999418855 1381
3.27999999374151 1341
3.29999999329448 1335
3.31999999284744 1231
3.33999999240041 1334
3.35999999195337 1222
3.37999999150634 1237
3.3999999910593 1222
3.41999999061227 1245
3.43999999016523 1230
3.4599999897182 1195
3.47999998927116 1119
3.49999998882413 1175
3.51999998837709 1177
3.53999998793006 1119
3.55999998748302 1158
3.57999998703599 1167
3.59999998658895 1087
3.61999998614192 1163
3.63999998569489 1168
3.65999998524785 1115
3.67999998480082 1095
3.69999998435378 1063
3.71999998390675 1097
3.73999998345971 1075
3.75999998301268 1055
3.77999998256564 1102
3.79999998211861 1063
3.81999998167157 1006
3.83999998122454 1028
3.8599999807775 1008
3.87999998033047 1019
3.89999997988343 1035
3.9199999794364 1055
3.93999997898936 1046
3.95999997854233 1013
3.97999997809529 1009
3.99999997764826 975
4.01999997720122 995
4.03999997675419 961
4.05999997630715 997
4.07999997586012 1030
4.09999997541308 996
4.11999997496605 982
4.13999997451901 964
4.15999997407198 971
4.17999997362494 991
4.19999997317791 927
4.21999997273087 934
4.23999997228384 964
4.25999997183681 955
4.27999997138977 966
4.29999997094274 928
4.3199999704957 948
4.33999997004867 942
4.35999996960163 940
4.3799999691546 908
4.39999996870756 934
4.41999996826053 938
4.43999996781349 969
4.45999996736646 994
4.47999996691942 940
4.49999996647239 880
4.51999996602535 907
4.53999996557832 948
4.55999996513128 910
4.57999996468425 912
4.59999996423721 934
4.61999996379018 940
4.63999996334314 898
4.65999996289611 888
4.67999996244907 926
4.69999996200204 959
4.719999961555 927
4.73999996110797 925
4.75999996066093 909
4.7799999602139 909
4.79999995976686 937
4.81999995931983 943
4.83999995887279 921
4.85999995842576 939
4.87999995797873 921
4.89999995753169 959
4.91999995708466 889
4.93999995663762 961
4.95999995619059 985
4.97999995574355 984
4.99999995529652 985
5.01999995484948 926
5.03999995440245 945
5.05999995395541 969
5.07999995350838 927
5.09999995306134 935
5.11999995261431 928
5.13999995216727 917
5.15999995172024 971
5.1799999512732 974
5.19999995082617 962
5.21999995037913 970
5.2399999499321 946
5.25999994948506 971
5.27999994903803 961
5.29999994859099 935
5.31999994814396 986
5.33999994769692 981
5.35999994724989 1008
5.37999994680285 983
5.39999994635582 1015
5.41999994590878 1014
5.43999994546175 1040
5.45999994501471 1037
5.47999994456768 1003
5.49999994412065 1031
5.51999994367361 1016
5.53999994322658 1014
5.55999994277954 975
5.57999994233251 995
5.59999994188547 1003
5.61999994143844 1028
5.6399999409914 1012
5.65999994054437 1026
5.67999994009733 1024
5.6999999396503 1035
5.71999993920326 988
5.73999993875623 1059
5.75999993830919 1060
5.77999993786216 1049
5.79999993741512 1044
5.81999993696809 1041
5.83999993652105 985
5.85999993607402 1012
5.87999993562698 1047
5.89999993517995 1056
5.91999993473291 1068
5.93999993428588 978
5.95999993383884 1106
5.97999993339181 1038
5.99999993294477 1042
6.01999993249774 1040
6.0399999320507 970
6.05999993160367 1032
6.07999993115663 1000
6.0999999307096 1022
6.11999993026257 1045
6.13999992981553 1040
6.1599999293685 1025
6.17999992892146 1011
6.19999992847443 1051
6.21999992802739 1040
6.23999992758036 1032
6.25999992713332 953
6.27999992668629 1004
6.29999992623925 992
6.31999992579222 1068
6.33999992534518 1032
6.35999992489815 1008
6.37999992445111 1078
6.39999992400408 977
6.41999992355704 1036
6.43999992311001 986
6.45999992266297 969
6.47999992221594 1011
6.4999999217689 969
6.51999992132187 970
6.53999992087483 926
6.5599999204278 918
6.57999991998076 962
6.59999991953373 990
6.61999991908669 920
6.63999991863966 914
6.65999991819262 941
6.67999991774559 946
6.69999991729855 924
6.71999991685152 928
6.73999991640449 931
6.75999991595745 944
6.77999991551042 871
6.79999991506338 890
6.81999991461635 876
6.83999991416931 895
6.85999991372228 898
6.87999991327524 909
6.89999991282821 865
6.91999991238117 838
6.93999991193414 830
6.9599999114871 812
6.97999991104007 843
6.99999991059303 861
7.019999910146 827
7.03999990969896 823
7.05999990925193 849
7.07999990880489 854
7.09999990835786 854
7.11999990791082 852
7.13999990746379 860
7.15999990701675 785
7.17999990656972 816
7.19999990612268 831
7.21999990567565 763
7.23999990522861 790
7.25999990478158 828
7.27999990433454 825
7.29999990388751 756
7.31999990344047 748
7.33999990299344 802
7.35999990254641 742
7.37999990209937 764
7.39999990165234 806
7.4199999012053 801
7.43999990075827 788
7.45999990031123 775
7.4799998998642 760
7.49999989941716 759
7.51999989897013 763
7.53999989852309 739
7.55999989807606 752
7.57999989762902 790
7.59999989718199 704
7.61999989673495 770
7.63999989628792 772
7.65999989584088 788
7.67999989539385 768
7.69999989494681 744
7.71999989449978 729
7.73999989405274 749
7.75999989360571 736
7.77999989315867 738
7.79999989271164 708
7.8199998922646 767
7.83999989181757 772
7.85999989137053 681
7.8799998909235 752
7.89999989047646 727
7.91999989002943 718
7.9399998895824 749
7.95999988913536 730
7.97999988868833 732
7.99999988824129 698
8.01999988779426 728
8.03999988734722 733
8.05999988690019 717
8.07999988645315 701
8.09999988600612 738
8.11999988555908 740
8.13999988511205 746
8.15999988466501 718
8.17999988421798 697
8.19999988377094 710
8.21999988332391 724
8.23999988287687 723
8.25999988242984 745
8.2799998819828 664
8.29999988153577 700
8.31999988108873 684
8.3399998806417 738
8.35999988019466 683
8.37999987974763 688
8.39999987930059 679
8.41999987885356 691
8.43999987840652 732
8.45999987795949 742
8.47999987751245 678
8.49999987706542 673
8.51999987661839 689
8.53999987617135 698
8.55999987572432 732
8.57999987527728 713
8.59999987483025 671
8.61999987438321 681
8.63999987393618 662
8.65999987348914 698
8.67999987304211 694
8.69999987259507 744
8.71999987214804 718
8.739999871701 732
8.75999987125397 712
8.77999987080693 730
8.7999998703599 649
8.81999986991286 695
8.83999986946583 731
8.85999986901879 686
8.87999986857176 654
8.89999986812472 701
8.91999986767769 701
8.93999986723065 665
8.95999986678362 665
8.97999986633658 703
8.99999986588955 671
9.01999986544251 696
9.03999986499548 697
9.05999986454844 672
9.07999986410141 662
9.09999986365438 665
9.11999986320734 654
9.13999986276031 706
9.15999986231327 684
9.17999986186624 708
9.1999998614192 690
9.21999986097217 682
9.23999986052513 702
9.2599998600781 653
9.27999985963106 685
9.29999985918403 670
9.31999985873699 703
9.33999985828996 661
9.35999985784292 709
9.37999985739589 694
9.39999985694885 674
9.41999985650182 692
9.43999985605478 670
9.45999985560775 708
9.47999985516071 678
9.49999985471368 683
9.51999985426664 716
9.53999985381961 637
9.55999985337257 707
9.57999985292554 699
9.5999998524785 644
9.61999985203147 731
9.63999985158443 695
9.6599998511374 748
9.67999985069037 703
9.69999985024333 740
9.7199998497963 689
9.73999984934926 661
9.75999984890223 721
9.77999984845519 691
9.79999984800816 672
9.81999984756112 709
9.83999984711409 680
9.85999984666705 628
9.87999984622002 649
9.89999984577298 696
9.91999984532595 689
9.93999984487891 727
9.95999984443188 683
9.97999984398484 671
9.99999984353781 693
10.0199998430908 730
10.0399998426437 704
10.0599998421967 706
10.0799998417497 689
10.0999998413026 732
10.1199998408556 694
10.1399998404086 726
10.1599998399615 692
10.1799998395145 692
10.1999998390675 689
10.2199998386204 721
10.2399998381734 730
10.2599998377264 710
10.2799998372793 703
10.2999998368323 752
10.3199998363853 689
10.3399998359382 690
10.3599998354912 753
10.3799998350441 707
10.3999998345971 716
10.4199998341501 735
10.439999833703 726
10.459999833256 677
10.479999832809 718
10.4999998323619 703
10.5199998319149 727
10.5399998314679 713
10.5599998310208 704
10.5799998305738 722
10.5999998301268 759
10.6199998296797 749
10.6399998292327 744
10.6599998287857 734
10.6799998283386 748
10.6999998278916 738
10.7199998274446 696
10.7399998269975 726
10.7599998265505 710
10.7799998261034 692
10.7999998256564 743
10.8199998252094 676
10.8399998247623 765
10.8599998243153 692
10.8799998238683 726
10.8999998234212 705
10.9199998229742 767
10.9399998225272 686
10.9599998220801 793
10.9799998216331 721
10.9999998211861 748
11.019999820739 754
11.039999820292 731
11.059999819845 746
11.0799998193979 729
11.0999998189509 702
11.1199998185039 768
11.1399998180568 730
11.1599998176098 748
11.1799998171628 789
11.1999998167157 772
11.2199998162687 770
11.2399998158216 733
11.2599998153746 723
11.2799998149276 780
11.2999998144805 746
11.3199998140335 778
11.3399998135865 767
11.3599998131394 769
11.3799998126924 739
11.3999998122454 771
11.4199998117983 765
11.4399998113513 716
11.4599998109043 740
11.4799998104572 748
11.4999998100102 789
11.5199998095632 790
11.5399998091161 755
11.5599998086691 788
11.5799998082221 765
11.599999807775 713
11.619999807328 762
11.639999806881 794
11.6599998064339 767
11.6799998059869 780
11.6999998055398 753
11.7199998050928 749
11.7399998046458 831
11.7599998041987 773
11.7799998037517 738
11.7999998033047 784
11.8199998028576 806
11.8399998024106 751
11.8599998019636 794
11.8799998015165 769
11.8999998010695 787
11.9199998006225 789
11.9399998001754 810
11.9599997997284 790
11.9799997992814 797
11.9999997988343 753
12.0199997983873 756
12.0399997979403 747
12.0599997974932 817
12.0799997970462 829
12.0999997965992 774
12.1199997961521 780
12.1399997957051 773
12.159999795258 798
12.179999794811 733
12.199999794364 802
12.2199997939169 757
12.2399997934699 757
12.2599997930229 733
12.2799997925758 782
12.2999997921288 800
12.3199997916818 764
12.3399997912347 765
12.3599997907877 780
12.3799997903407 803
12.3999997898936 772
12.4199997894466 749
12.4399997889996 801
12.4599997885525 751
12.4799997881055 795
12.4999997876585 802
12.5199997872114 768
12.5399997867644 773
12.5599997863173 797
12.5799997858703 761
12.5999997854233 833
12.6199997849762 822
12.6399997845292 804
12.6599997840822 789
12.6799997836351 824
12.6999997831881 812
12.7199997827411 809
12.739999782294 799
12.759999781847 843
12.7799997814 809
12.7999997809529 802
12.8199997805059 787
12.8399997800589 790
12.8599997796118 767
12.8799997791648 790
12.8999997787178 759
12.9199997782707 793
12.9399997778237 840
12.9599997773767 822
12.9799997769296 800
12.9999997764826 842
13.0199997760355 824
13.0399997755885 862
13.0599997751415 797
13.0799997746944 850
13.0999997742474 831
13.1199997738004 794
13.1399997733533 829
13.1599997729063 841
13.1799997724593 874
13.1999997720122 839
13.2199997715652 838
13.2399997711182 906
13.2599997706711 825
13.2799997702241 860
13.2999997697771 841
13.31999976933 776
13.339999768883 851
13.359999768436 879
13.3799997679889 805
13.3999997675419 824
13.4199997670949 843
13.4399997666478 886
13.4599997662008 803
13.4799997657537 807
13.4999997653067 867
13.5199997648597 871
13.5399997644126 843
13.5599997639656 795
13.5799997635186 851
13.5999997630715 806
13.6199997626245 815
13.6399997621775 823
13.6599997617304 825
13.6799997612834 845
13.6999997608364 870
13.7199997603893 822
13.7399997599423 828
13.7599997594953 811
13.7799997590482 832
13.7999997586012 898
13.8199997581542 863
13.8399997577071 877
13.8599997572601 891
13.879999756813 859
13.899999756366 852
13.919999755919 815
13.9399997554719 891
13.9599997550249 842
13.9799997545779 899
13.9999997541308 868
14.0199997536838 889
14.0399997532368 882
14.0599997527897 836
14.0799997523427 829
14.0999997518957 912
14.1199997514486 923
14.1399997510016 898
14.1599997505546 869
14.1799997501075 900
14.1999997496605 898
14.2199997492135 859
14.2399997487664 921
14.2599997483194 879
14.2799997478724 890
14.2999997474253 922
14.3199997469783 902
14.3399997465312 915
14.3599997460842 876
14.3799997456372 866
14.3999997451901 888
14.4199997447431 941
14.4399997442961 930
14.459999743849 945
14.479999743402 943
14.499999742955 920
14.5199997425079 961
14.5399997420609 952
14.5599997416139 916
14.5799997411668 934
14.5999997407198 927
14.6199997402728 981
14.6399997398257 984
14.6599997393787 913
14.6799997389317 979
14.6999997384846 950
14.7199997380376 950
14.7399997375906 924
14.7599997371435 965
14.7799997366965 934
14.7999997362494 926
14.8199997358024 979
14.8399997353554 957
14.8599997349083 987
14.8799997344613 976
14.8999997340143 993
14.9199997335672 1003
14.9399997331202 963
14.9599997326732 985
14.9799997322261 1005
14.9999997317791 990
15.0199997313321 981
15.039999730885 1025
15.059999730438 1006
15.079999729991 980
15.0999997295439 1037
15.1199997290969 1010
15.1399997286499 1021
15.1599997282028 1018
15.1799997277558 995
15.1999997273088 1013
15.2199997268617 1006
15.2399997264147 983
15.2599997259676 1050
15.2799997255206 1048
15.2999997250736 1063
15.3199997246265 1041
15.3399997241795 1041
15.3599997237325 1067
15.3799997232854 1047
15.3999997228384 1049
15.4199997223914 1052
15.4399997219443 1135
15.4599997214973 1092
15.4799997210503 1030
15.4999997206032 1071
15.5199997201562 1063
15.5399997197092 1081
15.5599997192621 1090
15.5799997188151 1140
15.5999997183681 1145
15.619999717921 1115
15.639999717474 1107
15.659999717027 1134
15.6799997165799 1143
15.6999997161329 1116
15.7199997156858 1125
15.7399997152388 1094
15.7599997147918 1145
15.7799997143447 1111
15.7999997138977 1133
15.8199997134507 1193
15.8399997130036 1094
15.8599997125566 1116
15.8799997121096 1144
15.8999997116625 1180
15.9199997112155 1135
15.9399997107685 1209
15.9599997103214 1173
15.9799997098744 1118
15.9999997094274 1173
16.0199997089803 1205
16.0399997085333 1204
16.0599997080863 1175
16.0799997076392 1181
16.0999997071922 1215
16.1199997067451 1197
16.1399997062981 1190
16.1599997058511 1203
16.179999705404 1255
16.199999704957 1196
16.21999970451 1183
16.2399997040629 1229
16.2599997036159 1178
16.2799997031689 1199
16.2999997027218 1197
16.3199997022748 1236
16.3399997018278 1253
16.3599997013807 1270
16.3799997009337 1284
16.3999997004867 1233
16.4199997000396 1347
16.4399996995926 1290
16.4599996991456 1309
16.4799996986985 1345
16.4999996982515 1255
16.5199996978045 1281
16.5399996973574 1270
16.5599996969104 1317
16.5799996964633 1306
16.5999996960163 1290
16.6199996955693 1262
16.6399996951222 1344
16.6599996946752 1325
16.6799996942282 1363
16.6999996937811 1346
16.7199996933341 1288
16.7399996928871 1403
16.75999969244 1318
16.779999691993 1374
16.799999691546 1358
16.8199996910989 1439
16.8399996906519 1459
16.8599996902049 1415
16.8799996897578 1394
16.8999996893108 1396
16.9199996888638 1399
16.9399996884167 1438
16.9599996879697 1427
16.9799996875226 1501
16.9999996870756 1478
17.0199996866286 1581
17.0399996861815 1471
17.0599996857345 1583
17.0799996852875 1550
17.0999996848404 1463
17.1199996843934 1463
17.1399996839464 1478
17.1599996834993 1472
17.1799996830523 1485
17.1999996826053 1504
17.2199996821582 1475
17.2399996817112 1520
17.2599996812642 1481
17.2799996808171 1513
17.2999996803701 1444
17.3199996799231 1576
17.339999679476 1527
17.359999679029 1462
17.379999678582 1518
17.3999996781349 1495
17.4199996776879 1504
17.4399996772408 1587
17.4599996767938 1522
17.4799996763468 1552
17.4999996758997 1560
17.5199996754527 1596
17.5399996750057 1560
17.5599996745586 1563
17.5799996741116 1573
17.5999996736646 1539
17.6199996732175 1595
17.6399996727705 1559
17.6599996723235 1581
17.6799996718764 1685
17.6999996714294 1621
17.7199996709824 1604
17.7399996705353 1656
17.7599996700883 1564
17.7799996696413 1568
17.7999996691942 1684
17.8199996687472 1701
17.8399996683002 1653
17.8599996678531 1670
17.8799996674061 1687
17.899999666959 1659
17.919999666512 1692
17.939999666065 1689
17.9599996656179 1657
17.9799996651709 1777
17.9999996647239 1679
18.0199996642768 1690
18.0399996638298 1683
18.0599996633828 1722
18.0799996629357 1669
18.0999996624887 1735
18.1199996620417 1722
18.1399996615946 1786
18.1599996611476 1752
18.1799996607006 1723
18.1999996602535 1704
18.2199996598065 1737
18.2399996593595 1822
18.2599996589124 1726
18.2799996584654 1745
18.2999996580184 1781
18.3199996575713 1714
18.3399996571243 1719
18.3599996566772 1813
18.3799996562302 1818
18.3999996557832 1745
18.4199996553361 1759
18.4399996548891 1837
18.4599996544421 1781
18.479999653995 1769
18.499999653548 1906
18.519999653101 1872
18.5399996526539 1800
18.5599996522069 1866
18.5799996517599 1836
18.5999996513128 1904
18.6199996508658 1846
18.6399996504188 1887
18.6599996499717 1906
18.6799996495247 1856
18.6999996490777 1826
18.7199996486306 1922
18.7399996481836 1862
18.7599996477366 1872
18.7799996472895 1861
18.7999996468425 1968
18.8199996463954 1900
18.8399996459484 1958
18.8599996455014 1936
18.8799996450543 1937
18.8999996446073 1880
18.9199996441603 1991
18.9399996437132 1990
18.9599996432662 1924
18.9799996428192 1926
18.9999996423721 1924
19.0199996419251 1976
19.0399996414781 1918
19.059999641031 2026
19.079999640584 1903
19.099999640137 1842
19.1199996396899 1955
19.1399996392429 2020
19.1599996387959 1937
19.1799996383488 1990
19.1999996379018 2003
19.2199996374547 2049
19.2399996370077 1962
19.2599996365607 1969
19.2799996361136 1942
19.2999996356666 1913
19.3199996352196 1927
19.3399996347725 2043
19.3599996343255 2002
19.3799996338785 2017
19.3999996334314 1964
19.4199996329844 2057
19.4399996325374 1928
19.4599996320903 2038
19.4799996316433 2012
19.4999996311963 2031
19.5199996307492 1999
19.5399996303022 2025
19.5599996298552 2043
19.5799996294081 1999
19.5999996289611 2002
19.6199996285141 2005
19.639999628067 1979
19.65999962762 2043
19.6799996271729 2000
19.6999996267259 2037
19.7199996262789 2041
19.7399996258318 2010
19.7599996253848 2004
19.7799996249378 2011
19.7999996244907 2069
19.8199996240437 2074
19.8399996235967 2041
19.8599996231496 2021
19.8799996227026 2015
19.8999996222556 2051
19.9199996218085 2068
19.9399996213615 2038
19.9599996209145 2105
19.9799996204674 2079
19.9999996200204 2033
