3 1971
3.01999999955297 1862
3.03999999910593 1742
3.0599999986589 1635
3.07999999821186 1553
3.09999999776483 1487
3.11999999731779 1415
3.13999999687076 1381
3.15999999642372 1345
3.17999999597669 1319
3.19999999552965 1337
3.21999999508262 1332
3.23999999463558 1294
3.25999999418855 1318
3.27999999374151 1294
3.29999999329448 1278
3.31999999284744 1229
3.33999999240041 1219
3.35999999195337 1230
3.37999999150634 1225
3.3999999910593 1271
3.41999999061227 1176
3.43999999016523 1153
3.4599999897182 1139
3.47999998927116 1132
3.49999998882413 1151
3.51999998837709 1128
3.53999998793006 1168
3.55999998748302 1133
3.57999998703599 1085
3.59999998658895 1040
3.61999998614192 1100
3.63999998569489 1054
3.65999998524785 1045
3.67999998480082 1058
3.69999998435378 1060
3.71999998390675 1027
3.73999998345971 1039
3.75999998301268 1009
3.77999998256564 984
3.79999998211861 1029
3.81999998167157 1060
3.83999998122454 990
3.8599999807775 982
3.87999998033047 976
3.89999997988343 989
3.9199999794364 1019
3.93999997898936 1008
3.95999997854233 994
3.97999997809529 983
3.99999997764826 961
4.01999997720122 928
4.03999997675419 941
4.05999997630715 931
4.07999997586012 901
4.09999997541308 953
4.11999997496605 927
4.13999997451901 941
4.15999997407198 885
4.17999997362494 915
4.19999997317791 914
4.21999997273087 919
4.23999997228384 916
4.25999997183681 839
4.27999997138977 866
4.29999997094274 884
4.3199999704957 873
4.33999997004867 870
4.35999996960163 868
4.3799999691546 840
4.39999996870756 850
4.41999996826053 862
4.43999996781349 848
4.45999996736646 823
4.47999996691942 858
4.49999996647239 797
4.51999996602535 851
4.53999996557832 885
4.55999996513128 864
4.57999996468425 883
4.59999996423721 909
4.61999996379018 859
4.63999996334314 902
4.65999996289611 851
4.67999996244907 820
4.69999996200204 859
4.719999961555 908
4.73999996110797 933
4.75999996066093 844
4.7799999602139 887
4.79999995976686 887
4.81999995931983 856
4.83999995887279 943
4.85999995842576 869
4.87999995797873 894
4.89999995753169 864
4.91999995708466 914
4.93999995663762 872
4.95999995619059 857
4.97999995574355 931
4.99999995529652 909
5.01999995484948 953
5.03999995440245 958
5.05999995395541 1020
5.07999995350838 966
5.09999995306134 938
5.11999995261431 1019
5.13999995216727 1009
5.15999995172024 987
5.1799999512732 1019
5.19999995082617 1097
5.21999995037913 1061
5.2399999499321 1150
5.25999994948506 1077
5.27999994903803 1120
5.29999994859099 1151
5.31999994814396 1294
5.33999994769692 1248
5.35999994724989 1255
5.37999994680285 1293
5.39999994635582 1306
5.41999994590878 1340
5.43999994546175 1329
5.45999994501471 1369
5.47999994456768 1423
5.49999994412065 1436
5.51999994367361 1564
5.53999994322658 1500
5.55999994277954 1553
5.57999994233251 1608
5.59999994188547 1579
5.61999994143844 1620
5.6399999409914 1677
5.65999994054437 1675
5.67999994009733 1611
5.6999999396503 1711
5.71999993920326 1712
5.73999993875623 1768
5.75999993830919 1783
5.77999993786216 1809
5.79999993741512 1777
5.81999993696809 1754
5.83999993652105 1811
5.85999993607402 1720
5.87999993562698 1647
5.89999993517995 1649
5.91999993473291 1702
5.93999993428588 1572
5.95999993383884 1584
5.97999993339181 1468
5.99999993294477 1414
6.01999993249774 1441
6.0399999320507 1362
6.05999993160367 1375
6.07999993115663 1346
6.0999999307096 1215
6.11999993026257 1141
6.13999992981553 1180
6.1599999293685 1109
6.17999992892146 1103
6.19999992847443 1144
6.21999992802739 1044
6.23999992758036 1019
6.25999992713332 1004
6.27999992668629 1040
6.29999992623925 998
6.31999992579222 986
6.33999992534518 1002
6.35999992489815 934
6.37999992445111 946
6.39999992400408 993
6.41999992355704 961
6.43999992311001 899
6.45999992266297 945
6.47999992221594 934
6.4999999217689 930
6.51999992132187 941
6.53999992087483 940
6.5599999204278 886
6.57999991998076 878
6.59999991953373 920
6.61999991908669 911
6.63999991863966 889
6.65999991819262 934
6.67999991774559 898
6.69999991729855 911
6.71999991685152 889
6.73999991640449 874
6.75999991595745 836
6.77999991551042 860
6.79999991506338 855
6.81999991461635 848
6.83999991416931 801
6.85999991372228 783
6.87999991327524 722
6.89999991282821 788
6.91999991238117 808
6.93999991193414 730
6.9599999114871 717
6.97999991104007 741
6.99999991059303 753
7.019999910146 744
7.03999990969896 730
7.05999990925193 685
7.07999990880489 752
7.09999990835786 707
7.11999990791082 713
7.13999990746379 672
7.15999990701675 677
7.17999990656972 713
7.19999990612268 705
7.21999990567565 667
7.23999990522861 674
7.25999990478158 694
7.27999990433454 704
7.29999990388751 706
7.31999990344047 684
7.33999990299344 656
7.35999990254641 702
7.37999990209937 704
7.39999990165234 725
7.4199999012053 684
7.43999990075827 642
7.45999990031123 652
7.4799998998642 702
7.49999989941716 663
7.51999989897013 684
7.53999989852309 660
7.55999989807606 663
7.57999989762902 671
7.59999989718199 668
7.61999989673495 661
7.63999989628792 716
7.65999989584088 703
7.67999989539385 679
7.69999989494681 671
7.71999989449978 689
7.73999989405274 661
7.75999989360571 659
7.77999989315867 642
7.79999989271164 609
7.8199998922646 620
7.83999989181757 647
7.85999989137053 682
7.8799998909235 687
7.89999989047646 630
7.91999989002943 663
7.9399998895824 690
7.95999988913536 688
7.97999988868833 679
7.99999988824129 670
8.01999988779426 620
8.03999988734722 628
8.05999988690019 632
8.07999988645315 650
8.09999988600612 632
8.11999988555908 621
8.13999988511205 654
8.15999988466501 620
8.17999988421798 597
8.19999988377094 645
8.21999988332391 665
8.23999988287687 633
8.25999988242984 651
8.2799998819828 626
8.29999988153577 659
8.31999988108873 653
8.3399998806417 625
8.35999988019466 669
8.37999987974763 643
8.39999987930059 682
8.41999987885356 641
8.43999987840652 661
8.45999987795949 646
8.47999987751245 661
8.49999987706542 646
8.51999987661839 653
8.53999987617135 632
8.55999987572432 638
8.57999987527728 664
8.59999987483025 648
8.61999987438321 678
8.63999987393618 669
8.65999987348914 661
8.67999987304211 638
8.69999987259507 705
8.71999987214804 633
8.739999871701 665
8.75999987125397 645
8.77999987080693 656
8.7999998703599 674
8.81999986991286 680
8.83999986946583 648
8.85999986901879 646
8.87999986857176 678
8.89999986812472 709
8.91999986767769 667
8.93999986723065 654
8.95999986678362 637
8.97999986633658 690
8.99999986588955 704
9.01999986544251 692
9.03999986499548 707
9.05999986454844 683
9.07999986410141 717
9.09999986365438 709
9.11999986320734 746
9.13999986276031 742
9.15999986231327 760
9.17999986186624 781
9.1999998614192 768
9.21999986097217 747
9.23999986052513 820
9.2599998600781 790
9.27999985963106 820
9.29999985918403 852
9.31999985873699 837
9.33999985828996 826
9.35999985784292 848
9.37999985739589 884
9.39999985694885 887
9.41999985650182 870
9.43999985605478 909
9.45999985560775 961
9.47999985516071 880
9.49999985471368 919
9.51999985426664 841
9.53999985381961 868
9.55999985337257 859
9.57999985292554 828
9.5999998524785 840
9.61999985203147 790
9.63999985158443 780
9.6599998511374 770
9.67999985069037 757
9.69999985024333 810
9.7199998497963 760
9.73999984934926 735
9.75999984890223 746
9.77999984845519 714
9.79999984800816 694
9.81999984756112 702
9.83999984711409 666
9.85999984666705 737
9.87999984622002 723
9.89999984577298 710
9.91999984532595 683
9.93999984487891 641
9.95999984443188 666
9.97999984398484 653
9.99999984353781 676
10.0199998430908 711
10.0399998426437 668
10.0599998421967 702
10.0799998417497 742
10.0999998413026 700
10.1199998408556 696
10.1399998404086 666
10.1599998399615 662
10.1799998395145 700
10.1999998390675 668
10.2199998386204 727
10.2399998381734 705
10.2599998377264 783
10.2799998372793 719
10.2999998368323 701
10.3199998363853 757
10.3399998359382 695
10.3599998354912 702
10.3799998350441 709
10.3999998345971 737
10.4199998341501 720
10.439999833703 694
10.459999833256 710
10.479999832809 689
10.4999998323619 733
10.5199998319149 693
10.5399998314679 671
10.5599998310208 685
10.5799998305738 737
10.5999998301268 719
10.6199998296797 726
10.6399998292327 723
10.6599998287857 762
10.6799998283386 726
10.6999998278916 724
10.7199998274446 742
10.7399998269975 727
10.7599998265505 725
10.7799998261034 752
10.7999998256564 757
10.8199998252094 782
10.8399998247623 834
10.8599998243153 811
10.8799998238683 785
10.8999998234212 809
10.9199998229742 794
10.9399998225272 856
10.9599998220801 895
10.9799998216331 804
10.9999998211861 781
11.019999820739 799
11.039999820292 850
11.059999819845 823
11.0799998193979 873
11.0999998189509 797
11.1199998185039 873
11.1399998180568 815
11.1599998176098 838
11.1799998171628 800
11.1999998167157 814
11.2199998162687 752
11.2399998158216 770
11.2599998153746 752
11.2799998149276 754
11.2999998144805 751
11.3199998140335 769
11.3399998135865 758
11.3599998131394 744
11.3799998126924 760
11.3999998122454 755
11.4199998117983 728
11.4399998113513 719
11.4599998109043 743
11.4799998104572 788
11.4999998100102 723
11.5199998095632 745
11.5399998091161 694
11.5599998086691 734
11.5799998082221 744
11.599999807775 661
11.619999807328 734
11.639999806881 722
11.6599998064339 688
11.6799998059869 705
11.6999998055398 726
11.7199998050928 729
11.7399998046458 652
11.7599998041987 702
11.7799998037517 699
11.7999998033047 661
11.8199998028576 695
11.8399998024106 710
11.8599998019636 682
11.8799998015165 670
11.8999998010695 645
11.9199998006225 683
11.9399998001754 685
11.9599997997284 653
11.9799997992814 675
11.9999997988343 609
12.0199997983873 707
12.0399997979403 667
12.0599997974932 668
12.0799997970462 681
12.0999997965992 708
12.1199997961521 687
12.1399997957051 652
12.159999795258 696
12.179999794811 707
12.199999794364 651
12.2199997939169 633
12.2399997934699 678
12.2599997930229 651
12.2799997925758 671
12.2999997921288 674
12.3199997916818 645
12.3399997912347 649
12.3599997907877 682
12.3799997903407 646
12.3999997898936 639
12.4199997894466 672
12.4399997889996 629
12.4599997885525 608
12.4799997881055 701
12.4999997876585 674
12.5199997872114 624
12.5399997867644 654
12.5599997863173 645
12.5799997858703 617
12.5999997854233 665
12.6199997849762 678
12.6399997845292 647
12.6599997840822 668
12.6799997836351 663
12.6999997831881 672
12.7199997827411 652
12.739999782294 661
12.759999781847 675
12.7799997814 643
12.7999997809529 695
12.8199997805059 672
12.8399997800589 671
12.8599997796118 665
12.8799997791648 709
12.8999997787178 656
12.9199997782707 735
12.9399997778237 699
12.9599997773767 656
12.9799997769296 695
12.9999997764826 672
13.0199997760355 735
13.0399997755885 714
13.0599997751415 639
13.0799997746944 681
13.0999997742474 665
13.1199997738004 691
13.1399997733533 661
13.1599997729063 695
13.1799997724593 699
13.1999997720122 691
13.2199997715652 697
13.2399997711182 710
13.2599997706711 710
13.2799997702241 676
13.2999997697771 658
13.31999976933 708
13.339999768883 673
13.359999768436 738
13.3799997679889 725
13.3999997675419 750
13.4199997670949 708
13.4399997666478 672
13.4599997662008 718
13.4799997657537 740
13.4999997653067 746
13.5199997648597 744
13.5399997644126 703
13.5599997639656 707
13.5799997635186 726
13.5999997630715 691
13.6199997626245 708
13.6399997621775 694
13.6599997617304 719
13.6799997612834 730
13.6999997608364 750
13.7199997603893 721
13.7399997599423 761
13.7599997594953 728
13.7799997590482 717
13.7999997586012 760
13.8199997581542 746
13.8399997577071 716
13.8599997572601 741
13.879999756813 721
13.899999756366 747
13.919999755919 741
13.9399997554719 726
13.9599997550249 765
13.9799997545779 704
13.9999997541308 694
14.0199997536838 723
14.0399997532368 752
14.0599997527897 759
14.0799997523427 760
14.0999997518957 744
14.1199997514486 778
14.1399997510016 774
14.1599997505546 741
14.1799997501075 732
14.1999997496605 752
14.2199997492135 862
14.2399997487664 780
14.2599997483194 805
14.2799997478724 775
14.2999997474253 797
14.3199997469783 772
14.3399997465312 846
14.3599997460842 790
14.3799997456372 787
14.3999997451901 809
14.4199997447431 815
14.4399997442961 835
14.459999743849 806
14.479999743402 836
14.499999742955 822
14.5199997425079 824
14.5399997420609 834
14.5599997416139 849
14.5799997411668 777
14.5999997407198 832
14.6199997402728 853
14.6399997398257 827
14.6599997393787 857
14.6799997389317 876
14.6999997384846 879
14.7199997380376 828
14.7399997375906 807
14.7599997371435 833
14.7799997366965 852
14.7999997362494 802
14.8199997358024 859
14.8399997353554 786
14.8599997349083 829
14.8799997344613 820
14.8999997340143 825
14.9199997335672 832
14.9399997331202 845
14.9599997326732 835
14.9799997322261 838
14.9999997317791 824
15.0199997313321 853
15.039999730885 815
15.059999730438 863
15.079999729991 820
15.0999997295439 836
15.1199997290969 869
15.1399997286499 890
15.1599997282028 839
15.1799997277558 861
15.1999997273088 815
15.2199997268617 894
15.2399997264147 833
15.2599997259676 830
15.2799997255206 887
15.2999997250736 838
15.3199997246265 893
15.3399997241795 877
15.3599997237325 839
15.3799997232854 855
15.3999997228384 876
15.4199997223914 917
15.4399997219443 924
15.4599997214973 853
15.4799997210503 895
15.4999997206032 911
15.5199997201562 886
15.5399997197092 866
15.5599997192621 877
15.5799997188151 920
15.5999997183681 900
15.619999717921 924
15.639999717474 892
15.659999717027 906
15.6799997165799 941
15.6999997161329 941
15.7199997156858 886
15.7399997152388 876
15.7599997147918 968
15.7799997143447 920
15.7999997138977 944
15.8199997134507 921
15.8399997130036 949
15.8599997125566 925
15.8799997121096 932
15.8999997116625 945
15.9199997112155 955
15.9399997107685 956
15.9599997103214 961
15.9799997098744 989
15.9999997094274 954
16.0199997089803 959
16.0399997085333 965
16.0599997080863 949
16.0799997076392 999
16.0999997071922 958
16.1199997067451 1016
16.1399997062981 968
16.1599997058511 958
16.179999705404 978
16.199999704957 1045
16.21999970451 1009
16.2399997040629 1000
16.2599997036159 1029
16.2799997031689 989
16.2999997027218 972
16.3199997022748 989
16.3399997018278 1060
16.3599997013807 1014
16.3799997009337 1056
16.3999997004867 994
16.4199997000396 1035
16.4399996995926 1092
16.4599996991456 997
16.4799996986985 1033
16.4999996982515 1091
16.5199996978045 1072
16.5399996973574 1009
16.5599996969104 1038
16.5799996964633 1060
16.5999996960163 1097
16.6199996955693 1066
16.6399996951222 1005
16.6599996946752 1105
16.6799996942282 1123
16.6999996937811 1097
16.7199996933341 1112
16.7399996928871 1079
16.75999969244 1090
16.779999691993 1104
16.799999691546 1130
16.8199996910989 1117
16.8399996906519 1147
16.8599996902049 1127
16.8799996897578 1132
16.8999996893108 1125
16.9199996888638 1135
16.9399996884167 1080
16.9599996879697 1117
16.9799996875226 1199
16.9999996870756 1089
17.0199996866286 1127
17.0399996861815 1147
17.0599996857345 1127
17.0799996852875 1230
17.0999996848404 1101
17.1199996843934 1113
17.1399996839464 1165
17.1599996834993 1173
17.1799996830523 1205
17.1999996826053 1178
17.2199996821582 1143
17.2399996817112 1174
17.2599996812642 1188
17.2799996808171 1182
17.2999996803701 1214
17.3199996799231 1205
17.339999679476 1196
17.359999679029 1241
17.379999678582 1237
17.3999996781349 1191
17.4199996776879 1233
17.4399996772408 1208
17.4599996767938 1292
17.4799996763468 1249
17.4999996758997 1267
17.5199996754527 1301
17.5399996750057 1216
17.5599996745586 1287
17.5799996741116 1245
17.5999996736646 1366
17.6199996732175 1308
17.6399996727705 1258
17.6599996723235 1295
17.6799996718764 1302
17.6999996714294 1258
17.7199996709824 1300
17.7399996705353 1265
17.7599996700883 1343
17.7799996696413 1254
17.7999996691942 1226
17.8199996687472 1308
17.8399996683002 1199
17.8599996678531 1328
17.8799996674061 1317
17.899999666959 1295
17.919999666512 1338
17.939999666065 1356
17.9599996656179 1324
17.9799996651709 1315
17.9999996647239 1367
18.0199996642768 1340
18.0399996638298 1284
18.0599996633828 1377
18.0799996629357 1349
18.0999996624887 1354
18.1199996620417 1310
18.1399996615946 1313
18.1599996611476 1380
18.1799996607006 1343
18.1999996602535 1427
18.2199996598065 1405
18.2399996593595 1399
18.2599996589124 1336
18.2799996584654 1396
18.2999996580184 1418
18.3199996575713 1357
18.3399996571243 1433
18.3599996566772 1376
18.3799996562302 1395
18.3999996557832 1401
18.4199996553361 1467
18.4399996548891 1504
18.4599996544421 1470
18.479999653995 1444
18.499999653548 1470
18.519999653101 1401
18.5399996526539 1432
18.5599996522069 1393
18.5799996517599 1427
18.5999996513128 1482
18.6199996508658 1498
18.6399996504188 1507
18.6599996499717 1469
18.6799996495247 1511
18.6999996490777 1484
18.7199996486306 1492
18.7399996481836 1555
18.7599996477366 1476
18.7799996472895 1505
18.7999996468425 1503
18.8199996463954 1547
18.8399996459484 1477
18.8599996455014 1551
18.8799996450543 1492
18.8999996446073 1532
18.9199996441603 1539
18.9399996437132 1514
18.9599996432662 1578
18.9799996428192 1617
18.9999996423721 1588
19.0199996419251 1584
19.0399996414781 1593
19.059999641031 1548
19.079999640584 1555
19.099999640137 1565
19.1199996396899 1543
19.1399996392429 1604
19.1599996387959 1606
19.1799996383488 1629
19.1999996379018 1619
19.2199996374547 1644
19.2399996370077 1684
19.2599996365607 1602
19.2799996361136 1669
19.2999996356666 1559
19.3199996352196 1649
19.3399996347725 1644
19.3599996343255 1692
19.3799996338785 1620
19.3999996334314 1721
19.4199996329844 1694
19.4399996325374 1729
19.4599996320903 1646
19.4799996316433 1650
19.4999996311963 1722
19.5199996307492 1661
19.5399996303022 1742
19.5599996298552 1762
19.5799996294081 1745
19.5999996289611 1706
19.6199996285141 1725
19.639999628067 1776
19.65999962762 1770
19.6799996271729 1786
19.6999996267259 1738
19.7199996262789 1756
19.7399996258318 1842
19.7599996253848 1858
19.7799996249378 1807
19.7999996244907 1810
19.8199996240437 1861
19.8399996235967 1783
19.8599996231496 1755
19.8799996227026 1775
19.8999996222556 1795
19.9199996218085 1793
19.9399996213615 1818
19.9599996209145 1779
19.9799996204674 1791
19.9999996200204 1765
