3 2283
3.01999999955297 2226
3.03999999910593 2043
3.0599999986589 1911
3.07999999821186 1860
3.09999999776483 1833
3.11999999731779 1810
3.13999999687076 1935
3.15999999642372 1995
3.17999999597669 1973
3.19999999552965 1994
3.21999999508262 2040
3.23999999463558 1926
3.25999999418855 1907
3.27999999374151 1931
3.29999999329448 1802
3.31999999284744 1795
3.33999999240041 1839
3.35999999195337 1740
3.37999999150634 1598
3.3999999910593 1622
3.41999999061227 1622
3.43999999016523 1606
3.4599999897182 1639
3.47999998927116 1594
3.49999998882413 1550
3.51999998837709 1520
3.53999998793006 1526
3.55999998748302 1467
3.57999998703599 1437
3.59999998658895 1457
3.61999998614192 1476
3.63999998569489 1408
3.65999998524785 1465
3.67999998480082 1394
3.69999998435378 1294
3.71999998390675 1294
3.73999998345971 1351
3.75999998301268 1296
3.77999998256564 1353
3.79999998211861 1356
3.81999998167157 1382
3.83999998122454 1298
3.8599999807775 1252
3.87999998033047 1265
3.89999997988343 1266
3.9199999794364 1157
3.93999997898936 1223
3.95999997854233 1202
3.97999997809529 1159
3.99999997764826 1210
4.01999997720122 1187
4.03999997675419 1264
4.05999997630715 1142
4.07999997586012 1208
4.09999997541308 1193
4.11999997496605 1151
4.13999997451901 1128
4.15999997407198 1101
4.17999997362494 1171
4.19999997317791 1107
4.21999997273087 1141
4.23999997228384 1140
4.25999997183681 1167
4.27999997138977 1100
4.29999997094274 1088
4.3199999704957 1026
4.33999997004867 1042
4.35999996960163 1077
4.3799999691546 1086
4.39999996870756 1071
4.41999996826053 994
4.43999996781349 1023
4.45999996736646 1028
4.47999996691942 1053
4.49999996647239 1027
4.51999996602535 992
4.53999996557832 957
4.55999996513128 1061
4.57999996468425 982
4.59999996423721 1000
4.61999996379018 981
4.63999996334314 1033
4.65999996289611 960
4.67999996244907 966
4.69999996200204 1018
4.719999961555 941
4.73999996110797 986
4.75999996066093 937
4.7799999602139 889
4.79999995976686 943
4.81999995931983 947
4.83999995887279 954
4.85999995842576 953
4.87999995797873 903
4.89999995753169 976
4.91999995708466 922
4.93999995663762 937
4.95999995619059 934
4.97999995574355 958
4.99999995529652 909
5.01999995484948 896
5.03999995440245 932
5.05999995395541 901
5.07999995350838 910
5.09999995306134 854
5.11999995261431 947
5.13999995216727 900
5.15999995172024 902
5.1799999512732 847
5.19999995082617 863
5.21999995037913 890
5.2399999499321 857
5.25999994948506 912
5.27999994903803 867
5.29999994859099 828
5.31999994814396 854
5.33999994769692 884
5.35999994724989 907
5.37999994680285 848
5.39999994635582 888
5.41999994590878 816
5.43999994546175 880
5.45999994501471 889
5.47999994456768 903
5.49999994412065 872
5.51999994367361 840
5.53999994322658 851
5.55999994277954 837
5.57999994233251 865
5.59999994188547 860
5.61999994143844 864
5.6399999409914 844
5.65999994054437 829
5.67999994009733 873
5.6999999396503 843
5.71999993920326 879
5.73999993875623 817
5.75999993830919 906
5.77999993786216 850
5.79999993741512 846
5.81999993696809 875
5.83999993652105 860
5.85999993607402 825
5.87999993562698 862
5.89999993517995 839
5.91999993473291 884
5.93999993428588 793
5.95999993383884 857
5.97999993339181 836
5.99999993294477 848
6.01999993249774 820
6.0399999320507 886
6.05999993160367 864
6.07999993115663 820
6.0999999307096 839
6.11999993026257 822
6.13999992981553 789
6.1599999293685 851
6.17999992892146 815
6.19999992847443 780
6.21999992802739 860
6.23999992758036 860
6.25999992713332 870
6.27999992668629 843
6.29999992623925 801
6.31999992579222 804
6.33999992534518 870
6.35999992489815 819
6.37999992445111 884
6.39999992400408 820
6.41999992355704 831
6.43999992311001 828
6.45999992266297 855
6.47999992221594 866
6.4999999217689 810
6.51999992132187 822
6.53999992087483 798
6.5599999204278 837
6.57999991998076 848
6.59999991953373 851
6.61999991908669 804
6.63999991863966 835
6.65999991819262 812
6.67999991774559 803
6.69999991729855 844
6.71999991685152 787
6.73999991640449 768
6.75999991595745 869
6.77999991551042 835
6.79999991506338 831
6.81999991461635 837
6.83999991416931 849
6.85999991372228 835
6.87999991327524 786
6.89999991282821 817
6.91999991238117 866
6.93999991193414 797
6.9599999114871 811
6.97999991104007 878
6.99999991059303 825
7.019999910146 801
7.03999990969896 815
7.05999990925193 790
7.07999990880489 852
7.09999990835786 800
7.11999990791082 823
7.13999990746379 794
7.15999990701675 826
7.17999990656972 853
7.19999990612268 799
7.21999990567565 795
7.23999990522861 770
7.25999990478158 805
7.27999990433454 838
7.29999990388751 803
7.31999990344047 801
7.33999990299344 809
7.35999990254641 816
7.37999990209937 793
7.39999990165234 793
7.4199999012053 825
7.43999990075827 844
7.45999990031123 848
7.4799998998642 808
7.49999989941716 862
7.51999989897013 811
7.53999989852309 811
7.55999989807606 836
7.57999989762902 861
7.59999989718199 795
7.61999989673495 793
7.63999989628792 824
7.65999989584088 850
7.67999989539385 826
7.69999989494681 787
7.71999989449978 815
7.73999989405274 814
7.75999989360571 835
7.77999989315867 842
7.79999989271164 845
7.8199998922646 886
7.83999989181757 815
7.85999989137053 833
7.8799998909235 809
7.89999989047646 786
7.91999989002943 827
7.9399998895824 783
7.95999988913536 809
7.97999988868833 837
7.99999988824129 792
8.01999988779426 830
8.03999988734722 845
8.05999988690019 808
8.07999988645315 726
8.09999988600612 781
8.11999988555908 855
8.13999988511205 819
8.15999988466501 810
8.17999988421798 838
8.19999988377094 799
8.21999988332391 827
8.23999988287687 846
8.25999988242984 836
8.2799998819828 858
8.29999988153577 791
8.31999988108873 794
8.3399998806417 772
8.35999988019466 812
8.37999987974763 809
8.39999987930059 793
8.41999987885356 816
8.43999987840652 848
8.45999987795949 809
8.47999987751245 791
8.49999987706542 821
8.51999987661839 771
8.53999987617135 808
8.55999987572432 801
8.57999987527728 749
8.59999987483025 804
8.61999987438321 794
8.63999987393618 775
8.65999987348914 794
8.67999987304211 813
8.69999987259507 811
8.71999987214804 819
8.739999871701 795
8.75999987125397 796
8.77999987080693 815
8.7999998703599 812
8.81999986991286 824
8.83999986946583 803
8.85999986901879 800
8.87999986857176 781
8.89999986812472 787
8.91999986767769 758
8.93999986723065 797
8.95999986678362 791
8.97999986633658 726
8.99999986588955 766
9.01999986544251 749
9.03999986499548 806
9.05999986454844 805
9.07999986410141 744
9.09999986365438 809
9.11999986320734 783
9.13999986276031 792
9.15999986231327 765
9.17999986186624 756
9.1999998614192 824
9.21999986097217 798
9.23999986052513 798
9.2599998600781 765
9.27999985963106 781
9.29999985918403 790
9.31999985873699 797
9.33999985828996 796
9.35999985784292 801
9.37999985739589 792
9.39999985694885 728
9.41999985650182 804
9.43999985605478 808
9.45999985560775 775
9.47999985516071 763
9.49999985471368 745
9.51999985426664 771
9.53999985381961 753
9.55999985337257 767
9.57999985292554 754
9.5999998524785 777
9.61999985203147 773
9.63999985158443 775
9.6599998511374 830
9.67999985069037 789
9.69999985024333 764
9.7199998497963 729
9.73999984934926 761
9.75999984890223 759
9.77999984845519 786
9.79999984800816 765
9.81999984756112 765
9.83999984711409 798
9.85999984666705 755
9.87999984622002 772
9.89999984577298 738
9.91999984532595 768
9.93999984487891 770
9.95999984443188 754
9.97999984398484 767
9.99999984353781 814
10.0199998430908 755
10.0399998426437 813
10.0599998421967 763
10.0799998417497 763
10.0999998413026 768
10.1199998408556 744
10.1399998404086 781
10.1599998399615 754
10.1799998395145 750
10.1999998390675 827
10.2199998386204 789
10.2399998381734 754
10.2599998377264 756
10.2799998372793 786
10.2999998368323 781
10.3199998363853 779
10.3399998359382 779
10.3599998354912 798
10.3799998350441 773
10.3999998345971 732
10.4199998341501 759
10.439999833703 793
10.459999833256 738
10.479999832809 751
10.4999998323619 780
10.5199998319149 768
10.5399998314679 774
10.5599998310208 804
10.5799998305738 797
10.5999998301268 757
10.6199998296797 802
10.6399998292327 751
10.6599998287857 763
10.6799998283386 782
10.6999998278916 768
10.7199998274446 752
10.7399998269975 787
10.7599998265505 812
10.7799998261034 764
10.7999998256564 723
10.8199998252094 747
10.8399998247623 744
10.8599998243153 790
10.8799998238683 737
10.8999998234212 784
10.9199998229742 733
10.9399998225272 790
10.9599998220801 752
10.9799998216331 754
10.9999998211861 713
11.019999820739 785
11.039999820292 778
11.059999819845 787
11.0799998193979 791
11.0999998189509 762
11.1199998185039 765
11.1399998180568 830
11.1599998176098 773
11.1799998171628 757
11.1999998167157 751
11.2199998162687 810
11.2399998158216 824
11.2599998153746 774
11.2799998149276 801
11.2999998144805 765
11.3199998140335 764
11.3399998135865 716
11.3599998131394 725
11.3799998126924 805
11.3999998122454 793
11.4199998117983 788
11.4399998113513 753
11.4599998109043 758
11.4799998104572 800
11.4999998100102 779
11.5199998095632 795
11.5399998091161 733
11.5599998086691 792
11.5799998082221 809
11.599999807775 746
11.619999807328 728
11.639999806881 821
11.6599998064339 782
11.6799998059869 754
11.6999998055398 783
11.7199998050928 799
11.7399998046458 793
11.7599998041987 741
11.7799998037517 770
11.7999998033047 742
11.8199998028576 778
11.8399998024106 750
11.8599998019636 779
11.8799998015165 776
11.8999998010695 774
11.9199998006225 776
11.9399998001754 762
11.9599997997284 760
11.9799997992814 779
11.9999997988343 820
12.0199997983873 809
12.0399997979403 802
12.0599997974932 803
12.0799997970462 701
12.0999997965992 748
12.1199997961521 779
12.1399997957051 751
12.159999795258 822
12.179999794811 797
12.199999794364 771
12.2199997939169 779
12.2399997934699 820
12.2599997930229 717
12.2799997925758 792
12.2999997921288 805
12.3199997916818 803
12.3399997912347 749
12.3599997907877 776
12.3799997903407 769
12.3999997898936 829
12.4199997894466 762
12.4399997889996 783
12.4599997885525 772
12.4799997881055 801
12.4999997876585 845
12.5199997872114 738
12.5399997867644 736
12.5599997863173 827
12.5799997858703 773
12.5999997854233 734
12.6199997849762 744
12.6399997845292 794
12.6599997840822 798
12.6799997836351 772
12.6999997831881 753
12.7199997827411 799
12.739999782294 805
12.759999781847 801
12.7799997814 811
12.7999997809529 803
12.8199997805059 775
12.8399997800589 776
12.8599997796118 746
12.8799997791648 806
12.8999997787178 792
12.9199997782707 804
12.9399997778237 809
12.9599997773767 817
12.9799997769296 860
12.9999997764826 822
13.0199997760355 801
13.0399997755885 809
13.0599997751415 815
13.0799997746944 799
13.0999997742474 847
13.1199997738004 830
13.1399997733533 810
13.1599997729063 787
13.1799997724593 803
13.1999997720122 814
13.2199997715652 811
13.2399997711182 827
13.2599997706711 855
13.2799997702241 834
13.2999997697771 820
13.31999976933 854
13.339999768883 795
13.359999768436 818
13.3799997679889 842
13.3999997675419 766
13.4199997670949 796
13.4399997666478 783
13.4599997662008 773
13.4799997657537 832
13.4999997653067 804
13.5199997648597 815
13.5399997644126 766
13.5599997639656 786
13.5799997635186 814
13.5999997630715 836
13.6199997626245 765
13.6399997621775 793
13.6599997617304 849
13.6799997612834 781
13.6999997608364 874
13.7199997603893 829
13.7399997599423 810
13.7599997594953 867
13.7799997590482 848
13.7999997586012 865
13.8199997581542 864
13.8399997577071 813
13.8599997572601 836
13.879999756813 853
13.899999756366 831
13.919999755919 835
13.9399997554719 840
13.9599997550249 807
13.9799997545779 825
13.9999997541308 818
14.0199997536838 815
14.0399997532368 802
14.0599997527897 789
14.0799997523427 834
14.0999997518957 823
14.1199997514486 863
14.1399997510016 807
14.1599997505546 816
14.1799997501075 846
14.1999997496605 853
14.2199997492135 827
14.2399997487664 871
14.2599997483194 781
14.2799997478724 799
14.2999997474253 835
14.3199997469783 850
14.3399997465312 862
14.3599997460842 860
14.3799997456372 849
14.3999997451901 907
14.4199997447431 846
14.4399997442961 831
14.459999743849 818
14.479999743402 862
14.499999742955 849
14.5199997425079 916
14.5399997420609 857
14.5599997416139 860
14.5799997411668 852
14.5999997407198 827
14.6199997402728 852
14.6399997398257 855
14.6599997393787 858
14.6799997389317 835
14.6999997384846 896
14.7199997380376 855
14.7399997375906 870
14.7599997371435 826
14.7799997366965 893
14.7999997362494 843
14.8199997358024 826
14.8399997353554 859
14.8599997349083 906
14.8799997344613 886
14.8999997340143 911
14.9199997335672 946
14.9399997331202 910
14.9599997326732 934
14.9799997322261 844
14.9999997317791 875
15.0199997313321 856
15.039999730885 844
15.059999730438 904
15.079999729991 937
15.0999997295439 933
15.1199997290969 896
15.1399997286499 859
15.1599997282028 845
15.1799997277558 922
15.1999997273088 883
15.2199997268617 885
15.2399997264147 911
15.2599997259676 908
15.2799997255206 909
15.2999997250736 913
15.3199997246265 887
15.3399997241795 932
15.3599997237325 890
15.3799997232854 952
15.3999997228384 900
15.4199997223914 899
15.4399997219443 961
15.4599997214973 964
15.4799997210503 942
15.4999997206032 921
15.5199997201562 895
15.5399997197092 959
15.5599997192621 942
15.5799997188151 884
15.5999997183681 937
15.619999717921 1000
15.639999717474 883
15.659999717027 919
15.6799997165799 939
15.6999997161329 926
15.7199997156858 980
15.7399997152388 950
15.7599997147918 901
15.7799997143447 909
15.7999997138977 952
15.8199997134507 949
15.8399997130036 993
15.8599997125566 972
15.8799997121096 962
15.8999997116625 948
15.9199997112155 972
15.9399997107685 947
15.9599997103214 957
15.9799997098744 1008
15.9999997094274 992
16.0199997089803 983
16.0399997085333 962
16.0599997080863 940
16.0799997076392 991
16.0999997071922 953
16.1199997067451 961
16.1399997062981 946
16.1599997058511 998
16.179999705404 1087
16.199999704957 1026
16.21999970451 1005
16.2399997040629 988
16.2599997036159 1045
16.2799997031689 972
16.2999997027218 941
16.3199997022748 1000
16.3399997018278 1022
16.3599997013807 1029
16.3799997009337 1007
16.3999997004867 1031
16.4199997000396 1021
16.4399996995926 1081
16.4599996991456 1026
16.4799996986985 1069
16.4999996982515 1010
16.5199996978045 1094
16.5399996973574 1066
16.5599996969104 1069
16.5799996964633 1042
16.5999996960163 1103
16.6199996955693 1061
16.6399996951222 1077
16.6599996946752 1066
16.6799996942282 1104
16.6999996937811 1040
16.7199996933341 1120
16.7399996928871 1157
16.75999969244 1165
16.779999691993 1158
16.799999691546 1262
16.8199996910989 1201
16.8399996906519 1316
16.8599996902049 1376
16.8799996897578 1387
16.8999996893108 1527
16.9199996888638 1625
16.9399996884167 1737
16.9599996879697 1902
16.9799996875226 2144
16.9999996870756 2195
17.0199996866286 2389
17.0399996861815 2426
17.0599996857345 2267
17.0799996852875 2088
17.0999996848404 1896
17.1199996843934 1732
17.1399996839464 1588
17.1599996834993 1419
17.1799996830523 1324
17.1999996826053 1332
17.2199996821582 1256
17.2399996817112 1268
17.2599996812642 1236
17.2799996808171 1201
17.2999996803701 1175
17.3199996799231 1156
17.339999679476 1202
17.359999679029 1197
17.379999678582 1167
17.3999996781349 1190
17.4199996776879 1172
17.4399996772408 1195
17.4599996767938 1163
17.4799996763468 1190
17.4999996758997 1143
17.5199996754527 1152
17.5399996750057 1205
17.5599996745586 1172
17.5799996741116 1200
17.5999996736646 1217
17.6199996732175 1134
17.6399996727705 1185
17.6599996723235 1212
17.6799996718764 1218
17.6999996714294 1166
17.7199996709824 1215
17.7399996705353 1227
17.7599996700883 1257
17.7799996696413 1204
17.7999996691942 1251
17.8199996687472 1221
17.8399996683002 1202
17.8599996678531 1261
17.8799996674061 1246
17.899999666959 1261
17.919999666512 1194
17.939999666065 1246
17.9599996656179 1211
17.9799996651709 1252
17.9999996647239 1211
18.0199996642768 1158
18.0399996638298 1263
18.0599996633828 1204
18.0799996629357 1227
18.0999996624887 1244
18.1199996620417 1304
18.1399996615946 1197
18.1599996611476 1264
18.1799996607006 1262
18.1999996602535 1278
18.2199996598065 1231
18.2399996593595 1323
18.2599996589124 1282
18.2799996584654 1249
18.2999996580184 1255
18.3199996575713 1217
18.3399996571243 1223
18.3599996566772 1308
18.3799996562302 1254
18.3999996557832 1295
18.4199996553361 1339
18.4399996548891 1298
18.4599996544421 1321
18.479999653995 1313
18.499999653548 1335
18.519999653101 1280
18.5399996526539 1304
18.5599996522069 1326
18.5799996517599 1314
18.5999996513128 1329
18.6199996508658 1372
18.6399996504188 1304
18.6599996499717 1303
18.6799996495247 1370
18.6999996490777 1332
18.7199996486306 1359
18.7399996481836 1368
18.7599996477366 1297
18.7799996472895 1379
18.7999996468425 1435
18.8199996463954 1334
18.8399996459484 1345
18.8599996455014 1355
18.8799996450543 1394
18.8999996446073 1342
18.9199996441603 1318
18.9399996437132 1349
18.9599996432662 1335
18.9799996428192 1381
18.9999996423721 1390
19.0199996419251 1348
19.0399996414781 1397
19.059999641031 1401
19.079999640584 1468
19.099999640137 1393
19.1199996396899 1443
19.1399996392429 1381
19.1599996387959 1404
19.1799996383488 1376
19.1999996379018 1471
19.2199996374547 1388
19.2399996370077 1337
19.2599996365607 1396
19.2799996361136 1519
19.2999996356666 1456
19.3199996352196 1484
19.3399996347725 1463
19.3599996343255 1469
19.3799996338785 1457
19.3999996334314 1445
19.4199996329844 1465
19.4399996325374 1474
19.4599996320903 1480
19.4799996316433 1443
19.4999996311963 1507
19.5199996307492 1457
19.5399996303022 1372
19.5599996298552 1432
19.5799996294081 1549
19.5999996289611 1562
19.6199996285141 1569
19.639999628067 1556
19.65999962762 1473
19.6799996271729 1410
19.6999996267259 1439
19.7199996262789 1479
19.7399996258318 1517
19.7599996253848 1448
19.7799996249378 1493
19.7999996244907 1507
19.8199996240437 1494
19.8399996235967 1539
19.8599996231496 1550
19.8799996227026 1526
19.8999996222556 1481
19.9199996218085 1557
19.9399996213615 1534
19.9599996209145 1523
19.9799996204674 1514
19.9999996200204 1578
