3 2239
3.01999999955297 2059
3.03999999910593 1858
3.0599999986589 1871
3.07999999821186 1759
3.09999999776483 1697
3.11999999731779 1635
3.13999999687076 1549
3.15999999642372 1578
3.17999999597669 1544
3.19999999552965 1544
3.21999999508262 1438
3.23999999463558 1430
3.25999999418855 1436
3.27999999374151 1442
3.29999999329448 1385
3.31999999284744 1353
3.33999999240041 1325
3.35999999195337 1309
3.37999999150634 1324
3.3999999910593 1329
3.41999999061227 1313
3.43999999016523 1336
3.4599999897182 1238
3.47999998927116 1259
3.49999998882413 1265
3.51999998837709 1205
3.53999998793006 1235
3.55999998748302 1237
3.57999998703599 1211
3.59999998658895 1252
3.61999998614192 1172
3.63999998569489 1173
3.65999998524785 1160
3.67999998480082 1122
3.69999998435378 1125
3.71999998390675 1135
3.73999998345971 1069
3.75999998301268 1105
3.77999998256564 1063
3.79999998211861 1038
3.81999998167157 1105
3.83999998122454 1096
3.8599999807775 987
3.87999998033047 1064
3.89999997988343 1075
3.9199999794364 997
3.93999997898936 946
3.95999997854233 983
3.97999997809529 981
3.99999997764826 981
4.01999997720122 982
4.03999997675419 973
4.05999997630715 955
4.07999997586012 989
4.09999997541308 986
4.11999997496605 925
4.13999997451901 936
4.15999997407198 959
4.17999997362494 930
4.19999997317791 915
4.21999997273087 908
4.23999997228384 931
4.25999997183681 962
4.27999997138977 929
4.29999997094274 857
4.3199999704957 895
4.33999997004867 911
4.35999996960163 834
4.3799999691546 837
4.39999996870756 833
4.41999996826053 884
4.43999996781349 847
4.45999996736646 851
4.47999996691942 892
4.49999996647239 828
4.51999996602535 845
4.53999996557832 837
4.55999996513128 878
4.57999996468425 837
4.59999996423721 890
4.61999996379018 803
4.63999996334314 863
4.65999996289611 811
4.67999996244907 826
4.69999996200204 849
4.719999961555 803
4.73999996110797 836
4.75999996066093 812
4.7799999602139 803
4.79999995976686 884
4.81999995931983 830
4.83999995887279 807
4.85999995842576 859
4.87999995797873 824
4.89999995753169 866
4.91999995708466 874
4.93999995663762 853
4.95999995619059 850
4.97999995574355 823
4.99999995529652 894
5.01999995484948 896
5.03999995440245 872
5.05999995395541 908
5.07999995350838 962
5.09999995306134 963
5.11999995261431 921
5.13999995216727 934
5.15999995172024 1031
5.1799999512732 1032
5.19999995082617 1007
5.21999995037913 1063
5.2399999499321 1072
5.25999994948506 1112
5.27999994903803 1150
5.29999994859099 1169
5.31999994814396 1219
5.33999994769692 1203
5.35999994724989 1265
5.37999994680285 1300
5.39999994635582 1322
5.41999994590878 1366
5.43999994546175 1338
5.45999994501471 1370
5.47999994456768 1417
5.49999994412065 1467
5.51999994367361 1422
5.53999994322658 1414
5.55999994277954 1425
5.57999994233251 1441
5.59999994188547 1438
5.61999994143844 1458
5.6399999409914 1492
5.65999994054437 1455
5.67999994009733 1472
5.6999999396503 1452
5.71999993920326 1490
5.73999993875623 1440
5.75999993830919 1426
5.77999993786216 1337
5.79999993741512 1315
5.81999993696809 1252
5.83999993652105 1285
5.85999993607402 1178
5.87999993562698 1139
5.89999993517995 1089
5.91999993473291 1093
5.93999993428588 1038
5.95999993383884 1034
5.97999993339181 953
5.99999993294477 936
6.01999993249774 927
6.0399999320507 915
6.05999993160367 856
6.07999993115663 830
6.0999999307096 876
6.11999993026257 828
6.13999992981553 819
6.1599999293685 764
6.17999992892146 831
6.19999992847443 824
6.21999992802739 785
6.23999992758036 737
6.25999992713332 797
6.27999992668629 765
6.29999992623925 752
6.31999992579222 791
6.33999992534518 740
6.35999992489815 766
6.37999992445111 725
6.39999992400408 728
6.41999992355704 761
6.43999992311001 754
6.45999992266297 729
6.47999992221594 767
6.4999999217689 752
6.51999992132187 735
6.53999992087483 730
6.5599999204278 679
6.57999991998076 710
6.59999991953373 731
6.61999991908669 743
6.63999991863966 743
6.65999991819262 763
6.67999991774559 759
6.69999991729855 758
6.71999991685152 786
6.73999991640449 742
6.75999991595745 670
6.77999991551042 701
6.79999991506338 707
6.81999991461635 688
6.83999991416931 720
6.85999991372228 710
6.87999991327524 760
6.89999991282821 750
6.91999991238117 698
6.93999991193414 685
6.9599999114871 738
6.97999991104007 736
6.99999991059303 695
7.019999910146 737
7.03999990969896 729
7.05999990925193 763
7.07999990880489 751
7.09999990835786 721
7.11999990791082 757
7.13999990746379 724
7.15999990701675 728
7.17999990656972 701
7.19999990612268 697
7.21999990567565 718
7.23999990522861 723
7.25999990478158 710
7.27999990433454 708
7.29999990388751 685
7.31999990344047 701
7.33999990299344 716
7.35999990254641 694
7.37999990209937 676
7.39999990165234 716
7.4199999012053 687
7.43999990075827 708
7.45999990031123 684
7.4799998998642 679
7.49999989941716 728
7.51999989897013 695
7.53999989852309 714
7.55999989807606 690
7.57999989762902 662
7.59999989718199 681
7.61999989673495 695
7.63999989628792 658
7.65999989584088 655
7.67999989539385 650
7.69999989494681 670
7.71999989449978 665
7.73999989405274 704
7.75999989360571 675
7.77999989315867 674
7.79999989271164 691
7.8199998922646 654
7.83999989181757 685
7.85999989137053 664
7.8799998909235 690
7.89999989047646 702
7.91999989002943 675
7.9399998895824 686
7.95999988913536 678
7.97999988868833 627
7.99999988824129 646
8.01999988779426 709
8.03999988734722 677
8.05999988690019 660
8.07999988645315 697
8.09999988600612 686
8.11999988555908 649
8.13999988511205 668
8.15999988466501 653
8.17999988421798 665
8.19999988377094 621
8.21999988332391 628
8.23999988287687 689
8.25999988242984 632
8.2799998819828 677
8.29999988153577 683
8.31999988108873 663
8.3399998806417 615
8.35999988019466 619
8.37999987974763 603
8.39999987930059 680
8.41999987885356 645
8.43999987840652 635
8.45999987795949 655
8.47999987751245 637
8.49999987706542 693
8.51999987661839 655
8.53999987617135 644
8.55999987572432 640
8.57999987527728 629
8.59999987483025 611
8.61999987438321 625
8.63999987393618 631
8.65999987348914 658
8.67999987304211 640
8.69999987259507 636
8.71999987214804 642
8.739999871701 687
8.75999987125397 619
8.77999987080693 632
8.7999998703599 649
8.81999986991286 617
8.83999986946583 639
8.85999986901879 643
8.87999986857176 689
8.89999986812472 642
8.91999986767769 648
8.93999986723065 699
8.95999986678362 629
8.97999986633658 669
8.99999986588955 692
9.01999986544251 698
9.03999986499548 697
9.05999986454844 676
9.07999986410141 655
9.09999986365438 702
9.11999986320734 724
9.13999986276031 722
9.15999986231327 725
9.17999986186624 733
9.1999998614192 740
9.21999986097217 824
9.23999986052513 839
9.2599998600781 891
9.27999985963106 870
9.29999985918403 869
9.31999985873699 896
9.33999985828996 919
9.35999985784292 879
9.37999985739589 855
9.39999985694885 831
9.41999985650182 790
9.43999985605478 830
9.45999985560775 794
9.47999985516071 775
9.49999985471368 743
9.51999985426664 735
9.53999985381961 714
9.55999985337257 725
9.57999985292554 719
9.5999998524785 682
9.61999985203147 682
9.63999985158443 650
9.6599998511374 648
9.67999985069037 627
9.69999985024333 634
9.7199998497963 689
9.73999984934926 622
9.75999984890223 638
9.77999984845519 604
9.79999984800816 613
9.81999984756112 645
9.83999984711409 639
9.85999984666705 667
9.87999984622002 619
9.89999984577298 618
9.91999984532595 622
9.93999984487891 636
9.95999984443188 649
9.97999984398484 669
9.99999984353781 661
10.0199998430908 599
10.0399998426437 652
10.0599998421967 616
10.0799998417497 642
10.0999998413026 605
10.1199998408556 584
10.1399998404086 684
10.1599998399615 612
10.1799998395145 615
10.1999998390675 611
10.2199998386204 629
10.2399998381734 603
10.2599998377264 627
10.2799998372793 635
10.2999998368323 661
10.3199998363853 642
10.3399998359382 656
10.3599998354912 665
10.3799998350441 591
10.3999998345971 603
10.4199998341501 597
10.439999833703 632
10.459999833256 608
10.479999832809 626
10.4999998323619 628
10.5199998319149 630
10.5399998314679 624
10.5599998310208 618
10.5799998305738 637
10.5999998301268 644
10.6199998296797 639
10.6399998292327 630
10.6599998287857 660
10.6799998283386 673
10.6999998278916 694
10.7199998274446 674
10.7399998269975 720
10.7599998265505 728
10.7799998261034 657
10.7999998256564 715
10.8199998252094 718
10.8399998247623 762
10.8599998243153 732
10.8799998238683 744
10.8999998234212 754
10.9199998229742 722
10.9399998225272 735
10.9599998220801 728
10.9799998216331 745
10.9999998211861 735
11.019999820739 723
11.039999820292 697
11.059999819845 721
11.0799998193979 689
11.0999998189509 703
11.1199998185039 639
11.1399998180568 670
11.1599998176098 675
11.1799998171628 641
11.1999998167157 674
11.2199998162687 668
11.2399998158216 632
11.2599998153746 589
11.2799998149276 633
11.2999998144805 621
11.3199998140335 656
11.3399998135865 612
11.3599998131394 594
11.3799998126924 605
11.3999998122454 640
11.4199998117983 617
11.4399998113513 631
11.4599998109043 623
11.4799998104572 635
11.4999998100102 587
11.5199998095632 610
11.5399998091161 592
11.5599998086691 557
11.5799998082221 610
11.599999807775 617
11.619999807328 645
11.639999806881 592
11.6599998064339 590
11.6799998059869 618
11.6999998055398 624
11.7199998050928 613
11.7399998046458 597
11.7599998041987 611
11.7799998037517 649
11.7999998033047 613
11.8199998028576 649
11.8399998024106 534
11.8599998019636 630
11.8799998015165 590
11.8999998010695 564
11.9199998006225 667
11.9399998001754 615
11.9599997997284 585
11.9799997992814 590
11.9999997988343 623
12.0199997983873 573
12.0399997979403 629
12.0599997974932 630
12.0799997970462 577
12.0999997965992 607
12.1199997961521 617
12.1399997957051 650
12.159999795258 642
12.179999794811 617
12.199999794364 603
12.2199997939169 611
12.2399997934699 612
12.2599997930229 636
12.2799997925758 581
12.2999997921288 622
12.3199997916818 614
12.3399997912347 635
12.3599997907877 613
12.3799997903407 612
12.3999997898936 601
12.4199997894466 625
12.4399997889996 623
12.4599997885525 591
12.4799997881055 654
12.4999997876585 597
12.5199997872114 597
12.5399997867644 595
12.5599997863173 607
12.5799997858703 673
12.5999997854233 592
12.6199997849762 628
12.6399997845292 554
12.6599997840822 613
12.6799997836351 571
12.6999997831881 608
12.7199997827411 586
12.739999782294 598
12.759999781847 603
12.7799997814 607
12.7999997809529 621
12.8199997805059 629
12.8399997800589 650
12.8599997796118 641
12.8799997791648 623
12.8999997787178 607
12.9199997782707 618
12.9399997778237 603
12.9599997773767 624
12.9799997769296 619
12.9999997764826 639
13.0199997760355 657
13.0399997755885 631
13.0599997751415 585
13.0799997746944 583
13.0999997742474 596
13.1199997738004 624
13.1399997733533 621
13.1599997729063 644
13.1799997724593 613
13.1999997720122 606
13.2199997715652 636
13.2399997711182 634
13.2599997706711 639
13.2799997702241 651
13.2999997697771 629
13.31999976933 630
13.339999768883 694
13.359999768436 588
13.3799997679889 615
13.3999997675419 661
13.4199997670949 686
13.4399997666478 649
13.4599997662008 643
13.4799997657537 681
13.4999997653067 609
13.5199997648597 622
13.5399997644126 648
13.5599997639656 635
13.5799997635186 629
13.5999997630715 643
13.6199997626245 687
13.6399997621775 650
13.6599997617304 615
13.6799997612834 652
13.6999997608364 627
13.7199997603893 658
13.7399997599423 671
13.7599997594953 626
13.7799997590482 655
13.7999997586012 656
13.8199997581542 685
13.8399997577071 659
13.8599997572601 696
13.879999756813 670
13.899999756366 621
13.919999755919 659
13.9399997554719 656
13.9599997550249 627
13.9799997545779 655
13.9999997541308 620
14.0199997536838 723
14.0399997532368 673
14.0599997527897 656
14.0799997523427 711
14.0999997518957 646
14.1199997514486 715
14.1399997510016 661
14.1599997505546 649
14.1799997501075 679
14.1999997496605 717
14.2199997492135 719
14.2399997487664 696
14.2599997483194 687
14.2799997478724 705
14.2999997474253 722
14.3199997469783 710
14.3399997465312 649
14.3599997460842 664
14.3799997456372 690
14.3999997451901 734
14.4199997447431 704
14.4399997442961 700
14.459999743849 715
14.479999743402 692
14.499999742955 681
14.5199997425079 679
14.5399997420609 683
14.5599997416139 683
14.5799997411668 682
14.5999997407198 681
14.6199997402728 683
14.6399997398257 677
14.6599997393787 735
14.6799997389317 690
14.6999997384846 691
14.7199997380376 752
14.7399997375906 714
14.7599997371435 695
14.7799997366965 694
14.7999997362494 707
14.8199997358024 759
14.8399997353554 660
14.8599997349083 699
14.8799997344613 698
14.8999997340143 709
14.9199997335672 730
14.9399997331202 653
14.9599997326732 662
14.9799997322261 710
14.9999997317791 698
15.0199997313321 719
15.039999730885 742
15.059999730438 731
15.079999729991 708
15.0999997295439 758
15.1199997290969 758
15.1399997286499 716
15.1599997282028 804
15.1799997277558 732
15.1999997273088 747
15.2199997268617 761
15.2399997264147 766
15.2599997259676 749
15.2799997255206 733
15.2999997250736 786
15.3199997246265 775
15.3399997241795 734
15.3599997237325 698
15.3799997232854 717
15.3999997228384 813
15.4199997223914 738
15.4399997219443 739
15.4599997214973 759
15.4799997210503 751
15.4999997206032 733
15.5199997201562 771
15.5399997197092 756
15.5599997192621 721
15.5799997188151 754
15.5999997183681 760
15.619999717921 791
15.639999717474 808
15.659999717027 806
15.6799997165799 738
15.6999997161329 788
15.7199997156858 773
15.7399997152388 760
15.7599997147918 786
15.7799997143447 777
15.7999997138977 794
15.8199997134507 765
15.8399997130036 770
15.8599997125566 789
15.8799997121096 797
15.8999997116625 790
15.9199997112155 770
15.9399997107685 801
15.9599997103214 821
15.9799997098744 802
15.9999997094274 881
16.0199997089803 777
16.0399997085333 795
16.0599997080863 783
16.0799997076392 776
16.0999997071922 762
16.1199997067451 804
16.1399997062981 810
16.1599997058511 810
16.179999705404 844
16.199999704957 850
16.21999970451 823
16.2399997040629 818
16.2599997036159 854
16.2799997031689 840
16.2999997027218 818
16.3199997022748 830
16.3399997018278 872
16.3599997013807 813
16.3799997009337 819
16.3999997004867 863
16.4199997000396 879
16.4399996995926 913
16.4599996991456 851
16.4799996986985 834
16.4999996982515 919
16.5199996978045 868
16.5399996973574 841
16.5599996969104 870
16.5799996964633 842
16.5999996960163 863
16.6199996955693 852
16.6399996951222 885
16.6599996946752 890
16.6799996942282 882
16.6999996937811 831
16.7199996933341 877
16.7399996928871 861
16.75999969244 862
16.779999691993 890
16.799999691546 892
16.8199996910989 934
16.8399996906519 907
16.8599996902049 895
16.8799996897578 852
16.8999996893108 924
16.9199996888638 919
16.9399996884167 917
16.9599996879697 941
16.9799996875226 909
16.9999996870756 876
17.0199996866286 915
17.0399996861815 898
17.0599996857345 888
17.0799996852875 930
17.0999996848404 921
17.1199996843934 928
17.1399996839464 932
17.1599996834993 919
17.1799996830523 926
17.1999996826053 906
17.2199996821582 917
17.2399996817112 945
17.2599996812642 936
17.2799996808171 932
17.2999996803701 981
17.3199996799231 963
17.339999679476 936
17.359999679029 935
17.379999678582 979
17.3999996781349 952
17.4199996776879 954
17.4399996772408 920
17.4599996767938 973
17.4799996763468 904
17.4999996758997 978
17.5199996754527 1009
17.5399996750057 919
17.5599996745586 953
17.5799996741116 1011
17.5999996736646 992
17.6199996732175 966
17.6399996727705 1030
17.6599996723235 1010
17.6799996718764 994
17.6999996714294 961
17.7199996709824 980
17.7399996705353 1012
17.7599996700883 979
17.7799996696413 942
17.7999996691942 1055
17.8199996687472 996
17.8399996683002 981
17.8599996678531 992
17.8799996674061 1028
17.899999666959 1040
17.919999666512 1058
17.939999666065 1053
17.9599996656179 1021
17.9799996651709 1016
17.9999996647239 1026
18.0199996642768 1047
18.0399996638298 1073
18.0599996633828 1038
18.0799996629357 1094
18.0999996624887 1001
18.1199996620417 1003
18.1399996615946 1075
18.1599996611476 1030
18.1799996607006 1059
18.1999996602535 1068
18.2199996598065 1032
18.2399996593595 1053
18.2599996589124 1059
18.2799996584654 1041
18.2999996580184 1090
18.3199996575713 1072
18.3399996571243 1076
18.3599996566772 1092
18.3799996562302 1052
18.3999996557832 1118
18.4199996553361 1069
18.4399996548891 1062
18.4599996544421 1060
18.479999653995 1114
18.499999653548 1045
18.519999653101 1134
18.5399996526539 1091
18.5599996522069 1081
18.5799996517599 1084
18.5999996513128 1136
18.6199996508658 1134
18.6399996504188 1096
18.6599996499717 1096
18.6799996495247 1092
18.6999996490777 1091
18.7199996486306 1208
18.7399996481836 1189
18.7599996477366 1181
18.7799996472895 1136
18.7999996468425 1140
18.8199996463954 1151
18.8399996459484 1146
18.8599996455014 1165
18.8799996450543 1144
18.8999996446073 1090
18.9199996441603 1203
18.9399996437132 1175
18.9599996432662 1173
18.9799996428192 1150
18.9999996423721 1167
19.0199996419251 1165
19.0399996414781 1133
19.059999641031 1138
19.079999640584 1126
19.099999640137 1219
19.1199996396899 1245
19.1399996392429 1216
19.1599996387959 1184
19.1799996383488 1217
19.1999996379018 1209
19.2199996374547 1260
19.2399996370077 1192
19.2599996365607 1182
19.2799996361136 1192
19.2999996356666 1250
19.3199996352196 1197
19.3399996347725 1228
19.3599996343255 1220
19.3799996338785 1243
19.3999996334314 1215
19.4199996329844 1230
19.4399996325374 1276
19.4599996320903 1268
19.4799996316433 1243
19.4999996311963 1248
19.5199996307492 1315
19.5399996303022 1311
19.5599996298552 1287
19.5799996294081 1317
19.5999996289611 1295
19.6199996285141 1335
19.639999628067 1308
19.65999962762 1255
19.6799996271729 1278
19.6999996267259 1236
19.7199996262789 1250
19.7399996258318 1271
19.7599996253848 1231
19.7799996249378 1284
19.7999996244907 1276
19.8199996240437 1255
19.8399996235967 1242
19.8599996231496 1266
19.8799996227026 1297
19.8999996222556 1243
19.9199996218085 1287
19.9399996213615 1305
19.9599996209145 1223
19.9799996204674 1243
19.9999996200204 1213
