3 2140
3.01999999955297 1931
3.03999999910593 1819
3.0599999986589 1687
3.07999999821186 1612
3.09999999776483 1630
3.11999999731779 1538
3.13999999687076 1465
3.15999999642372 1510
3.17999999597669 1420
3.19999999552965 1424
3.21999999508262 1471
3.23999999463558 1445
3.25999999418855 1379
3.27999999374151 1348
3.29999999329448 1322
3.31999999284744 1365
3.33999999240041 1335
3.35999999195337 1284
3.37999999150634 1293
3.3999999910593 1360
3.41999999061227 1277
3.43999999016523 1275
3.4599999897182 1244
3.47999998927116 1175
3.49999998882413 1128
3.51999998837709 1195
3.53999998793006 1188
3.55999998748302 1169
3.57999998703599 1095
3.59999998658895 1119
3.61999998614192 1161
3.63999998569489 1103
3.65999998524785 1064
3.67999998480082 1074
3.69999998435378 1089
3.71999998390675 1082
3.73999998345971 1042
3.75999998301268 1024
3.77999998256564 1092
3.79999998211861 1105
3.81999998167157 1023
3.83999998122454 999
3.8599999807775 1028
3.87999998033047 1001
3.89999997988343 962
3.9199999794364 1002
3.93999997898936 994
3.95999997854233 932
3.97999997809529 970
3.99999997764826 933
4.01999997720122 951
4.03999997675419 935
4.05999997630715 996
4.07999997586012 998
4.09999997541308 928
4.11999997496605 898
4.13999997451901 908
4.15999997407198 854
4.17999997362494 889
4.19999997317791 908
4.21999997273087 886
4.23999997228384 876
4.25999997183681 911
4.27999997138977 839
4.29999997094274 910
4.3199999704957 835
4.33999997004867 827
4.35999996960163 856
4.3799999691546 833
4.39999996870756 846
4.41999996826053 800
4.43999996781349 806
4.45999996736646 804
4.47999996691942 808
4.49999996647239 812
4.51999996602535 787
4.53999996557832 820
4.55999996513128 776
4.57999996468425 824
4.59999996423721 784
4.61999996379018 787
4.63999996334314 776
4.65999996289611 796
4.67999996244907 775
4.69999996200204 813
4.719999961555 804
4.73999996110797 760
4.75999996066093 754
4.7799999602139 748
4.79999995976686 762
4.81999995931983 753
4.83999995887279 784
4.85999995842576 699
4.87999995797873 769
4.89999995753169 778
4.91999995708466 710
4.93999995663762 759
4.95999995619059 724
4.97999995574355 749
4.99999995529652 732
5.01999995484948 757
5.03999995440245 735
5.05999995395541 710
5.07999995350838 721
5.09999995306134 713
5.11999995261431 685
5.13999995216727 710
5.15999995172024 693
5.1799999512732 673
5.19999995082617 723
5.21999995037913 679
5.2399999499321 684
5.25999994948506 726
5.27999994903803 691
5.29999994859099 699
5.31999994814396 709
5.33999994769692 757
5.35999994724989 704
5.37999994680285 686
5.39999994635582 675
5.41999994590878 699
5.43999994546175 689
5.45999994501471 686
5.47999994456768 698
5.49999994412065 728
5.51999994367361 734
5.53999994322658 688
5.55999994277954 724
5.57999994233251 681
5.59999994188547 676
5.61999994143844 686
5.6399999409914 697
5.65999994054437 676
5.67999994009733 721
5.6999999396503 667
5.71999993920326 694
5.73999993875623 635
5.75999993830919 661
5.77999993786216 679
5.79999993741512 715
5.81999993696809 673
5.83999993652105 714
5.85999993607402 682
5.87999993562698 752
5.89999993517995 674
5.91999993473291 684
5.93999993428588 664
5.95999993383884 692
5.97999993339181 664
5.99999993294477 663
6.01999993249774 711
6.0399999320507 700
6.05999993160367 654
6.07999993115663 667
6.0999999307096 688
6.11999993026257 661
6.13999992981553 641
6.1599999293685 656
6.17999992892146 671
6.19999992847443 687
6.21999992802739 687
6.23999992758036 696
6.25999992713332 671
6.27999992668629 653
6.29999992623925 637
6.31999992579222 689
6.33999992534518 693
6.35999992489815 652
6.37999992445111 653
6.39999992400408 725
6.41999992355704 710
6.43999992311001 710
6.45999992266297 659
6.47999992221594 677
6.4999999217689 671
6.51999992132187 681
6.53999992087483 694
6.5599999204278 682
6.57999991998076 665
6.59999991953373 666
6.61999991908669 691
6.63999991863966 649
6.65999991819262 685
6.67999991774559 711
6.69999991729855 690
6.71999991685152 691
6.73999991640449 657
6.75999991595745 679
6.77999991551042 675
6.79999991506338 634
6.81999991461635 660
6.83999991416931 700
6.85999991372228 663
6.87999991327524 647
6.89999991282821 683
6.91999991238117 659
6.93999991193414 620
6.9599999114871 643
6.97999991104007 648
6.99999991059303 675
7.019999910146 702
7.03999990969896 687
7.05999990925193 703
7.07999990880489 700
7.09999990835786 662
7.11999990791082 665
7.13999990746379 683
7.15999990701675 691
7.17999990656972 662
7.19999990612268 676
7.21999990567565 705
7.23999990522861 665
7.25999990478158 671
7.27999990433454 706
7.29999990388751 690
7.31999990344047 683
7.33999990299344 682
7.35999990254641 648
7.37999990209937 641
7.39999990165234 639
7.4199999012053 682
7.43999990075827 682
7.45999990031123 700
7.4799998998642 654
7.49999989941716 660
7.51999989897013 667
7.53999989852309 635
7.55999989807606 651
7.57999989762902 693
7.59999989718199 697
7.61999989673495 672
7.63999989628792 661
7.65999989584088 649
7.67999989539385 684
7.69999989494681 691
7.71999989449978 673
7.73999989405274 619
7.75999989360571 644
7.77999989315867 629
7.79999989271164 674
7.8199998922646 659
7.83999989181757 663
7.85999989137053 720
7.8799998909235 623
7.89999989047646 591
7.91999989002943 686
7.9399998895824 618
7.95999988913536 667
7.97999988868833 624
7.99999988824129 611
8.01999988779426 634
8.03999988734722 599
8.05999988690019 664
8.07999988645315 647
8.09999988600612 666
8.11999988555908 651
8.13999988511205 668
8.15999988466501 664
8.17999988421798 625
8.19999988377094 662
8.21999988332391 633
8.23999988287687 606
8.25999988242984 664
8.2799998819828 669
8.29999988153577 660
8.31999988108873 643
8.3399998806417 654
8.35999988019466 626
8.37999987974763 638
8.39999987930059 642
8.41999987885356 679
8.43999987840652 617
8.45999987795949 635
8.47999987751245 628
8.49999987706542 639
8.51999987661839 637
8.53999987617135 683
8.55999987572432 702
8.57999987527728 661
8.59999987483025 659
8.61999987438321 642
8.63999987393618 660
8.65999987348914 610
8.67999987304211 634
8.69999987259507 622
8.71999987214804 649
8.739999871701 610
8.75999987125397 643
8.77999987080693 640
8.7999998703599 658
8.81999986991286 660
8.83999986946583 644
8.85999986901879 627
8.87999986857176 653
8.89999986812472 643
8.91999986767769 633
8.93999986723065 627
8.95999986678362 610
8.97999986633658 636
8.99999986588955 616
9.01999986544251 619
9.03999986499548 669
9.05999986454844 634
9.07999986410141 596
9.09999986365438 625
9.11999986320734 627
9.13999986276031 629
9.15999986231327 655
9.17999986186624 645
9.1999998614192 686
9.21999986097217 654
9.23999986052513 641
9.2599998600781 589
9.27999985963106 619
9.29999985918403 632
9.31999985873699 627
9.33999985828996 676
9.35999985784292 646
9.37999985739589 613
9.39999985694885 595
9.41999985650182 627
9.43999985605478 599
9.45999985560775 635
9.47999985516071 625
9.49999985471368 619
9.51999985426664 635
9.53999985381961 639
9.55999985337257 639
9.57999985292554 647
9.5999998524785 633
9.61999985203147 574
9.63999985158443 648
9.6599998511374 618
9.67999985069037 643
9.69999985024333 581
9.7199998497963 628
9.73999984934926 600
9.75999984890223 648
9.77999984845519 606
9.79999984800816 600
9.81999984756112 615
9.83999984711409 673
9.85999984666705 640
9.87999984622002 642
9.89999984577298 636
9.91999984532595 624
9.93999984487891 598
9.95999984443188 655
9.97999984398484 638
9.99999984353781 580
10.0199998430908 649
10.0399998426437 624
10.0599998421967 609
10.0799998417497 621
10.0999998413026 630
10.1199998408556 655
10.1399998404086 621
10.1599998399615 639
10.1799998395145 609
10.1999998390675 577
10.2199998386204 607
10.2399998381734 637
10.2599998377264 641
10.2799998372793 617
10.2999998368323 636
10.3199998363853 616
10.3399998359382 620
10.3599998354912 612
10.3799998350441 610
10.3999998345971 638
10.4199998341501 654
10.439999833703 592
10.459999833256 596
10.479999832809 630
10.4999998323619 614
10.5199998319149 596
10.5399998314679 607
10.5599998310208 647
10.5799998305738 631
10.5999998301268 604
10.6199998296797 580
10.6399998292327 609
10.6599998287857 611
10.6799998283386 644
10.6999998278916 646
10.7199998274446 621
10.7399998269975 583
10.7599998265505 641
10.7799998261034 598
10.7999998256564 639
10.8199998252094 629
10.8399998247623 620
10.8599998243153 643
10.8799998238683 585
10.8999998234212 624
10.9199998229742 651
10.9399998225272 586
10.9599998220801 631
10.9799998216331 611
10.9999998211861 659
11.019999820739 619
11.039999820292 646
11.059999819845 615
11.0799998193979 619
11.0999998189509 598
11.1199998185039 591
11.1399998180568 630
11.1599998176098 640
11.1799998171628 601
11.1999998167157 657
11.2199998162687 616
11.2399998158216 606
11.2599998153746 637
11.2799998149276 646
11.2999998144805 623
11.3199998140335 633
11.3399998135865 605
11.3599998131394 629
11.3799998126924 646
11.3999998122454 611
11.4199998117983 636
11.4399998113513 626
11.4599998109043 625
11.4799998104572 682
11.4999998100102 633
11.5199998095632 634
11.5399998091161 645
11.5599998086691 598
11.5799998082221 609
11.599999807775 594
11.619999807328 627
11.639999806881 622
11.6599998064339 651
11.6799998059869 644
11.6999998055398 657
11.7199998050928 611
11.7399998046458 637
11.7599998041987 642
11.7799998037517 639
11.7999998033047 648
11.8199998028576 639
11.8399998024106 663
11.8599998019636 674
11.8799998015165 661
11.8999998010695 636
11.9199998006225 611
11.9399998001754 628
11.9599997997284 572
11.9799997992814 615
11.9999997988343 601
12.0199997983873 648
12.0399997979403 636
12.0599997974932 640
12.0799997970462 646
12.0999997965992 684
12.1199997961521 614
12.1399997957051 682
12.159999795258 618
12.179999794811 628
12.199999794364 668
12.2199997939169 649
12.2399997934699 629
12.2599997930229 656
12.2799997925758 667
12.2999997921288 675
12.3199997916818 657
12.3399997912347 608
12.3599997907877 629
12.3799997903407 643
12.3999997898936 668
12.4199997894466 701
12.4399997889996 650
12.4599997885525 670
12.4799997881055 666
12.4999997876585 651
12.5199997872114 663
12.5399997867644 620
12.5599997863173 638
12.5799997858703 614
12.5999997854233 628
12.6199997849762 692
12.6399997845292 666
12.6599997840822 655
12.6799997836351 663
12.6999997831881 678
12.7199997827411 666
12.739999782294 685
12.759999781847 639
12.7799997814 672
12.7999997809529 644
12.8199997805059 647
12.8399997800589 636
12.8599997796118 704
12.8799997791648 679
12.8999997787178 643
12.9199997782707 647
12.9399997778237 634
12.9599997773767 686
12.9799997769296 701
12.9999997764826 639
13.0199997760355 632
13.0399997755885 681
13.0599997751415 629
13.0799997746944 670
13.0999997742474 642
13.1199997738004 657
13.1399997733533 728
13.1599997729063 685
13.1799997724593 682
13.1999997720122 655
13.2199997715652 668
13.2399997711182 678
13.2599997706711 707
13.2799997702241 740
13.2999997697771 720
13.31999976933 721
13.339999768883 740
13.359999768436 741
13.3799997679889 743
13.3999997675419 725
13.4199997670949 734
13.4399997666478 700
13.4599997662008 656
13.4799997657537 716
13.4999997653067 714
13.5199997648597 716
13.5399997644126 666
13.5599997639656 724
13.5799997635186 694
13.5999997630715 746
13.6199997626245 715
13.6399997621775 705
13.6599997617304 688
13.6799997612834 675
13.6999997608364 735
13.7199997603893 712
13.7399997599423 721
13.7599997594953 683
13.7799997590482 730
13.7999997586012 721
13.8199997581542 667
13.8399997577071 748
13.8599997572601 692
13.879999756813 705
13.899999756366 710
13.919999755919 736
13.9399997554719 705
13.9599997550249 724
13.9799997545779 654
13.9999997541308 707
14.0199997536838 711
14.0399997532368 734
14.0599997527897 730
14.0799997523427 717
14.0999997518957 730
14.1199997514486 706
14.1399997510016 756
14.1599997505546 767
14.1799997501075 716
14.1999997496605 737
14.2199997492135 673
14.2399997487664 661
14.2599997483194 704
14.2799997478724 687
14.2999997474253 728
14.3199997469783 787
14.3399997465312 724
14.3599997460842 759
14.3799997456372 768
14.3999997451901 787
14.4199997447431 771
14.4399997442961 722
14.459999743849 742
14.479999743402 744
14.499999742955 733
14.5199997425079 767
14.5399997420609 734
14.5599997416139 770
14.5799997411668 743
14.5999997407198 727
14.6199997402728 750
14.6399997398257 787
14.6599997393787 795
14.6799997389317 755
14.6999997384846 759
14.7199997380376 815
14.7399997375906 770
14.7599997371435 822
14.7799997366965 760
14.7999997362494 821
14.8199997358024 794
14.8399997353554 809
14.8599997349083 823
14.8799997344613 797
14.8999997340143 752
14.9199997335672 779
14.9399997331202 780
14.9599997326732 803
14.9799997322261 795
14.9999997317791 798
15.0199997313321 805
15.039999730885 849
15.059999730438 790
15.079999729991 800
15.0999997295439 846
15.1199997290969 804
15.1399997286499 812
15.1599997282028 791
15.1799997277558 809
15.1999997273088 856
15.2199997268617 797
15.2399997264147 805
15.2599997259676 758
15.2799997255206 797
15.2999997250736 797
15.3199997246265 803
15.3399997241795 827
15.3599997237325 840
15.3799997232854 883
15.3999997228384 849
15.4199997223914 833
15.4399997219443 877
15.4599997214973 816
15.4799997210503 858
15.4999997206032 838
15.5199997201562 874
15.5399997197092 878
15.5599997192621 813
15.5799997188151 824
15.5999997183681 832
15.619999717921 900
15.639999717474 793
15.659999717027 877
15.6799997165799 787
15.6999997161329 830
15.7199997156858 890
15.7399997152388 832
15.7599997147918 846
15.7799997143447 865
15.7999997138977 895
15.8199997134507 874
15.8399997130036 877
15.8599997125566 896
15.8799997121096 893
15.8999997116625 864
15.9199997112155 841
15.9399997107685 851
15.9599997103214 839
15.9799997098744 899
15.9999997094274 874
16.0199997089803 892
16.0399997085333 886
16.0599997080863 909
16.0799997076392 897
16.0999997071922 866
16.1199997067451 890
16.1399997062981 896
16.1599997058511 896
16.179999705404 887
16.199999704957 893
16.21999970451 942
16.2399997040629 918
16.2599997036159 927
16.2799997031689 927
16.2999997027218 903
16.3199997022748 892
16.3399997018278 975
16.3599997013807 908
16.3799997009337 906
16.3999997004867 923
16.4199997000396 879
16.4399996995926 943
16.4599996991456 904
16.4799996986985 970
16.4999996982515 987
16.5199996978045 1007
16.5399996973574 1008
16.5599996969104 1008
16.5799996964633 989
16.5999996960163 939
16.6199996955693 1018
16.6399996951222 966
16.6599996946752 1052
16.6799996942282 1058
16.6999996937811 1017
16.7199996933341 1036
16.7399996928871 1110
16.75999969244 1077
16.779999691993 1161
16.799999691546 1184
16.8199996910989 1170
16.8399996906519 1300
16.8599996902049 1406
16.8799996897578 1463
16.8999996893108 1693
16.9199996888638 1920
16.9399996884167 2095
16.9599996879697 2378
16.9799996875226 2799
16.9999996870756 3176
17.0199996866286 3677
17.0399996861815 3931
17.0599996857345 3943
17.0799996852875 3800
17.0999996848404 3381
17.1199996843934 2908
17.1399996839464 2370
17.1599996834993 1857
17.1799996830523 1526
17.1999996826053 1335
17.2199996821582 1234
17.2399996817112 1255
17.2599996812642 1138
17.2799996808171 1127
17.2999996803701 1117
17.3199996799231 1104
17.339999679476 1095
17.359999679029 1080
17.379999678582 1117
17.3999996781349 1080
17.4199996776879 1135
17.4399996772408 1095
17.4599996767938 1074
17.4799996763468 1059
17.4999996758997 1154
17.5199996754527 1074
17.5399996750057 1105
17.5599996745586 1104
17.5799996741116 1129
17.5999996736646 1095
17.6199996732175 1142
17.6399996727705 1123
17.6599996723235 1168
17.6799996718764 1096
17.6999996714294 1167
17.7199996709824 1107
17.7399996705353 1082
17.7599996700883 1108
17.7799996696413 1137
17.7999996691942 1100
17.8199996687472 1110
17.8399996683002 1126
17.8599996678531 1097
17.8799996674061 1152
17.899999666959 1105
17.919999666512 1114
17.939999666065 1194
17.9599996656179 1132
17.9799996651709 1162
17.9999996647239 1148
18.0199996642768 1129
18.0399996638298 1174
18.0599996633828 1142
18.0799996629357 1162
18.0999996624887 1133
18.1199996620417 1149
18.1399996615946 1183
18.1599996611476 1187
18.1799996607006 1148
18.1999996602535 1155
18.2199996598065 1103
18.2399996593595 1157
18.2599996589124 1222
18.2799996584654 1235
18.2999996580184 1200
18.3199996575713 1192
18.3399996571243 1207
18.3599996566772 1201
18.3799996562302 1248
18.3999996557832 1209
18.4199996553361 1171
18.4399996548891 1278
18.4599996544421 1224
18.479999653995 1198
18.499999653548 1222
18.519999653101 1258
18.5399996526539 1183
18.5599996522069 1246
18.5799996517599 1282
18.5999996513128 1183
18.6199996508658 1186
18.6399996504188 1339
18.6599996499717 1251
18.6799996495247 1321
18.6999996490777 1283
18.7199996486306 1243
18.7399996481836 1273
18.7599996477366 1295
18.7799996472895 1205
18.7999996468425 1255
18.8199996463954 1264
18.8399996459484 1276
18.8599996455014 1283
18.8799996450543 1319
18.8999996446073 1282
18.9199996441603 1322
18.9399996437132 1326
18.9599996432662 1346
18.9799996428192 1317
18.9999996423721 1307
19.0199996419251 1340
19.0399996414781 1346
19.059999641031 1407
19.079999640584 1296
19.099999640137 1428
19.1199996396899 1272
19.1399996392429 1297
19.1599996387959 1329
19.1799996383488 1341
19.1999996379018 1390
19.2199996374547 1344
19.2399996370077 1358
19.2599996365607 1360
19.2799996361136 1379
19.2999996356666 1371
19.3199996352196 1386
19.3399996347725 1395
19.3599996343255 1416
19.3799996338785 1366
19.3999996334314 1378
19.4199996329844 1358
19.4399996325374 1365
19.4599996320903 1404
19.4799996316433 1402
19.4999996311963 1401
19.5199996307492 1411
19.5399996303022 1382
19.5599996298552 1437
19.5799996294081 1434
19.5999996289611 1453
19.6199996285141 1418
19.639999628067 1476
19.65999962762 1419
19.6799996271729 1441
19.6999996267259 1401
19.7199996262789 1503
19.7399996258318 1485
19.7599996253848 1415
19.7799996249378 1494
19.7999996244907 1545
19.8199996240437 1503
19.8399996235967 1519
19.8599996231496 1506
19.8799996227026 1470
19.8999996222556 1402
19.9199996218085 1467
19.9399996213615 1487
19.9599996209145 1514
19.9799996204674 1493
19.9999996200204 1485
