3 1927
3.01999999955297 1897
3.03999999910593 1689
3.0599999986589 1660
3.07999999821186 1527
3.09999999776483 1484
3.11999999731779 1440
3.13999999687076 1413
3.15999999642372 1344
3.17999999597669 1347
3.19999999552965 1379
3.21999999508262 1326
3.23999999463558 1298
3.25999999418855 1275
3.27999999374151 1248
3.29999999329448 1318
3.31999999284744 1262
3.33999999240041 1218
3.35999999195337 1207
3.37999999150634 1219
3.3999999910593 1178
3.41999999061227 1174
3.43999999016523 1140
3.4599999897182 1228
3.47999998927116 1189
3.49999998882413 1131
3.51999998837709 1147
3.53999998793006 1138
3.55999998748302 1067
3.57999998703599 1074
3.59999998658895 1052
3.61999998614192 1064
3.63999998569489 1031
3.65999998524785 1032
3.67999998480082 1024
3.69999998435378 1026
3.71999998390675 1015
3.73999998345971 1047
3.75999998301268 1057
3.77999998256564 989
3.79999998211861 988
3.81999998167157 955
3.83999998122454 938
3.8599999807775 921
3.87999998033047 917
3.89999997988343 951
3.9199999794364 890
3.93999997898936 895
3.95999997854233 925
3.97999997809529 870
3.99999997764826 904
4.01999997720122 881
4.03999997675419 893
4.05999997630715 852
4.07999997586012 872
4.09999997541308 902
4.11999997496605 869
4.13999997451901 878
4.15999997407198 833
4.17999997362494 824
4.19999997317791 776
4.21999997273087 855
4.23999997228384 814
4.25999997183681 856
4.27999997138977 832
4.29999997094274 838
4.3199999704957 809
4.33999997004867 789
4.35999996960163 790
4.3799999691546 753
4.39999996870756 783
4.41999996826053 786
4.43999996781349 793
4.45999996736646 783
4.47999996691942 796
4.49999996647239 798
4.51999996602535 803
4.53999996557832 786
4.55999996513128 726
4.57999996468425 758
4.59999996423721 784
4.61999996379018 764
4.63999996334314 783
4.65999996289611 716
4.67999996244907 712
4.69999996200204 728
4.719999961555 728
4.73999996110797 769
4.75999996066093 723
4.7799999602139 715
4.79999995976686 718
4.81999995931983 714
4.83999995887279 688
4.85999995842576 727
4.87999995797873 719
4.89999995753169 682
4.91999995708466 693
4.93999995663762 664
4.95999995619059 681
4.97999995574355 679
4.99999995529652 701
5.01999995484948 688
5.03999995440245 715
5.05999995395541 683
5.07999995350838 694
5.09999995306134 671
5.11999995261431 696
5.13999995216727 712
5.15999995172024 703
5.1799999512732 691
5.19999995082617 706
5.21999995037913 709
5.2399999499321 686
5.25999994948506 706
5.27999994903803 662
5.29999994859099 685
5.31999994814396 697
5.33999994769692 689
5.35999994724989 669
5.37999994680285 692
5.39999994635582 702
5.41999994590878 701
5.43999994546175 724
5.45999994501471 694
5.47999994456768 705
5.49999994412065 706
5.51999994367361 728
5.53999994322658 691
5.55999994277954 676
5.57999994233251 672
5.59999994188547 653
5.61999994143844 658
5.6399999409914 683
5.65999994054437 697
5.67999994009733 702
5.6999999396503 754
5.71999993920326 707
5.73999993875623 687
5.75999993830919 638
5.77999993786216 657
5.79999993741512 690
5.81999993696809 672
5.83999993652105 642
5.85999993607402 641
5.87999993562698 707
5.89999993517995 680
5.91999993473291 705
5.93999993428588 674
5.95999993383884 697
5.97999993339181 691
5.99999993294477 639
6.01999993249774 694
6.0399999320507 684
6.05999993160367 678
6.07999993115663 660
6.0999999307096 648
6.11999993026257 650
6.13999992981553 704
6.1599999293685 682
6.17999992892146 686
6.19999992847443 686
6.21999992802739 638
6.23999992758036 671
6.25999992713332 678
6.27999992668629 693
6.29999992623925 674
6.31999992579222 663
6.33999992534518 641
6.35999992489815 652
6.37999992445111 653
6.39999992400408 638
6.41999992355704 632
6.43999992311001 656
6.45999992266297 655
6.47999992221594 633
6.4999999217689 673
6.51999992132187 676
6.53999992087483 639
6.5599999204278 681
6.57999991998076 693
6.59999991953373 625
6.61999991908669 693
6.63999991863966 653
6.65999991819262 641
6.67999991774559 648
6.69999991729855 620
6.71999991685152 643
6.73999991640449 673
6.75999991595745 694
6.77999991551042 718
6.79999991506338 668
6.81999991461635 633
6.83999991416931 734
6.85999991372228 699
6.87999991327524 718
6.89999991282821 645
6.91999991238117 708
6.93999991193414 708
6.9599999114871 692
6.97999991104007 682
6.99999991059303 715
7.019999910146 685
7.03999990969896 653
7.05999990925193 702
7.07999990880489 738
7.09999990835786 677
7.11999990791082 732
7.13999990746379 715
7.15999990701675 690
7.17999990656972 653
7.19999990612268 665
7.21999990567565 668
7.23999990522861 657
7.25999990478158 629
7.27999990433454 637
7.29999990388751 672
7.31999990344047 695
7.33999990299344 660
7.35999990254641 691
7.37999990209937 694
7.39999990165234 698
7.4199999012053 695
7.43999990075827 673
7.45999990031123 700
7.4799998998642 707
7.49999989941716 690
7.51999989897013 704
7.53999989852309 659
7.55999989807606 655
7.57999989762902 619
7.59999989718199 669
7.61999989673495 667
7.63999989628792 678
7.65999989584088 705
7.67999989539385 700
7.69999989494681 659
7.71999989449978 710
7.73999989405274 673
7.75999989360571 695
7.77999989315867 680
7.79999989271164 703
7.8199998922646 697
7.83999989181757 710
7.85999989137053 651
7.8799998909235 655
7.89999989047646 690
7.91999989002943 644
7.9399998895824 675
7.95999988913536 664
7.97999988868833 701
7.99999988824129 762
8.01999988779426 695
8.03999988734722 691
8.05999988690019 636
8.07999988645315 662
8.09999988600612 684
8.11999988555908 681
8.13999988511205 675
8.15999988466501 713
8.17999988421798 659
8.19999988377094 693
8.21999988332391 684
8.23999988287687 647
8.25999988242984 675
8.2799998819828 704
8.29999988153577 672
8.31999988108873 666
8.3399998806417 645
8.35999988019466 659
8.37999987974763 687
8.39999987930059 695
8.41999987885356 677
8.43999987840652 632
8.45999987795949 686
8.47999987751245 680
8.49999987706542 703
8.51999987661839 706
8.53999987617135 676
8.55999987572432 654
8.57999987527728 639
8.59999987483025 649
8.61999987438321 700
8.63999987393618 661
8.65999987348914 697
8.67999987304211 670
8.69999987259507 658
8.71999987214804 658
8.739999871701 656
8.75999987125397 690
8.77999987080693 709
8.7999998703599 673
8.81999986991286 677
8.83999986946583 653
8.85999986901879 645
8.87999986857176 660
8.89999986812472 688
8.91999986767769 666
8.93999986723065 644
8.95999986678362 622
8.97999986633658 655
8.99999986588955 676
9.01999986544251 698
9.03999986499548 705
9.05999986454844 674
9.07999986410141 673
9.09999986365438 647
9.11999986320734 639
9.13999986276031 663
9.15999986231327 699
9.17999986186624 634
9.1999998614192 662
9.21999986097217 642
9.23999986052513 666
9.2599998600781 722
9.27999985963106 666
9.29999985918403 666
9.31999985873699 694
9.33999985828996 678
9.35999985784292 696
9.37999985739589 665
9.39999985694885 658
9.41999985650182 674
9.43999985605478 709
9.45999985560775 657
9.47999985516071 681
9.49999985471368 645
9.51999985426664 677
9.53999985381961 735
9.55999985337257 692
9.57999985292554 702
9.5999998524785 677
9.61999985203147 648
9.63999985158443 664
9.6599998511374 688
9.67999985069037 660
9.69999985024333 725
9.7199998497963 679
9.73999984934926 676
9.75999984890223 706
9.77999984845519 713
9.79999984800816 686
9.81999984756112 693
9.83999984711409 623
9.85999984666705 692
9.87999984622002 673
9.89999984577298 677
9.91999984532595 636
9.93999984487891 687
9.95999984443188 712
9.97999984398484 680
9.99999984353781 701
10.0199998430908 688
10.0399998426437 719
10.0599998421967 686
10.0799998417497 650
10.0999998413026 668
10.1199998408556 714
10.1399998404086 682
10.1599998399615 681
10.1799998395145 679
10.1999998390675 654
10.2199998386204 661
10.2399998381734 716
10.2599998377264 693
10.2799998372793 639
10.2999998368323 650
10.3199998363853 687
10.3399998359382 681
10.3599998354912 643
10.3799998350441 685
10.3999998345971 622
10.4199998341501 669
10.439999833703 634
10.459999833256 675
10.479999832809 647
10.4999998323619 682
10.5199998319149 672
10.5399998314679 660
10.5599998310208 688
10.5799998305738 670
10.5999998301268 680
10.6199998296797 682
10.6399998292327 681
10.6599998287857 685
10.6799998283386 665
10.6999998278916 653
10.7199998274446 673
10.7399998269975 707
10.7599998265505 668
10.7799998261034 673
10.7999998256564 692
10.8199998252094 648
10.8399998247623 696
10.8599998243153 696
10.8799998238683 643
10.8999998234212 647
10.9199998229742 683
10.9399998225272 691
10.9599998220801 688
10.9799998216331 684
10.9999998211861 703
11.019999820739 685
11.039999820292 696
11.059999819845 683
11.0799998193979 658
11.0999998189509 683
11.1199998185039 689
11.1399998180568 735
11.1599998176098 712
11.1799998171628 702
11.1999998167157 669
11.2199998162687 666
11.2399998158216 718
11.2599998153746 662
11.2799998149276 682
11.2999998144805 666
11.3199998140335 711
11.3399998135865 634
11.3599998131394 685
11.3799998126924 714
11.3999998122454 702
11.4199998117983 687
11.4399998113513 655
11.4599998109043 690
11.4799998104572 649
11.4999998100102 683
11.5199998095632 699
11.5399998091161 680
11.5599998086691 717
11.5799998082221 675
11.599999807775 675
11.619999807328 672
11.639999806881 702
11.6599998064339 679
11.6799998059869 650
11.6999998055398 665
11.7199998050928 692
11.7399998046458 659
11.7599998041987 650
11.7799998037517 674
11.7999998033047 697
11.8199998028576 659
11.8399998024106 659
11.8599998019636 707
11.8799998015165 700
11.8999998010695 668
11.9199998006225 684
11.9399998001754 701
11.9599997997284 709
11.9799997992814 699
11.9999997988343 739
12.0199997983873 682
12.0399997979403 706
12.0599997974932 708
12.0799997970462 712
12.0999997965992 681
12.1199997961521 698
12.1399997957051 699
12.159999795258 671
12.179999794811 720
12.199999794364 686
12.2199997939169 679
12.2399997934699 694
12.2599997930229 680
12.2799997925758 716
12.2999997921288 732
12.3199997916818 665
12.3399997912347 701
12.3599997907877 680
12.3799997903407 671
12.3999997898936 743
12.4199997894466 684
12.4399997889996 712
12.4599997885525 746
12.4799997881055 695
12.4999997876585 720
12.5199997872114 688
12.5399997867644 689
12.5599997863173 730
12.5799997858703 732
12.5999997854233 713
12.6199997849762 712
12.6399997845292 671
12.6599997840822 729
12.6799997836351 703
12.6999997831881 719
12.7199997827411 753
12.739999782294 722
12.759999781847 642
12.7799997814 703
12.7999997809529 721
12.8199997805059 756
12.8399997800589 719
12.8599997796118 747
12.8799997791648 755
12.8999997787178 750
12.9199997782707 727
12.9399997778237 732
12.9599997773767 750
12.9799997769296 697
12.9999997764826 725
13.0199997760355 695
13.0399997755885 770
13.0599997751415 734
13.0799997746944 710
13.0999997742474 738
13.1199997738004 751
13.1399997733533 734
13.1599997729063 721
13.1799997724593 730
13.1999997720122 772
13.2199997715652 814
13.2399997711182 779
13.2599997706711 751
13.2799997702241 774
13.2999997697771 753
13.31999976933 769
13.339999768883 814
13.359999768436 750
13.3799997679889 784
13.3999997675419 756
13.4199997670949 740
13.4399997666478 785
13.4599997662008 740
13.4799997657537 797
13.4999997653067 744
13.5199997648597 720
13.5399997644126 723
13.5599997639656 742
13.5799997635186 787
13.5999997630715 741
13.6199997626245 750
13.6399997621775 754
13.6599997617304 758
13.6799997612834 768
13.6999997608364 752
13.7199997603893 780
13.7399997599423 728
13.7599997594953 767
13.7799997590482 774
13.7999997586012 746
13.8199997581542 773
13.8399997577071 813
13.8599997572601 776
13.879999756813 761
13.899999756366 716
13.919999755919 764
13.9399997554719 773
13.9599997550249 743
13.9799997545779 777
13.9999997541308 818
14.0199997536838 752
14.0399997532368 743
14.0599997527897 757
14.0799997523427 681
14.0999997518957 789
14.1199997514486 726
14.1399997510016 769
14.1599997505546 811
14.1799997501075 785
14.1999997496605 784
14.2199997492135 760
14.2399997487664 755
14.2599997483194 787
14.2799997478724 778
14.2999997474253 799
14.3199997469783 800
14.3399997465312 779
14.3599997460842 816
14.3799997456372 807
14.3999997451901 789
14.4199997447431 808
14.4399997442961 806
14.459999743849 833
14.479999743402 864
14.499999742955 808
14.5199997425079 786
14.5399997420609 809
14.5599997416139 796
14.5799997411668 775
14.5999997407198 821
14.6199997402728 798
14.6399997398257 795
14.6599997393787 792
14.6799997389317 789
14.6999997384846 791
14.7199997380376 812
14.7399997375906 826
14.7599997371435 824
14.7799997366965 811
14.7999997362494 798
14.8199997358024 813
14.8399997353554 787
14.8599997349083 828
14.8799997344613 861
14.8999997340143 854
14.9199997335672 822
14.9399997331202 794
14.9599997326732 814
14.9799997322261 827
14.9999997317791 821
15.0199997313321 844
15.039999730885 856
15.059999730438 799
15.079999729991 815
15.0999997295439 836
15.1199997290969 845
15.1399997286499 889
15.1599997282028 882
15.1799997277558 821
15.1999997273088 887
15.2199997268617 853
15.2399997264147 859
15.2599997259676 875
15.2799997255206 887
15.2999997250736 879
15.3199997246265 858
15.3399997241795 841
15.3599997237325 897
15.3799997232854 920
15.3999997228384 889
15.4199997223914 973
15.4399997219443 915
15.4599997214973 874
15.4799997210503 863
15.4999997206032 937
15.5199997201562 867
15.5399997197092 819
15.5599997192621 844
15.5799997188151 886
15.5999997183681 851
15.619999717921 849
15.639999717474 913
15.659999717027 859
15.6799997165799 903
15.6999997161329 929
15.7199997156858 934
15.7399997152388 896
15.7599997147918 872
15.7799997143447 904
15.7999997138977 916
15.8199997134507 935
15.8399997130036 925
15.8599997125566 908
15.8799997121096 870
15.8999997116625 908
15.9199997112155 919
15.9399997107685 892
15.9599997103214 914
15.9799997098744 912
15.9999997094274 898
16.0199997089803 911
16.0399997085333 897
16.0599997080863 912
16.0799997076392 920
16.0999997071922 913
16.1199997067451 934
16.1399997062981 928
16.1599997058511 904
16.179999705404 924
16.199999704957 946
16.21999970451 971
16.2399997040629 921
16.2599997036159 978
16.2799997031689 970
16.2999997027218 979
16.3199997022748 975
16.3399997018278 958
16.3599997013807 922
16.3799997009337 944
16.3999997004867 992
16.4199997000396 981
16.4399996995926 957
16.4599996991456 972
16.4799996986985 1042
16.4999996982515 955
16.5199996978045 1017
16.5399996973574 1081
16.5599996969104 1018
16.5799996964633 1039
16.5999996960163 1127
16.6199996955693 979
16.6399996951222 1038
16.6599996946752 1077
16.6799996942282 1092
16.6999996937811 1130
16.7199996933341 1152
16.7399996928871 1111
16.75999969244 1231
16.779999691993 1128
16.799999691546 1255
16.8199996910989 1326
16.8399996906519 1368
16.8599996902049 1524
16.8799996897578 1590
16.8999996893108 1762
16.9199996888638 1990
16.9399996884167 2184
16.9599996879697 2520
16.9799996875226 3024
16.9999996870756 3464
17.0199996866286 3845
17.0399996861815 4357
17.0599996857345 4600
17.0799996852875 4534
17.0999996848404 4191
17.1199996843934 3471
17.1399996839464 2652
17.1599996834993 2121
17.1799996830523 1628
17.1999996826053 1415
17.2199996821582 1276
17.2399996817112 1247
17.2599996812642 1188
17.2799996808171 1204
17.2999996803701 1272
17.3199996799231 1218
17.339999679476 1225
17.359999679029 1289
17.379999678582 1276
17.3999996781349 1285
17.4199996776879 1209
17.4399996772408 1191
17.4599996767938 1231
17.4799996763468 1197
17.4999996758997 1174
17.5199996754527 1145
17.5399996750057 1183
17.5599996745586 1158
17.5799996741116 1162
17.5999996736646 1132
17.6199996732175 1126
17.6399996727705 1168
17.6599996723235 1120
17.6799996718764 1175
17.6999996714294 1130
17.7199996709824 1170
17.7399996705353 1173
17.7599996700883 1158
17.7799996696413 1183
17.7999996691942 1161
17.8199996687472 1132
17.8399996683002 1185
17.8599996678531 1252
17.8799996674061 1164
17.899999666959 1127
17.919999666512 1141
17.939999666065 1145
17.9599996656179 1192
17.9799996651709 1231
17.9999996647239 1165
18.0199996642768 1203
18.0399996638298 1180
18.0599996633828 1249
18.0799996629357 1247
18.0999996624887 1240
18.1199996620417 1208
18.1399996615946 1160
18.1599996611476 1245
18.1799996607006 1252
18.1999996602535 1202
18.2199996598065 1205
18.2399996593595 1232
18.2599996589124 1226
18.2799996584654 1286
18.2999996580184 1244
18.3199996575713 1215
18.3399996571243 1218
18.3599996566772 1218
18.3799996562302 1196
18.3999996557832 1235
18.4199996553361 1274
18.4399996548891 1239
18.4599996544421 1228
18.479999653995 1313
18.499999653548 1246
18.519999653101 1259
18.5399996526539 1319
18.5599996522069 1273
18.5799996517599 1287
18.5999996513128 1279
18.6199996508658 1326
18.6399996504188 1278
18.6599996499717 1324
18.6799996495247 1265
18.6999996490777 1329
18.7199996486306 1274
18.7399996481836 1266
18.7599996477366 1316
18.7799996472895 1289
18.7999996468425 1307
18.8199996463954 1307
18.8399996459484 1307
18.8599996455014 1297
18.8799996450543 1352
18.8999996446073 1324
18.9199996441603 1405
18.9399996437132 1315
18.9599996432662 1310
18.9799996428192 1358
18.9999996423721 1354
19.0199996419251 1343
19.0399996414781 1320
19.059999641031 1385
19.079999640584 1385
19.099999640137 1425
19.1199996396899 1365
19.1399996392429 1354
19.1599996387959 1351
19.1799996383488 1321
19.1999996379018 1440
19.2199996374547 1392
19.2399996370077 1410
19.2599996365607 1405
19.2799996361136 1407
19.2999996356666 1450
19.3199996352196 1392
19.3399996347725 1403
19.3599996343255 1416
19.3799996338785 1410
19.3999996334314 1416
19.4199996329844 1399
19.4399996325374 1393
19.4599996320903 1425
19.4799996316433 1409
19.4999996311963 1391
19.5199996307492 1398
19.5399996303022 1385
19.5599996298552 1465
19.5799996294081 1437
19.5999996289611 1495
19.6199996285141 1484
19.639999628067 1498
19.65999962762 1484
19.6799996271729 1551
19.6999996267259 1494
19.7199996262789 1494
19.7399996258318 1489
19.7599996253848 1488
19.7799996249378 1482
19.7999996244907 1457
19.8199996240437 1484
19.8399996235967 1512
19.8599996231496 1543
19.8799996227026 1529
19.8999996222556 1505
19.9199996218085 1504
19.9399996213615 1522
19.9599996209145 1522
19.9799996204674 1535
19.9999996200204 1528
