3 2073
3.01999999955297 1952
3.03999999910593 1798
3.0599999986589 1717
3.07999999821186 1568
3.09999999776483 1542
3.11999999731779 1523
3.13999999687076 1422
3.15999999642372 1415
3.17999999597669 1332
3.19999999552965 1353
3.21999999508262 1366
3.23999999463558 1365
3.25999999418855 1304
3.27999999374151 1243
3.29999999329448 1379
3.31999999284744 1318
3.33999999240041 1367
3.35999999195337 1257
3.37999999150634 1323
3.3999999910593 1231
3.41999999061227 1303
3.43999999016523 1208
3.4599999897182 1173
3.47999998927116 1178
3.49999998882413 1163
3.51999998837709 1202
3.53999998793006 1175
3.55999998748302 1165
3.57999998703599 1203
3.59999998658895 1205
3.61999998614192 1153
3.63999998569489 1165
3.65999998524785 1108
3.67999998480082 1159
3.69999998435378 1177
3.71999998390675 1153
3.73999998345971 1174
3.75999998301268 1189
3.77999998256564 1123
3.79999998211861 1122
3.81999998167157 1114
3.83999998122454 1176
3.8599999807775 1160
3.87999998033047 1166
3.89999997988343 1108
3.9199999794364 1046
3.93999997898936 1149
3.95999997854233 1118
3.97999997809529 1108
3.99999997764826 1051
4.01999997720122 1087
4.03999997675419 1104
4.05999997630715 1132
4.07999997586012 1096
4.09999997541308 1145
4.11999997496605 1126
4.13999997451901 1128
4.15999997407198 1050
4.17999997362494 1158
4.19999997317791 1035
4.21999997273087 1095
4.23999997228384 1098
4.25999997183681 1084
4.27999997138977 1130
4.29999997094274 1120
4.3199999704957 1098
4.33999997004867 1095
4.35999996960163 1099
4.3799999691546 1132
4.39999996870756 1150
4.41999996826053 1164
4.43999996781349 1151
4.45999996736646 1157
4.47999996691942 1158
4.49999996647239 1108
4.51999996602535 1119
4.53999996557832 1151
4.55999996513128 1156
4.57999996468425 1122
4.59999996423721 1167
4.61999996379018 1124
4.63999996334314 1139
4.65999996289611 1196
4.67999996244907 1140
4.69999996200204 1218
4.719999961555 1163
4.73999996110797 1202
4.75999996066093 1183
4.7799999602139 1188
4.79999995976686 1193
4.81999995931983 1205
4.83999995887279 1181
4.85999995842576 1306
4.87999995797873 1346
4.89999995753169 1269
4.91999995708466 1254
4.93999995663762 1300
4.95999995619059 1245
4.97999995574355 1280
4.99999995529652 1297
5.01999995484948 1361
5.03999995440245 1304
5.05999995395541 1267
5.07999995350838 1295
5.09999995306134 1318
5.11999995261431 1299
5.13999995216727 1331
5.15999995172024 1358
5.1799999512732 1313
5.19999995082617 1326
5.21999995037913 1339
5.2399999499321 1305
5.25999994948506 1458
5.27999994903803 1364
5.29999994859099 1416
5.31999994814396 1402
5.33999994769692 1358
5.35999994724989 1357
5.37999994680285 1370
5.39999994635582 1375
5.41999994590878 1424
5.43999994546175 1414
5.45999994501471 1440
5.47999994456768 1430
5.49999994412065 1419
5.51999994367361 1447
5.53999994322658 1410
5.55999994277954 1487
5.57999994233251 1406
5.59999994188547 1373
5.61999994143844 1484
5.6399999409914 1429
5.65999994054437 1424
5.67999994009733 1452
5.6999999396503 1463
5.71999993920326 1346
5.73999993875623 1529
5.75999993830919 1495
5.77999993786216 1450
5.79999993741512 1485
5.81999993696809 1376
5.83999993652105 1400
5.85999993607402 1530
5.87999993562698 1451
5.89999993517995 1405
5.91999993473291 1385
5.93999993428588 1488
5.95999993383884 1500
5.97999993339181 1457
5.99999993294477 1426
6.01999993249774 1462
6.0399999320507 1466
6.05999993160367 1373
6.07999993115663 1404
6.0999999307096 1336
6.11999993026257 1417
6.13999992981553 1366
6.1599999293685 1411
6.17999992892146 1346
6.19999992847443 1387
6.21999992802739 1337
6.23999992758036 1328
6.25999992713332 1330
6.27999992668629 1343
6.29999992623925 1350
6.31999992579222 1353
6.33999992534518 1317
6.35999992489815 1364
6.37999992445111 1324
6.39999992400408 1322
6.41999992355704 1320
6.43999992311001 1269
6.45999992266297 1250
6.47999992221594 1176
6.4999999217689 1212
6.51999992132187 1281
6.53999992087483 1251
6.5599999204278 1295
6.57999991998076 1207
6.59999991953373 1225
6.61999991908669 1134
6.63999991863966 1190
6.65999991819262 1215
6.67999991774559 1173
6.69999991729855 1130
6.71999991685152 1208
6.73999991640449 1179
6.75999991595745 1128
6.77999991551042 1137
6.79999991506338 1169
6.81999991461635 1127
6.83999991416931 1134
6.85999991372228 1140
6.87999991327524 1110
6.89999991282821 1056
6.91999991238117 1084
6.93999991193414 1120
6.9599999114871 1017
6.97999991104007 1011
6.99999991059303 1037
7.019999910146 1022
7.03999990969896 1051
7.05999990925193 1026
7.07999990880489 995
7.09999990835786 1038
7.11999990791082 1028
7.13999990746379 983
7.15999990701675 1020
7.17999990656972 1004
7.19999990612268 967
7.21999990567565 980
7.23999990522861 972
7.25999990478158 909
7.27999990433454 918
7.29999990388751 912
7.31999990344047 964
7.33999990299344 974
7.35999990254641 971
7.37999990209937 951
7.39999990165234 921
7.4199999012053 919
7.43999990075827 918
7.45999990031123 937
7.4799998998642 901
7.49999989941716 955
7.51999989897013 863
7.53999989852309 877
7.55999989807606 896
7.57999989762902 844
7.59999989718199 870
7.61999989673495 901
7.63999989628792 907
7.65999989584088 846
7.67999989539385 805
7.69999989494681 921
7.71999989449978 893
7.73999989405274 888
7.75999989360571 851
7.77999989315867 869
7.79999989271164 830
7.8199998922646 843
7.83999989181757 888
7.85999989137053 806
7.8799998909235 822
7.89999989047646 820
7.91999989002943 814
7.9399998895824 812
7.95999988913536 806
7.97999988868833 884
7.99999988824129 841
8.01999988779426 804
8.03999988734722 820
8.05999988690019 812
8.07999988645315 821
8.09999988600612 806
8.11999988555908 819
8.13999988511205 788
8.15999988466501 875
8.17999988421798 840
8.19999988377094 802
8.21999988332391 834
8.23999988287687 816
8.25999988242984 843
8.2799998819828 827
8.29999988153577 806
8.31999988108873 766
8.3399998806417 801
8.35999988019466 772
8.37999987974763 827
8.39999987930059 804
8.41999987885356 803
8.43999987840652 731
8.45999987795949 782
8.47999987751245 762
8.49999987706542 720
8.51999987661839 784
8.53999987617135 816
8.55999987572432 765
8.57999987527728 832
8.59999987483025 800
8.61999987438321 800
8.63999987393618 779
8.65999987348914 813
8.67999987304211 802
8.69999987259507 764
8.71999987214804 786
8.739999871701 793
8.75999987125397 801
8.77999987080693 762
8.7999998703599 759
8.81999986991286 758
8.83999986946583 777
8.85999986901879 778
8.87999986857176 808
8.89999986812472 784
8.91999986767769 799
8.93999986723065 795
8.95999986678362 812
8.97999986633658 775
8.99999986588955 812
9.01999986544251 748
9.03999986499548 807
9.05999986454844 749
9.07999986410141 779
9.09999986365438 747
9.11999986320734 781
9.13999986276031 768
9.15999986231327 787
9.17999986186624 757
9.1999998614192 768
9.21999986097217 788
9.23999986052513 740
9.2599998600781 760
9.27999985963106 792
9.29999985918403 750
9.31999985873699 785
9.33999985828996 772
9.35999985784292 810
9.37999985739589 785
9.39999985694885 736
9.41999985650182 761
9.43999985605478 786
9.45999985560775 774
9.47999985516071 768
9.49999985471368 781
9.51999985426664 807
9.53999985381961 768
9.55999985337257 804
9.57999985292554 821
9.5999998524785 802
9.61999985203147 737
9.63999985158443 795
9.6599998511374 797
9.67999985069037 843
9.69999985024333 770
9.7199998497963 833
9.73999984934926 788
9.75999984890223 751
9.77999984845519 795
9.79999984800816 856
9.81999984756112 744
9.83999984711409 807
9.85999984666705 808
9.87999984622002 805
9.89999984577298 784
9.91999984532595 830
9.93999984487891 781
9.95999984443188 792
9.97999984398484 824
9.99999984353781 808
10.0199998430908 823
10.0399998426437 873
10.0599998421967 819
10.0799998417497 889
10.0999998413026 826
10.1199998408556 824
10.1399998404086 830
10.1599998399615 843
10.1799998395145 860
10.1999998390675 847
10.2199998386204 848
10.2399998381734 810
10.2599998377264 836
10.2799998372793 772
10.2999998368323 850
10.3199998363853 801
10.3399998359382 816
10.3599998354912 794
10.3799998350441 808
10.3999998345971 861
10.4199998341501 840
10.439999833703 806
10.459999833256 847
10.479999832809 845
10.4999998323619 850
10.5199998319149 845
10.5399998314679 799
10.5599998310208 809
10.5799998305738 805
10.5999998301268 832
10.6199998296797 797
10.6399998292327 778
10.6599998287857 804
10.6799998283386 840
10.6999998278916 815
10.7199998274446 874
10.7399998269975 869
10.7599998265505 845
10.7799998261034 821
10.7999998256564 864
10.8199998252094 807
10.8399998247623 845
10.8599998243153 849
10.8799998238683 825
10.8999998234212 803
10.9199998229742 819
10.9399998225272 901
10.9599998220801 857
10.9799998216331 823
10.9999998211861 884
11.019999820739 847
11.039999820292 836
11.059999819845 851
11.0799998193979 851
11.0999998189509 893
11.1199998185039 836
11.1399998180568 818
11.1599998176098 840
11.1799998171628 756
11.1999998167157 851
11.2199998162687 867
11.2399998158216 867
11.2599998153746 801
11.2799998149276 835
11.2999998144805 838
11.3199998140335 883
11.3399998135865 870
11.3599998131394 870
11.3799998126924 853
11.3999998122454 854
11.4199998117983 847
11.4399998113513 837
11.4599998109043 860
11.4799998104572 918
11.4999998100102 915
11.5199998095632 900
11.5399998091161 867
11.5599998086691 936
11.5799998082221 839
11.599999807775 865
11.619999807328 917
11.639999806881 839
11.6599998064339 916
11.6799998059869 886
11.6999998055398 863
11.7199998050928 879
11.7399998046458 851
11.7599998041987 899
11.7799998037517 832
11.7999998033047 902
11.8199998028576 838
11.8399998024106 848
11.8599998019636 827
11.8799998015165 922
11.8999998010695 921
11.9199998006225 885
11.9399998001754 896
11.9599997997284 847
11.9799997992814 880
11.9999997988343 856
12.0199997983873 886
12.0399997979403 915
12.0599997974932 851
12.0799997970462 889
12.0999997965992 874
12.1199997961521 889
12.1399997957051 880
12.159999795258 898
12.179999794811 867
12.199999794364 928
12.2199997939169 863
12.2399997934699 868
12.2599997930229 906
12.2799997925758 855
12.2999997921288 889
12.3199997916818 914
12.3399997912347 906
12.3599997907877 888
12.3799997903407 892
12.3999997898936 916
12.4199997894466 851
12.4399997889996 861
12.4599997885525 861
12.4799997881055 876
12.4999997876585 849
12.5199997872114 914
12.5399997867644 941
12.5599997863173 933
12.5799997858703 902
12.5999997854233 929
12.6199997849762 844
12.6399997845292 908
12.6599997840822 860
12.6799997836351 887
12.6999997831881 853
12.7199997827411 891
12.739999782294 868
12.759999781847 924
12.7799997814 931
12.7999997809529 928
12.8199997805059 861
12.8399997800589 847
12.8599997796118 879
12.8799997791648 873
12.8999997787178 881
12.9199997782707 870
12.9399997778237 914
12.9599997773767 842
12.9799997769296 902
12.9999997764826 947
13.0199997760355 919
13.0399997755885 871
13.0599997751415 909
13.0799997746944 872
13.0999997742474 910
13.1199997738004 875
13.1399997733533 876
13.1599997729063 859
13.1799997724593 883
13.1999997720122 899
13.2199997715652 903
13.2399997711182 954
13.2599997706711 864
13.2799997702241 890
13.2999997697771 924
13.31999976933 898
13.339999768883 918
13.359999768436 882
13.3799997679889 908
13.3999997675419 856
13.4199997670949 895
13.4399997666478 899
13.4599997662008 856
13.4799997657537 911
13.4999997653067 893
13.5199997648597 887
13.5399997644126 946
13.5599997639656 927
13.5799997635186 932
13.5999997630715 941
13.6199997626245 833
13.6399997621775 874
13.6599997617304 856
13.6799997612834 895
13.6999997608364 953
13.7199997603893 962
13.7399997599423 932
13.7599997594953 933
13.7799997590482 923
13.7999997586012 905
13.8199997581542 907
13.8399997577071 944
13.8599997572601 878
13.879999756813 954
13.899999756366 950
13.919999755919 997
13.9399997554719 913
13.9599997550249 866
13.9799997545779 884
13.9999997541308 953
14.0199997536838 944
14.0399997532368 973
14.0599997527897 902
14.0799997523427 928
14.0999997518957 925
14.1199997514486 930
14.1399997510016 949
14.1599997505546 983
14.1799997501075 935
14.1999997496605 951
14.2199997492135 948
14.2399997487664 971
14.2599997483194 1055
14.2799997478724 989
14.2999997474253 953
14.3199997469783 973
14.3399997465312 987
14.3599997460842 962
14.3799997456372 926
14.3999997451901 943
14.4199997447431 959
14.4399997442961 978
14.459999743849 955
14.479999743402 943
14.499999742955 976
14.5199997425079 1018
14.5399997420609 964
14.5599997416139 995
14.5799997411668 934
14.5999997407198 989
14.6199997402728 978
14.6399997398257 1008
14.6599997393787 988
14.6799997389317 957
14.6999997384846 981
14.7199997380376 973
14.7399997375906 1048
14.7599997371435 984
14.7799997366965 1000
14.7999997362494 1024
14.8199997358024 1038
14.8399997353554 1029
14.8599997349083 1071
14.8799997344613 1032
14.8999997340143 1007
14.9199997335672 1044
14.9399997331202 1046
14.9599997326732 1050
14.9799997322261 1060
14.9999997317791 1036
15.0199997313321 1089
15.039999730885 1005
15.059999730438 1110
15.079999729991 1045
15.0999997295439 1039
15.1199997290969 1097
15.1399997286499 1086
15.1599997282028 1111
15.1799997277558 1061
15.1999997273088 1094
15.2199997268617 1047
15.2399997264147 1030
15.2599997259676 1060
15.2799997255206 1143
15.2999997250736 1068
15.3199997246265 1103
15.3399997241795 1151
15.3599997237325 1094
15.3799997232854 1047
15.3999997228384 1047
15.4199997223914 1072
15.4399997219443 1108
15.4599997214973 1090
15.4799997210503 1153
15.4999997206032 1142
15.5199997201562 1139
15.5399997197092 1078
15.5599997192621 1081
15.5799997188151 1056
15.5999997183681 1122
15.619999717921 1152
15.639999717474 1176
15.659999717027 1117
15.6799997165799 1175
15.6999997161329 1164
15.7199997156858 1167
15.7399997152388 1103
15.7599997147918 1156
15.7799997143447 1129
15.7999997138977 1168
15.8199997134507 1161
15.8399997130036 1175
15.8599997125566 1147
15.8799997121096 1137
15.8999997116625 1144
15.9199997112155 1166
15.9399997107685 1117
15.9599997103214 1164
15.9799997098744 1176
15.9999997094274 1227
16.0199997089803 1225
16.0399997085333 1201
16.0599997080863 1211
16.0799997076392 1213
16.0999997071922 1179
16.1199997067451 1184
16.1399997062981 1220
16.1599997058511 1267
16.179999705404 1288
16.199999704957 1257
16.21999970451 1216
16.2399997040629 1292
16.2599997036159 1232
16.2799997031689 1218
16.2999997027218 1283
16.3199997022748 1235
16.3399997018278 1201
16.3599997013807 1225
16.3799997009337 1274
16.3999997004867 1235
16.4199997000396 1247
16.4399996995926 1310
16.4599996991456 1203
16.4799996986985 1238
16.4999996982515 1308
16.5199996978045 1298
16.5399996973574 1279
16.5599996969104 1196
16.5799996964633 1245
16.5999996960163 1265
16.6199996955693 1302
16.6399996951222 1336
16.6599996946752 1320
16.6799996942282 1301
16.6999996937811 1277
16.7199996933341 1286
16.7399996928871 1336
16.75999969244 1280
16.779999691993 1342
16.799999691546 1341
16.8199996910989 1324
16.8399996906519 1345
16.8599996902049 1345
16.8799996897578 1344
16.8999996893108 1317
16.9199996888638 1317
16.9399996884167 1353
16.9599996879697 1406
16.9799996875226 1425
16.9999996870756 1384
17.0199996866286 1419
17.0399996861815 1386
17.0599996857345 1364
17.0799996852875 1356
17.0999996848404 1402
17.1199996843934 1382
17.1399996839464 1422
17.1599996834993 1452
17.1799996830523 1402
17.1999996826053 1429
17.2199996821582 1416
17.2399996817112 1452
17.2599996812642 1412
17.2799996808171 1378
17.2999996803701 1484
17.3199996799231 1426
17.339999679476 1384
17.359999679029 1528
17.379999678582 1439
17.3999996781349 1502
17.4199996776879 1471
17.4399996772408 1415
17.4599996767938 1451
17.4799996763468 1472
17.4999996758997 1424
17.5199996754527 1498
17.5399996750057 1477
17.5599996745586 1530
17.5799996741116 1522
17.5999996736646 1489
17.6199996732175 1486
17.6399996727705 1509
17.6599996723235 1545
17.6799996718764 1549
17.6999996714294 1558
17.7199996709824 1583
17.7399996705353 1530
17.7599996700883 1509
17.7799996696413 1510
17.7999996691942 1565
17.8199996687472 1555
17.8399996683002 1536
17.8599996678531 1510
17.8799996674061 1482
17.899999666959 1512
17.919999666512 1568
17.939999666065 1546
17.9599996656179 1520
17.9799996651709 1592
17.9999996647239 1536
18.0199996642768 1531
18.0399996638298 1554
18.0599996633828 1634
18.0799996629357 1661
18.0999996624887 1565
18.1199996620417 1613
18.1399996615946 1561
18.1599996611476 1620
18.1799996607006 1626
18.1999996602535 1561
18.2199996598065 1642
18.2399996593595 1591
18.2599996589124 1593
18.2799996584654 1677
18.2999996580184 1686
18.3199996575713 1647
18.3399996571243 1589
18.3599996566772 1609
18.3799996562302 1673
18.3999996557832 1656
18.4199996553361 1633
18.4399996548891 1636
18.4599996544421 1701
18.479999653995 1550
18.499999653548 1640
18.519999653101 1636
18.5399996526539 1635
18.5599996522069 1739
18.5799996517599 1746
18.5999996513128 1675
18.6199996508658 1694
18.6399996504188 1731
18.6599996499717 1765
18.6799996495247 1658
18.6999996490777 1717
18.7199996486306 1716
18.7399996481836 1694
18.7599996477366 1667
18.7799996472895 1716
18.7999996468425 1644
18.8199996463954 1710
18.8399996459484 1720
18.8599996455014 1702
18.8799996450543 1769
18.8999996446073 1789
18.9199996441603 1802
18.9399996437132 1704
18.9599996432662 1671
18.9799996428192 1737
18.9999996423721 1698
19.0199996419251 1761
19.0399996414781 1725
19.059999641031 1718
19.079999640584 1750
19.099999640137 1662
19.1199996396899 1726
19.1399996392429 1760
19.1599996387959 1731
19.1799996383488 1708
19.1999996379018 1662
19.2199996374547 1745
19.2399996370077 1725
19.2599996365607 1739
19.2799996361136 1737
19.2999996356666 1733
19.3199996352196 1673
19.3399996347725 1813
19.3599996343255 1785
19.3799996338785 1761
19.3999996334314 1778
19.4199996329844 1747
19.4399996325374 1668
19.4599996320903 1751
19.4799996316433 1726
19.4999996311963 1730
19.5199996307492 1701
19.5399996303022 1775
19.5599996298552 1726
19.5799996294081 1767
19.5999996289611 1680
19.6199996285141 1722
19.639999628067 1734
19.65999962762 1757
19.6799996271729 1732
19.6999996267259 1757
19.7199996262789 1795
19.7399996258318 1772
19.7599996253848 1726
19.7799996249378 1738
19.7999996244907 1767
19.8199996240437 1818
19.8399996235967 1732
19.8599996231496 1754
19.8799996227026 1710
19.8999996222556 1806
19.9199996218085 1818
19.9399996213615 1777
19.9599996209145 1786
19.9799996204674 1742
19.9999996200204 1750
