3 1768
3.01999999955297 1654
3.03999999910593 1508
3.0599999986589 1358
3.07999999821186 1359
3.09999999776483 1265
3.11999999731779 1239
3.13999999687076 1185
3.15999999642372 1269
3.17999999597669 1217
3.19999999552965 1107
3.21999999508262 1147
3.23999999463558 1050
3.25999999418855 1104
3.27999999374151 1080
3.29999999329448 1102
3.31999999284744 1102
3.33999999240041 1034
3.35999999195337 1053
3.37999999150634 1020
3.3999999910593 1017
3.41999999061227 1009
3.43999999016523 1001
3.4599999897182 1009
3.47999998927116 970
3.49999998882413 998
3.51999998837709 996
3.53999998793006 954
3.55999998748302 973
3.57999998703599 935
3.59999998658895 972
3.61999998614192 917
3.63999998569489 961
3.65999998524785 939
3.67999998480082 911
3.69999998435378 890
3.71999998390675 892
3.73999998345971 927
3.75999998301268 864
3.77999998256564 879
3.79999998211861 856
3.81999998167157 847
3.83999998122454 824
3.8599999807775 854
3.87999998033047 861
3.89999997988343 862
3.9199999794364 793
3.93999997898936 814
3.95999997854233 862
3.97999997809529 824
3.99999997764826 812
4.01999997720122 830
4.03999997675419 823
4.05999997630715 762
4.07999997586012 763
4.09999997541308 787
4.11999997496605 772
4.13999997451901 789
4.15999997407198 787
4.17999997362494 744
4.19999997317791 748
4.21999997273087 790
4.23999997228384 759
4.25999997183681 748
4.27999997138977 764
4.29999997094274 733
4.3199999704957 784
4.33999997004867 716
4.35999996960163 668
4.3799999691546 684
4.39999996870756 755
4.41999996826053 704
4.43999996781349 760
4.45999996736646 743
4.47999996691942 727
4.49999996647239 681
4.51999996602535 715
4.53999996557832 699
4.55999996513128 682
4.57999996468425 668
4.59999996423721 717
4.61999996379018 660
4.63999996334314 675
4.65999996289611 645
4.67999996244907 652
4.69999996200204 663
4.719999961555 666
4.73999996110797 678
4.75999996066093 658
4.7799999602139 690
4.79999995976686 667
4.81999995931983 667
4.83999995887279 666
4.85999995842576 716
4.87999995797873 698
4.89999995753169 710
4.91999995708466 665
4.93999995663762 697
4.95999995619059 641
4.97999995574355 664
4.99999995529652 690
5.01999995484948 692
5.03999995440245 673
5.05999995395541 668
5.07999995350838 718
5.09999995306134 712
5.11999995261431 673
5.13999995216727 741
5.15999995172024 718
5.1799999512732 756
5.19999995082617 724
5.21999995037913 729
5.2399999499321 771
5.25999994948506 815
5.27999994903803 748
5.29999994859099 745
5.31999994814396 765
5.33999994769692 797
5.35999994724989 803
5.37999994680285 846
5.39999994635582 881
5.41999994590878 882
5.43999994546175 904
5.45999994501471 905
5.47999994456768 897
5.49999994412065 940
5.51999994367361 944
5.53999994322658 989
5.55999994277954 1006
5.57999994233251 1006
5.59999994188547 1105
5.61999994143844 1117
5.6399999409914 1084
5.65999994054437 1035
5.67999994009733 1066
5.6999999396503 1092
5.71999993920326 1130
5.73999993875623 1125
5.75999993830919 1123
5.77999993786216 1149
5.79999993741512 1201
5.81999993696809 1203
5.83999993652105 1164
5.85999993607402 1168
5.87999993562698 1130
5.89999993517995 1147
5.91999993473291 1175
5.93999993428588 1156
5.95999993383884 1129
5.97999993339181 1179
5.99999993294477 1115
6.01999993249774 1131
6.0399999320507 1014
6.05999993160367 1065
6.07999993115663 1062
6.0999999307096 1007
6.11999993026257 934
6.13999992981553 931
6.1599999293685 947
6.17999992892146 917
6.19999992847443 882
6.21999992802739 854
6.23999992758036 896
6.25999992713332 868
6.27999992668629 856
6.29999992623925 818
6.31999992579222 808
6.33999992534518 783
6.35999992489815 811
6.37999992445111 835
6.39999992400408 800
6.41999992355704 781
6.43999992311001 779
6.45999992266297 736
6.47999992221594 730
6.4999999217689 734
6.51999992132187 700
6.53999992087483 750
6.5599999204278 716
6.57999991998076 730
6.59999991953373 727
6.61999991908669 706
6.63999991863966 747
6.65999991819262 724
6.67999991774559 800
6.69999991729855 732
6.71999991685152 735
6.73999991640449 727
6.75999991595745 729
6.77999991551042 682
6.79999991506338 752
6.81999991461635 685
6.83999991416931 738
6.85999991372228 696
6.87999991327524 709
6.89999991282821 702
6.91999991238117 717
6.93999991193414 694
6.9599999114871 701
6.97999991104007 736
6.99999991059303 714
7.019999910146 723
7.03999990969896 715
7.05999990925193 767
7.07999990880489 701
7.09999990835786 734
7.11999990791082 710
7.13999990746379 701
7.15999990701675 687
7.17999990656972 731
7.19999990612268 756
7.21999990567565 689
7.23999990522861 735
7.25999990478158 704
7.27999990433454 699
7.29999990388751 766
7.31999990344047 710
7.33999990299344 762
7.35999990254641 731
7.37999990209937 701
7.39999990165234 728
7.4199999012053 762
7.43999990075827 723
7.45999990031123 697
7.4799998998642 762
7.49999989941716 759
7.51999989897013 711
7.53999989852309 704
7.55999989807606 685
7.57999989762902 749
7.59999989718199 659
7.61999989673495 676
7.63999989628792 710
7.65999989584088 682
7.67999989539385 718
7.69999989494681 668
7.71999989449978 706
7.73999989405274 693
7.75999989360571 662
7.77999989315867 673
7.79999989271164 657
7.8199998922646 628
7.83999989181757 615
7.85999989137053 635
7.8799998909235 668
7.89999989047646 678
7.91999989002943 647
7.9399998895824 649
7.95999988913536 679
7.97999988868833 632
7.99999988824129 632
8.01999988779426 624
8.03999988734722 637
8.05999988690019 616
8.07999988645315 604
8.09999988600612 600
8.11999988555908 575
8.13999988511205 607
8.15999988466501 600
8.17999988421798 591
8.19999988377094 615
8.21999988332391 569
8.23999988287687 578
8.25999988242984 568
8.2799998819828 571
8.29999988153577 589
8.31999988108873 638
8.3399998806417 576
8.35999988019466 613
8.37999987974763 585
8.39999987930059 541
8.41999987885356 579
8.43999987840652 560
8.45999987795949 565
8.47999987751245 576
8.49999987706542 574
8.51999987661839 540
8.53999987617135 563
8.55999987572432 585
8.57999987527728 577
8.59999987483025 548
8.61999987438321 565
8.63999987393618 579
8.65999987348914 576
8.67999987304211 575
8.69999987259507 535
8.71999987214804 527
8.739999871701 568
8.75999987125397 534
8.77999987080693 545
8.7999998703599 535
8.81999986991286 519
8.83999986946583 494
8.85999986901879 537
8.87999986857176 541
8.89999986812472 529
8.91999986767769 543
8.93999986723065 538
8.95999986678362 537
8.97999986633658 520
8.99999986588955 514
9.01999986544251 499
9.03999986499548 532
9.05999986454844 509
9.07999986410141 523
9.09999986365438 573
9.11999986320734 522
9.13999986276031 544
9.15999986231327 532
9.17999986186624 559
9.1999998614192 553
9.21999986097217 533
9.23999986052513 552
9.2599998600781 584
9.27999985963106 555
9.29999985918403 546
9.31999985873699 548
9.33999985828996 592
9.35999985784292 558
9.37999985739589 590
9.39999985694885 565
9.41999985650182 524
9.43999985605478 595
9.45999985560775 604
9.47999985516071 579
9.49999985471368 585
9.51999985426664 578
9.53999985381961 589
9.55999985337257 605
9.57999985292554 617
9.5999998524785 641
9.61999985203147 607
9.63999985158443 647
9.6599998511374 602
9.67999985069037 577
9.69999985024333 592
9.7199998497963 615
9.73999984934926 537
9.75999984890223 585
9.77999984845519 542
9.79999984800816 559
9.81999984756112 538
9.83999984711409 496
9.85999984666705 550
9.87999984622002 548
9.89999984577298 457
9.91999984532595 545
9.93999984487891 521
9.95999984443188 508
9.97999984398484 479
9.99999984353781 514
10.0199998430908 487
10.0399998426437 503
10.0599998421967 481
10.0799998417497 478
10.0999998413026 526
10.1199998408556 517
10.1399998404086 481
10.1599998399615 496
10.1799998395145 494
10.1999998390675 484
10.2199998386204 502
10.2399998381734 482
10.2599998377264 527
10.2799998372793 489
10.2999998368323 517
10.3199998363853 482
10.3399998359382 486
10.3599998354912 503
10.3799998350441 541
10.3999998345971 478
10.4199998341501 493
10.439999833703 503
10.459999833256 518
10.479999832809 522
10.4999998323619 480
10.5199998319149 524
10.5399998314679 532
10.5599998310208 522
10.5799998305738 479
10.5999998301268 453
10.6199998296797 481
10.6399998292327 481
10.6599998287857 507
10.6799998283386 446
10.6999998278916 524
10.7199998274446 508
10.7399998269975 483
10.7599998265505 509
10.7799998261034 506
10.7999998256564 510
10.8199998252094 505
10.8399998247623 549
10.8599998243153 525
10.8799998238683 524
10.8999998234212 529
10.9199998229742 541
10.9399998225272 509
10.9599998220801 544
10.9799998216331 495
10.9999998211861 525
11.019999820739 531
11.039999820292 502
11.059999819845 543
11.0799998193979 508
11.0999998189509 551
11.1199998185039 550
11.1399998180568 550
11.1599998176098 529
11.1799998171628 550
11.1999998167157 524
11.2199998162687 568
11.2399998158216 514
11.2599998153746 523
11.2799998149276 521
11.2999998144805 531
11.3199998140335 530
11.3399998135865 469
11.3599998131394 519
11.3799998126924 486
11.3999998122454 529
11.4199998117983 503
11.4399998113513 512
11.4599998109043 555
11.4799998104572 529
11.4999998100102 498
11.5199998095632 496
11.5399998091161 511
11.5599998086691 526
11.5799998082221 481
11.599999807775 479
11.619999807328 492
11.639999806881 518
11.6599998064339 471
11.6799998059869 503
11.6999998055398 494
11.7199998050928 461
11.7399998046458 514
11.7599998041987 501
11.7799998037517 499
11.7999998033047 509
11.8199998028576 509
11.8399998024106 521
11.8599998019636 521
11.8799998015165 478
11.8999998010695 512
11.9199998006225 489
11.9399998001754 485
11.9599997997284 470
11.9799997992814 502
11.9999997988343 482
12.0199997983873 540
12.0399997979403 514
12.0599997974932 491
12.0799997970462 482
12.0999997965992 478
12.1199997961521 490
12.1399997957051 451
12.159999795258 496
12.179999794811 466
12.199999794364 483
12.2199997939169 507
12.2399997934699 465
12.2599997930229 527
12.2799997925758 493
12.2999997921288 492
12.3199997916818 474
12.3399997912347 492
12.3599997907877 486
12.3799997903407 505
12.3999997898936 443
12.4199997894466 501
12.4399997889996 470
12.4599997885525 501
12.4799997881055 494
12.4999997876585 433
12.5199997872114 491
12.5399997867644 457
12.5599997863173 494
12.5799997858703 489
12.5999997854233 466
12.6199997849762 457
12.6399997845292 456
12.6599997840822 451
12.6799997836351 490
12.6999997831881 464
12.7199997827411 489
12.739999782294 435
12.759999781847 458
12.7799997814 448
12.7999997809529 427
12.8199997805059 409
12.8399997800589 477
12.8599997796118 469
12.8799997791648 463
12.8999997787178 498
12.9199997782707 434
12.9399997778237 440
12.9599997773767 461
12.9799997769296 475
12.9999997764826 484
13.0199997760355 506
13.0399997755885 420
13.0599997751415 454
13.0799997746944 479
13.0999997742474 451
13.1199997738004 475
13.1399997733533 450
13.1599997729063 488
13.1799997724593 470
13.1999997720122 467
13.2199997715652 467
13.2399997711182 482
13.2599997706711 460
13.2799997702241 469
13.2999997697771 468
13.31999976933 446
13.339999768883 474
13.359999768436 421
13.3799997679889 450
13.3999997675419 439
13.4199997670949 455
13.4399997666478 464
13.4599997662008 463
13.4799997657537 480
13.4999997653067 441
13.5199997648597 498
13.5399997644126 454
13.5599997639656 475
13.5799997635186 456
13.5999997630715 489
13.6199997626245 463
13.6399997621775 485
13.6599997617304 463
13.6799997612834 465
13.6999997608364 502
13.7199997603893 468
13.7399997599423 497
13.7599997594953 462
13.7799997590482 467
13.7999997586012 477
13.8199997581542 464
13.8399997577071 441
13.8599997572601 475
13.879999756813 494
13.899999756366 491
13.919999755919 501
13.9399997554719 483
13.9599997550249 477
13.9799997545779 496
13.9999997541308 483
14.0199997536838 494
14.0399997532368 517
14.0599997527897 478
14.0799997523427 521
14.0999997518957 507
14.1199997514486 476
14.1399997510016 472
14.1599997505546 497
14.1799997501075 481
14.1999997496605 496
14.2199997492135 474
14.2399997487664 507
14.2599997483194 527
14.2799997478724 487
14.2999997474253 495
14.3199997469783 499
14.3399997465312 519
14.3599997460842 464
14.3799997456372 537
14.3999997451901 521
14.4199997447431 511
14.4399997442961 516
14.459999743849 516
14.479999743402 579
14.499999742955 535
14.5199997425079 535
14.5399997420609 531
14.5599997416139 486
14.5799997411668 482
14.5999997407198 526
14.6199997402728 485
14.6399997398257 531
14.6599997393787 581
14.6799997389317 527
14.6999997384846 541
14.7199997380376 565
14.7399997375906 523
14.7599997371435 518
14.7799997366965 532
14.7999997362494 547
14.8199997358024 477
14.8399997353554 535
14.8599997349083 540
14.8799997344613 538
14.8999997340143 542
14.9199997335672 493
14.9399997331202 536
14.9599997326732 531
14.9799997322261 527
14.9999997317791 492
15.0199997313321 545
15.039999730885 472
15.059999730438 503
15.079999729991 535
15.0999997295439 511
15.1199997290969 535
15.1399997286499 574
15.1599997282028 530
15.1799997277558 567
15.1999997273088 590
15.2199997268617 550
15.2399997264147 580
15.2599997259676 538
15.2799997255206 550
15.2999997250736 525
15.3199997246265 542
15.3399997241795 534
15.3599997237325 548
15.3799997232854 548
15.3999997228384 563
15.4199997223914 533
15.4399997219443 491
15.4599997214973 518
15.4799997210503 575
15.4999997206032 529
15.5199997201562 534
15.5399997197092 499
15.5599997192621 523
15.5799997188151 564
15.5999997183681 530
15.619999717921 582
15.639999717474 562
15.659999717027 551
15.6799997165799 556
15.6999997161329 595
15.7199997156858 542
15.7399997152388 552
15.7599997147918 546
15.7799997143447 523
15.7999997138977 580
15.8199997134507 589
15.8399997130036 597
15.8599997125566 563
15.8799997121096 540
15.8999997116625 568
15.9199997112155 588
15.9399997107685 599
15.9599997103214 583
15.9799997098744 542
15.9999997094274 577
16.0199997089803 610
16.0399997085333 554
16.0599997080863 586
16.0799997076392 596
16.0999997071922 582
16.1199997067451 607
16.1399997062981 544
16.1599997058511 569
16.179999705404 582
16.199999704957 589
16.21999970451 615
16.2399997040629 565
16.2599997036159 597
16.2799997031689 568
16.2999997027218 559
16.3199997022748 584
16.3399997018278 622
16.3599997013807 575
16.3799997009337 588
16.3999997004867 628
16.4199997000396 588
16.4399996995926 619
16.4599996991456 601
16.4799996986985 604
16.4999996982515 584
16.5199996978045 664
16.5399996973574 644
16.5599996969104 624
16.5799996964633 617
16.5999996960163 649
16.6199996955693 591
16.6399996951222 648
16.6599996946752 610
16.6799996942282 644
16.6999996937811 628
16.7199996933341 646
16.7399996928871 595
16.75999969244 603
16.779999691993 628
16.799999691546 630
16.8199996910989 685
16.8399996906519 617
16.8599996902049 631
16.8799996897578 610
16.8999996893108 666
16.9199996888638 633
16.9399996884167 681
16.9599996879697 715
16.9799996875226 665
16.9999996870756 660
17.0199996866286 705
17.0399996861815 712
17.0599996857345 663
17.0799996852875 657
17.0999996848404 674
17.1199996843934 694
17.1399996839464 634
17.1599996834993 686
17.1799996830523 714
17.1999996826053 700
17.2199996821582 733
17.2399996817112 731
17.2599996812642 690
17.2799996808171 692
17.2999996803701 689
17.3199996799231 763
17.339999679476 668
17.359999679029 685
17.379999678582 725
17.3999996781349 668
17.4199996776879 721
17.4399996772408 644
17.4599996767938 731
17.4799996763468 723
17.4999996758997 656
17.5199996754527 733
17.5399996750057 690
17.5599996745586 726
17.5799996741116 731
17.5999996736646 662
17.6199996732175 685
17.6399996727705 691
17.6599996723235 667
17.6799996718764 736
17.6999996714294 745
17.7199996709824 705
17.7399996705353 716
17.7599996700883 763
17.7799996696413 696
17.7999996691942 784
17.8199996687472 752
17.8399996683002 716
17.8599996678531 741
17.8799996674061 770
17.899999666959 729
17.919999666512 754
17.939999666065 750
17.9599996656179 701
17.9799996651709 754
17.9999996647239 737
18.0199996642768 751
18.0399996638298 715
18.0599996633828 767
18.0799996629357 735
18.0999996624887 730
18.1199996620417 724
18.1399996615946 747
18.1599996611476 755
18.1799996607006 728
18.1999996602535 733
18.2199996598065 758
18.2399996593595 735
18.2599996589124 767
18.2799996584654 759
18.2999996580184 797
18.3199996575713 763
18.3399996571243 760
18.3599996566772 755
18.3799996562302 764
18.3999996557832 787
18.4199996553361 829
18.4399996548891 774
18.4599996544421 748
18.479999653995 831
18.499999653548 765
18.519999653101 857
18.5399996526539 810
18.5599996522069 823
18.5799996517599 782
18.5999996513128 819
18.6199996508658 781
18.6399996504188 825
18.6599996499717 795
18.6799996495247 771
18.6999996490777 818
18.7199996486306 742
18.7399996481836 778
18.7599996477366 821
18.7799996472895 829
18.7999996468425 825
18.8199996463954 822
18.8399996459484 831
18.8599996455014 797
18.8799996450543 826
18.8999996446073 858
18.9199996441603 854
18.9399996437132 871
18.9599996432662 857
18.9799996428192 855
18.9999996423721 897
19.0199996419251 894
19.0399996414781 802
19.059999641031 850
19.079999640584 852
19.099999640137 842
19.1199996396899 877
19.1399996392429 905
19.1599996387959 880
19.1799996383488 891
19.1999996379018 912
19.2199996374547 935
19.2399996370077 893
19.2599996365607 849
19.2799996361136 860
19.2999996356666 921
19.3199996352196 934
19.3399996347725 935
19.3599996343255 909
19.3799996338785 917
19.3999996334314 918
19.4199996329844 955
19.4399996325374 902
19.4599996320903 930
19.4799996316433 950
19.4999996311963 937
19.5199996307492 966
19.5399996303022 961
19.5599996298552 910
19.5799996294081 920
19.5999996289611 905
19.6199996285141 918
19.639999628067 905
19.65999962762 948
19.6799996271729 919
19.6999996267259 961
19.7199996262789 923
19.7399996258318 966
19.7599996253848 983
19.7799996249378 1000
19.7999996244907 947
19.8199996240437 982
19.8399996235967 994
19.8599996231496 956
19.8799996227026 969
19.8999996222556 967
19.9199996218085 952
19.9399996213615 943
19.9599996209145 920
19.9799996204674 939
19.9999996200204 959
