3 1876
3.01999999955297 1648
3.03999999910593 1545
3.0599999986589 1495
3.07999999821186 1347
3.09999999776483 1338
3.11999999731779 1281
3.13999999687076 1224
3.15999999642372 1217
3.17999999597669 1243
3.19999999552965 1128
3.21999999508262 1105
3.23999999463558 1160
3.25999999418855 1163
3.27999999374151 1114
3.29999999329448 1039
3.31999999284744 1131
3.33999999240041 1006
3.35999999195337 1048
3.37999999150634 1045
3.3999999910593 950
3.41999999061227 1021
3.43999999016523 1035
3.4599999897182 985
3.47999998927116 986
3.49999998882413 1017
3.51999998837709 933
3.53999998793006 959
3.55999998748302 979
3.57999998703599 915
3.59999998658895 890
3.61999998614192 964
3.63999998569489 886
3.65999998524785 958
3.67999998480082 883
3.69999998435378 899
3.71999998390675 902
3.73999998345971 844
3.75999998301268 882
3.77999998256564 856
3.79999998211861 855
3.81999998167157 871
3.83999998122454 779
3.8599999807775 781
3.87999998033047 793
3.89999997988343 817
3.9199999794364 773
3.93999997898936 764
3.95999997854233 766
3.97999997809529 778
3.99999997764826 783
4.01999997720122 747
4.03999997675419 747
4.05999997630715 738
4.07999997586012 717
4.09999997541308 731
4.11999997496605 676
4.13999997451901 758
4.15999997407198 712
4.17999997362494 691
4.19999997317791 699
4.21999997273087 714
4.23999997228384 683
4.25999997183681 688
4.27999997138977 695
4.29999997094274 672
4.3199999704957 608
4.33999997004867 683
4.35999996960163 672
4.3799999691546 665
4.39999996870756 704
4.41999996826053 649
4.43999996781349 653
4.45999996736646 631
4.47999996691942 629
4.49999996647239 654
4.51999996602535 678
4.53999996557832 584
4.55999996513128 606
4.57999996468425 585
4.59999996423721 635
4.61999996379018 594
4.63999996334314 602
4.65999996289611 550
4.67999996244907 599
4.69999996200204 549
4.719999961555 615
4.73999996110797 596
4.75999996066093 598
4.7799999602139 580
4.79999995976686 535
4.81999995931983 588
4.83999995887279 554
4.85999995842576 539
4.87999995797873 539
4.89999995753169 586
4.91999995708466 551
4.93999995663762 535
4.95999995619059 539
4.97999995574355 534
4.99999995529652 567
5.01999995484948 564
5.03999995440245 535
5.05999995395541 521
5.07999995350838 545
5.09999995306134 533
5.11999995261431 563
5.13999995216727 505
5.15999995172024 496
5.1799999512732 525
5.19999995082617 515
5.21999995037913 484
5.2399999499321 498
5.25999994948506 539
5.27999994903803 539
5.29999994859099 530
5.31999994814396 495
5.33999994769692 518
5.35999994724989 480
5.37999994680285 509
5.39999994635582 498
5.41999994590878 508
5.43999994546175 483
5.45999994501471 520
5.47999994456768 497
5.49999994412065 527
5.51999994367361 533
5.53999994322658 494
5.55999994277954 525
5.57999994233251 503
5.59999994188547 507
5.61999994143844 480
5.6399999409914 521
5.65999994054437 504
5.67999994009733 501
5.6999999396503 516
5.71999993920326 558
5.73999993875623 501
5.75999993830919 511
5.77999993786216 489
5.79999993741512 478
5.81999993696809 487
5.83999993652105 503
5.85999993607402 521
5.87999993562698 475
5.89999993517995 498
5.91999993473291 476
5.93999993428588 493
5.95999993383884 525
5.97999993339181 508
5.99999993294477 491
6.01999993249774 491
6.0399999320507 483
6.05999993160367 460
6.07999993115663 489
6.0999999307096 473
6.11999993026257 460
6.13999992981553 511
6.1599999293685 490
6.17999992892146 470
6.19999992847443 469
6.21999992802739 469
6.23999992758036 494
6.25999992713332 493
6.27999992668629 473
6.29999992623925 482
6.31999992579222 495
6.33999992534518 490
6.35999992489815 502
6.37999992445111 517
6.39999992400408 461
6.41999992355704 472
6.43999992311001 472
6.45999992266297 458
6.47999992221594 471
6.4999999217689 455
6.51999992132187 490
6.53999992087483 508
6.5599999204278 492
6.57999991998076 497
6.59999991953373 461
6.61999991908669 514
6.63999991863966 472
6.65999991819262 483
6.67999991774559 502
6.69999991729855 478
6.71999991685152 441
6.73999991640449 471
6.75999991595745 504
6.77999991551042 470
6.79999991506338 465
6.81999991461635 479
6.83999991416931 469
6.85999991372228 475
6.87999991327524 486
6.89999991282821 486
6.91999991238117 439
6.93999991193414 496
6.9599999114871 486
6.97999991104007 466
6.99999991059303 491
7.019999910146 499
7.03999990969896 505
7.05999990925193 443
7.07999990880489 471
7.09999990835786 479
7.11999990791082 461
7.13999990746379 485
7.15999990701675 507
7.17999990656972 482
7.19999990612268 507
7.21999990567565 489
7.23999990522861 472
7.25999990478158 465
7.27999990433454 464
7.29999990388751 490
7.31999990344047 459
7.33999990299344 471
7.35999990254641 516
7.37999990209937 477
7.39999990165234 458
7.4199999012053 457
7.43999990075827 488
7.45999990031123 487
7.4799998998642 452
7.49999989941716 470
7.51999989897013 467
7.53999989852309 482
7.55999989807606 459
7.57999989762902 438
7.59999989718199 509
7.61999989673495 487
7.63999989628792 508
7.65999989584088 469
7.67999989539385 446
7.69999989494681 490
7.71999989449978 470
7.73999989405274 437
7.75999989360571 484
7.77999989315867 429
7.79999989271164 501
7.8199998922646 453
7.83999989181757 454
7.85999989137053 441
7.8799998909235 450
7.89999989047646 507
7.91999989002943 482
7.9399998895824 425
7.95999988913536 443
7.97999988868833 478
7.99999988824129 451
8.01999988779426 469
8.03999988734722 450
8.05999988690019 466
8.07999988645315 452
8.09999988600612 451
8.11999988555908 442
8.13999988511205 484
8.15999988466501 446
8.17999988421798 466
8.19999988377094 486
8.21999988332391 443
8.23999988287687 459
8.25999988242984 446
8.2799998819828 453
8.29999988153577 460
8.31999988108873 458
8.3399998806417 467
8.35999988019466 489
8.37999987974763 482
8.39999987930059 443
8.41999987885356 449
8.43999987840652 449
8.45999987795949 470
8.47999987751245 481
8.49999987706542 453
8.51999987661839 472
8.53999987617135 470
8.55999987572432 475
8.57999987527728 468
8.59999987483025 468
8.61999987438321 461
8.63999987393618 482
8.65999987348914 480
8.67999987304211 473
8.69999987259507 493
8.71999987214804 494
8.739999871701 504
8.75999987125397 500
8.77999987080693 548
8.7999998703599 503
8.81999986991286 490
8.83999986946583 533
8.85999986901879 557
8.87999986857176 548
8.89999986812472 569
8.91999986767769 593
8.93999986723065 627
8.95999986678362 606
8.97999986633658 634
8.99999986588955 644
9.01999986544251 679
9.03999986499548 723
9.05999986454844 722
9.07999986410141 796
9.09999986365438 798
9.11999986320734 835
9.13999986276031 923
9.15999986231327 912
9.17999986186624 985
9.1999998614192 995
9.21999986097217 1032
9.23999986052513 1161
9.2599998600781 1184
9.27999985963106 1163
9.29999985918403 1163
9.31999985873699 1062
9.33999985828996 1070
9.35999985784292 994
9.37999985739589 932
9.39999985694885 853
9.41999985650182 829
9.43999985605478 726
9.45999985560775 693
9.47999985516071 719
9.49999985471368 591
9.51999985426664 565
9.53999985381961 568
9.55999985337257 539
9.57999985292554 520
9.5999998524785 535
9.61999985203147 520
9.63999985158443 516
9.6599998511374 505
9.67999985069037 506
9.69999985024333 519
9.7199998497963 542
9.73999984934926 574
9.75999984890223 507
9.77999984845519 523
9.79999984800816 546
9.81999984756112 522
9.83999984711409 554
9.85999984666705 554
9.87999984622002 543
9.89999984577298 579
9.91999984532595 635
9.93999984487891 599
9.95999984443188 659
9.97999984398484 677
9.99999984353781 683
10.0199998430908 724
10.0399998426437 753
10.0599998421967 751
10.0799998417497 783
10.0999998413026 824
10.1199998408556 796
10.1399998404086 811
10.1599998399615 806
10.1799998395145 806
10.1999998390675 759
10.2199998386204 661
10.2399998381734 637
10.2599998377264 618
10.2799998372793 601
10.2999998368323 574
10.3199998363853 548
10.3399998359382 492
10.3599998354912 460
10.3799998350441 461
10.3999998345971 489
10.4199998341501 469
10.439999833703 470
10.459999833256 440
10.479999832809 450
10.4999998323619 425
10.5199998319149 449
10.5399998314679 444
10.5599998310208 419
10.5799998305738 414
10.5999998301268 385
10.6199998296797 428
10.6399998292327 440
10.6599998287857 412
10.6799998283386 418
10.6999998278916 405
10.7199998274446 398
10.7399998269975 393
10.7599998265505 410
10.7799998261034 406
10.7999998256564 426
10.8199998252094 415
10.8399998247623 430
10.8599998243153 389
10.8799998238683 416
10.8999998234212 441
10.9199998229742 404
10.9399998225272 389
10.9599998220801 396
10.9799998216331 400
10.9999998211861 429
11.019999820739 391
11.039999820292 367
11.059999819845 412
11.0799998193979 398
11.0999998189509 382
11.1199998185039 373
11.1399998180568 391
11.1599998176098 419
11.1799998171628 442
11.1999998167157 410
11.2199998162687 433
11.2399998158216 415
11.2599998153746 406
11.2799998149276 417
11.2999998144805 406
11.3199998140335 424
11.3399998135865 418
11.3599998131394 394
11.3799998126924 422
11.3999998122454 428
11.4199998117983 421
11.4399998113513 426
11.4599998109043 464
11.4799998104572 403
11.4999998100102 440
11.5199998095632 432
11.5399998091161 450
11.5599998086691 405
11.5799998082221 408
11.599999807775 405
11.619999807328 431
11.639999806881 356
11.6599998064339 393
11.6799998059869 368
11.6999998055398 429
11.7199998050928 389
11.7399998046458 373
11.7599998041987 372
11.7799998037517 426
11.7999998033047 375
11.8199998028576 445
11.8399998024106 367
11.8599998019636 379
11.8799998015165 374
11.8999998010695 358
11.9199998006225 387
11.9399998001754 392
11.9599997997284 404
11.9799997992814 362
11.9999997988343 385
12.0199997983873 408
12.0399997979403 373
12.0599997974932 386
12.0799997970462 335
12.0999997965992 382
12.1199997961521 383
12.1399997957051 417
12.159999795258 391
12.179999794811 411
12.199999794364 372
12.2199997939169 367
12.2399997934699 412
12.2599997930229 379
12.2799997925758 381
12.2999997921288 405
12.3199997916818 341
12.3399997912347 377
12.3599997907877 403
12.3799997903407 392
12.3999997898936 388
12.4199997894466 368
12.4399997889996 374
12.4599997885525 391
12.4799997881055 398
12.4999997876585 371
12.5199997872114 355
12.5399997867644 409
12.5599997863173 428
12.5799997858703 403
12.5999997854233 416
12.6199997849762 440
12.6399997845292 430
12.6599997840822 428
12.6799997836351 485
12.6999997831881 456
12.7199997827411 462
12.739999782294 456
12.759999781847 500
12.7799997814 474
12.7999997809529 507
12.8199997805059 487
12.8399997800589 539
12.8599997796118 477
12.8799997791648 489
12.8999997787178 471
12.9199997782707 497
12.9399997778237 507
12.9599997773767 472
12.9799997769296 496
12.9999997764826 465
13.0199997760355 414
13.0399997755885 437
13.0599997751415 434
13.0799997746944 396
13.0999997742474 441
13.1199997738004 441
13.1399997733533 406
13.1599997729063 376
13.1799997724593 403
13.1999997720122 442
13.2199997715652 419
13.2399997711182 425
13.2599997706711 420
13.2799997702241 379
13.2999997697771 407
13.31999976933 414
13.339999768883 431
13.359999768436 409
13.3799997679889 399
13.3999997675419 421
13.4199997670949 410
13.4399997666478 420
13.4599997662008 414
13.4799997657537 387
13.4999997653067 438
13.5199997648597 440
13.5399997644126 386
13.5599997639656 403
13.5799997635186 424
13.5999997630715 356
13.6199997626245 434
13.6399997621775 402
13.6599997617304 416
13.6799997612834 402
13.6999997608364 413
13.7199997603893 372
13.7399997599423 413
13.7599997594953 394
13.7799997590482 382
13.7999997586012 366
13.8199997581542 388
13.8399997577071 413
13.8599997572601 391
13.879999756813 400
13.899999756366 408
13.919999755919 442
13.9399997554719 417
13.9599997550249 393
13.9799997545779 365
13.9999997541308 395
14.0199997536838 384
14.0399997532368 389
14.0599997527897 369
14.0799997523427 366
14.0999997518957 406
14.1199997514486 388
14.1399997510016 380
14.1599997505546 381
14.1799997501075 400
14.1999997496605 375
14.2199997492135 384
14.2399997487664 424
14.2599997483194 372
14.2799997478724 414
14.2999997474253 450
14.3199997469783 414
14.3399997465312 424
14.3599997460842 443
14.3799997456372 416
14.3999997451901 458
14.4199997447431 434
14.4399997442961 422
14.459999743849 443
14.479999743402 419
14.499999742955 426
14.5199997425079 415
14.5399997420609 399
14.5599997416139 379
14.5799997411668 383
14.5999997407198 383
14.6199997402728 433
14.6399997398257 386
14.6599997393787 378
14.6799997389317 395
14.6999997384846 398
14.7199997380376 389
14.7399997375906 374
14.7599997371435 390
14.7799997366965 389
14.7999997362494 418
14.8199997358024 405
14.8399997353554 369
14.8599997349083 368
14.8799997344613 411
14.8999997340143 430
14.9199997335672 384
14.9399997331202 406
14.9599997326732 411
14.9799997322261 401
14.9999997317791 429
15.0199997313321 395
15.039999730885 417
15.059999730438 380
15.079999729991 414
15.0999997295439 431
15.1199997290969 389
15.1399997286499 399
15.1599997282028 417
15.1799997277558 426
15.1999997273088 422
15.2199997268617 402
15.2399997264147 414
15.2599997259676 409
15.2799997255206 406
15.2999997250736 403
15.3199997246265 429
15.3399997241795 395
15.3599997237325 409
15.3799997232854 416
15.3999997228384 441
15.4199997223914 392
15.4399997219443 422
15.4599997214973 414
15.4799997210503 416
15.4999997206032 436
15.5199997201562 441
15.5399997197092 412
15.5599997192621 467
15.5799997188151 430
15.5999997183681 420
15.619999717921 387
15.639999717474 415
15.659999717027 402
15.6799997165799 418
15.6999997161329 414
15.7199997156858 425
15.7399997152388 393
15.7599997147918 469
15.7799997143447 448
15.7999997138977 422
15.8199997134507 407
15.8399997130036 426
15.8599997125566 447
15.8799997121096 412
15.8999997116625 423
15.9199997112155 443
15.9399997107685 426
15.9599997103214 433
15.9799997098744 429
15.9999997094274 452
16.0199997089803 414
16.0399997085333 431
16.0599997080863 430
16.0799997076392 432
16.0999997071922 438
16.1199997067451 423
16.1399997062981 436
16.1599997058511 413
16.179999705404 449
16.199999704957 433
16.21999970451 470
16.2399997040629 435
16.2599997036159 451
16.2799997031689 445
16.2999997027218 425
16.3199997022748 428
16.3399997018278 395
16.3599997013807 416
16.3799997009337 436
16.3999997004867 445
16.4199997000396 438
16.4399996995926 440
16.4599996991456 425
16.4799996986985 446
16.4999996982515 406
16.5199996978045 424
16.5399996973574 439
16.5599996969104 430
16.5799996964633 412
16.5999996960163 485
16.6199996955693 505
16.6399996951222 428
16.6599996946752 456
16.6799996942282 436
16.6999996937811 432
16.7199996933341 458
16.7399996928871 488
16.75999969244 464
16.779999691993 465
16.799999691546 486
16.8199996910989 435
16.8399996906519 459
16.8599996902049 464
16.8799996897578 507
16.8999996893108 520
16.9199996888638 538
16.9399996884167 539
16.9599996879697 538
16.9799996875226 563
16.9999996870756 561
17.0199996866286 593
17.0399996861815 579
17.0599996857345 535
17.0799996852875 530
17.0999996848404 552
17.1199996843934 542
17.1399996839464 587
17.1599996834993 547
17.1799996830523 567
17.1999996826053 568
17.2199996821582 550
17.2399996817112 518
17.2599996812642 491
17.2799996808171 511
17.2999996803701 490
17.3199996799231 493
17.339999679476 488
17.359999679029 471
17.379999678582 504
17.3999996781349 439
17.4199996776879 459
17.4399996772408 476
17.4599996767938 463
17.4799996763468 472
17.4999996758997 509
17.5199996754527 453
17.5399996750057 488
17.5599996745586 464
17.5799996741116 502
17.5999996736646 503
17.6199996732175 497
17.6399996727705 494
17.6599996723235 467
17.6799996718764 497
17.6999996714294 455
17.7199996709824 480
17.7399996705353 502
17.7599996700883 467
17.7799996696413 512
17.7999996691942 512
17.8199996687472 477
17.8399996683002 489
17.8599996678531 489
17.8799996674061 483
17.899999666959 538
17.919999666512 562
17.939999666065 489
17.9599996656179 453
17.9799996651709 499
17.9999996647239 494
18.0199996642768 478
18.0399996638298 506
18.0599996633828 466
18.0799996629357 540
18.0999996624887 555
18.1199996620417 534
18.1399996615946 525
18.1599996611476 513
18.1799996607006 491
18.1999996602535 517
18.2199996598065 512
18.2399996593595 498
18.2599996589124 521
18.2799996584654 511
18.2999996580184 510
18.3199996575713 525
18.3399996571243 575
18.3599996566772 573
18.3799996562302 587
18.3999996557832 561
18.4199996553361 596
18.4399996548891 570
18.4599996544421 569
18.479999653995 563
18.499999653548 590
18.519999653101 584
18.5399996526539 584
18.5599996522069 579
18.5799996517599 619
18.5999996513128 651
18.6199996508658 562
18.6399996504188 552
18.6599996499717 560
18.6799996495247 575
18.6999996490777 574
18.7199996486306 498
18.7399996481836 549
18.7599996477366 530
18.7799996472895 541
18.7999996468425 517
18.8199996463954 543
18.8399996459484 548
18.8599996455014 582
18.8799996450543 556
18.8999996446073 557
18.9199996441603 548
18.9399996437132 570
18.9599996432662 576
18.9799996428192 572
18.9999996423721 560
19.0199996419251 542
19.0399996414781 525
19.059999641031 516
19.079999640584 523
19.099999640137 508
19.1199996396899 532
19.1399996392429 556
19.1599996387959 541
19.1799996383488 545
19.1999996379018 570
19.2199996374547 559
19.2399996370077 574
19.2599996365607 554
19.2799996361136 554
19.2999996356666 581
19.3199996352196 528
19.3399996347725 548
19.3599996343255 545
19.3799996338785 520
19.3999996334314 573
19.4199996329844 582
19.4399996325374 525
19.4599996320903 598
19.4799996316433 541
19.4999996311963 560
19.5199996307492 578
19.5399996303022 554
19.5599996298552 584
19.5799996294081 569
19.5999996289611 590
19.6199996285141 576
19.639999628067 618
19.65999962762 565
19.6799996271729 606
19.6999996267259 554
19.7199996262789 574
19.7399996258318 584
19.7599996253848 615
19.7799996249378 627
19.7999996244907 602
19.8199996240437 597
19.8399996235967 609
19.8599996231496 602
19.8799996227026 645
19.8999996222556 648
19.9199996218085 672
19.9399996213615 588
19.9599996209145 575
19.9799996204674 633
19.9999996200204 641
