3 2391
3.01999999955297 2414
3.03999999910593 2111
3.0599999986589 2084
3.07999999821186 1999
3.09999999776483 1953
3.11999999731779 1849
3.13999999687076 1891
3.15999999642372 1787
3.17999999597669 1771
3.19999999552965 1710
3.21999999508262 1741
3.23999999463558 1688
3.25999999418855 1699
3.27999999374151 1650
3.29999999329448 1615
3.31999999284744 1598
3.33999999240041 1618
3.35999999195337 1608
3.37999999150634 1600
3.3999999910593 1613
3.41999999061227 1599
3.43999999016523 1575
3.4599999897182 1518
3.47999998927116 1593
3.49999998882413 1559
3.51999998837709 1558
3.53999998793006 1532
3.55999998748302 1496
3.57999998703599 1468
3.59999998658895 1453
3.61999998614192 1468
3.63999998569489 1492
3.65999998524785 1485
3.67999998480082 1400
3.69999998435378 1449
3.71999998390675 1504
3.73999998345971 1531
3.75999998301268 1468
3.77999998256564 1469
3.79999998211861 1440
3.81999998167157 1477
3.83999998122454 1400
3.8599999807775 1424
3.87999998033047 1404
3.89999997988343 1424
3.9199999794364 1408
3.93999997898936 1323
3.95999997854233 1472
3.97999997809529 1344
3.99999997764826 1415
4.01999997720122 1338
4.03999997675419 1330
4.05999997630715 1306
4.07999997586012 1383
4.09999997541308 1343
4.11999997496605 1269
4.13999997451901 1358
4.15999997407198 1371
4.17999997362494 1341
4.19999997317791 1326
4.21999997273087 1347
4.23999997228384 1318
4.25999997183681 1338
4.27999997138977 1370
4.29999997094274 1305
4.3199999704957 1367
4.33999997004867 1353
4.35999996960163 1380
4.3799999691546 1279
4.39999996870756 1286
4.41999996826053 1314
4.43999996781349 1327
4.45999996736646 1252
4.47999996691942 1264
4.49999996647239 1337
4.51999996602535 1246
4.53999996557832 1263
4.55999996513128 1303
4.57999996468425 1274
4.59999996423721 1264
4.61999996379018 1291
4.63999996334314 1293
4.65999996289611 1247
4.67999996244907 1354
4.69999996200204 1305
4.719999961555 1313
4.73999996110797 1267
4.75999996066093 1342
4.7799999602139 1230
4.79999995976686 1305
4.81999995931983 1296
4.83999995887279 1304
4.85999995842576 1241
4.87999995797873 1397
4.89999995753169 1325
4.91999995708466 1285
4.93999995663762 1345
4.95999995619059 1395
4.97999995574355 1368
4.99999995529652 1350
5.01999995484948 1366
5.03999995440245 1384
5.05999995395541 1388
5.07999995350838 1444
5.09999995306134 1392
5.11999995261431 1422
5.13999995216727 1424
5.15999995172024 1412
5.1799999512732 1402
5.19999995082617 1459
5.21999995037913 1441
5.2399999499321 1513
5.25999994948506 1552
5.27999994903803 1533
5.29999994859099 1563
5.31999994814396 1605
5.33999994769692 1645
5.35999994724989 1635
5.37999994680285 1651
5.39999994635582 1675
5.41999994590878 1627
5.43999994546175 1655
5.45999994501471 1665
5.47999994456768 1743
5.49999994412065 1789
5.51999994367361 1824
5.53999994322658 1797
5.55999994277954 1830
5.57999994233251 1796
5.59999994188547 1777
5.61999994143844 1864
5.6399999409914 1868
5.65999994054437 1836
5.67999994009733 1907
5.6999999396503 1816
5.71999993920326 1835
5.73999993875623 1823
5.75999993830919 1768
5.77999993786216 1748
5.79999993741512 1689
5.81999993696809 1651
5.83999993652105 1660
5.85999993607402 1657
5.87999993562698 1555
5.89999993517995 1555
5.91999993473291 1484
5.93999993428588 1409
5.95999993383884 1452
5.97999993339181 1360
5.99999993294477 1355
6.01999993249774 1248
6.0399999320507 1229
6.05999993160367 1297
6.07999993115663 1175
6.0999999307096 1178
6.11999993026257 1169
6.13999992981553 1262
6.1599999293685 1221
6.17999992892146 1140
6.19999992847443 1171
6.21999992802739 1182
6.23999992758036 1145
6.25999992713332 1103
6.27999992668629 1137
6.29999992623925 1098
6.31999992579222 1146
6.33999992534518 1077
6.35999992489815 1088
6.37999992445111 1112
6.39999992400408 1114
6.41999992355704 1146
6.43999992311001 1101
6.45999992266297 1002
6.47999992221594 1095
6.4999999217689 1064
6.51999992132187 1048
6.53999992087483 1085
6.5599999204278 1071
6.57999991998076 1011
6.59999991953373 1032
6.61999991908669 1074
6.63999991863966 1059
6.65999991819262 1081
6.67999991774559 1041
6.69999991729855 1071
6.71999991685152 1057
6.73999991640449 973
6.75999991595745 1048
6.77999991551042 1045
6.79999991506338 1047
6.81999991461635 1011
6.83999991416931 1026
6.85999991372228 964
6.87999991327524 1079
6.89999991282821 1001
6.91999991238117 1002
6.93999991193414 1045
6.9599999114871 991
6.97999991104007 1017
6.99999991059303 960
7.019999910146 1015
7.03999990969896 988
7.05999990925193 954
7.07999990880489 924
7.09999990835786 926
7.11999990791082 948
7.13999990746379 948
7.15999990701675 934
7.17999990656972 950
7.19999990612268 911
7.21999990567565 938
7.23999990522861 965
7.25999990478158 949
7.27999990433454 952
7.29999990388751 968
7.31999990344047 915
7.33999990299344 970
7.35999990254641 883
7.37999990209937 925
7.39999990165234 917
7.4199999012053 946
7.43999990075827 880
7.45999990031123 893
7.4799998998642 920
7.49999989941716 948
7.51999989897013 891
7.53999989852309 833
7.55999989807606 848
7.57999989762902 843
7.59999989718199 909
7.61999989673495 885
7.63999989628792 820
7.65999989584088 880
7.67999989539385 866
7.69999989494681 844
7.71999989449978 869
7.73999989405274 885
7.75999989360571 785
7.77999989315867 830
7.79999989271164 813
7.8199998922646 806
7.83999989181757 844
7.85999989137053 885
7.8799998909235 881
7.89999989047646 852
7.91999989002943 823
7.9399998895824 808
7.95999988913536 787
7.97999988868833 809
7.99999988824129 831
8.01999988779426 804
8.03999988734722 787
8.05999988690019 802
8.07999988645315 839
8.09999988600612 825
8.11999988555908 781
8.13999988511205 835
8.15999988466501 828
8.17999988421798 859
8.19999988377094 813
8.21999988332391 865
8.23999988287687 792
8.25999988242984 777
8.2799998819828 809
8.29999988153577 801
8.31999988108873 803
8.3399998806417 815
8.35999988019466 813
8.37999987974763 822
8.39999987930059 819
8.41999987885356 792
8.43999987840652 810
8.45999987795949 812
8.47999987751245 852
8.49999987706542 787
8.51999987661839 753
8.53999987617135 800
8.55999987572432 764
8.57999987527728 798
8.59999987483025 775
8.61999987438321 842
8.63999987393618 805
8.65999987348914 805
8.67999987304211 822
8.69999987259507 832
8.71999987214804 781
8.739999871701 785
8.75999987125397 826
8.77999987080693 812
8.7999998703599 812
8.81999986991286 825
8.83999986946583 792
8.85999986901879 805
8.87999986857176 849
8.89999986812472 794
8.91999986767769 814
8.93999986723065 756
8.95999986678362 838
8.97999986633658 827
8.99999986588955 810
9.01999986544251 784
9.03999986499548 814
9.05999986454844 819
9.07999986410141 879
9.09999986365438 828
9.11999986320734 872
9.13999986276031 879
9.15999986231327 908
9.17999986186624 939
9.1999998614192 938
9.21999986097217 891
9.23999986052513 926
9.2599998600781 959
9.27999985963106 928
9.29999985918403 978
9.31999985873699 1000
9.33999985828996 970
9.35999985784292 928
9.37999985739589 926
9.39999985694885 945
9.41999985650182 905
9.43999985605478 870
9.45999985560775 906
9.47999985516071 803
9.49999985471368 774
9.51999985426664 804
9.53999985381961 847
9.55999985337257 836
9.57999985292554 832
9.5999998524785 764
9.61999985203147 802
9.63999985158443 835
9.6599998511374 797
9.67999985069037 817
9.69999985024333 785
9.7199998497963 771
9.73999984934926 794
9.75999984890223 800
9.77999984845519 811
9.79999984800816 765
9.81999984756112 790
9.83999984711409 805
9.85999984666705 812
9.87999984622002 790
9.89999984577298 787
9.91999984532595 748
9.93999984487891 778
9.95999984443188 797
9.97999984398484 785
9.99999984353781 762
10.0199998430908 774
10.0399998426437 801
10.0599998421967 768
10.0799998417497 833
10.0999998413026 782
10.1199998408556 788
10.1399998404086 748
10.1599998399615 799
10.1799998395145 786
10.1999998390675 824
10.2199998386204 784
10.2399998381734 776
10.2599998377264 773
10.2799998372793 767
10.2999998368323 726
10.3199998363853 775
10.3399998359382 780
10.3599998354912 767
10.3799998350441 805
10.3999998345971 773
10.4199998341501 780
10.439999833703 792
10.459999833256 789
10.479999832809 723
10.4999998323619 733
10.5199998319149 758
10.5399998314679 780
10.5599998310208 790
10.5799998305738 774
10.5999998301268 784
10.6199998296797 774
10.6399998292327 750
10.6599998287857 779
10.6799998283386 783
10.6999998278916 812
10.7199998274446 862
10.7399998269975 840
10.7599998265505 762
10.7799998261034 870
10.7999998256564 811
10.8199998252094 926
10.8399998247623 890
10.8599998243153 864
10.8799998238683 898
10.8999998234212 858
10.9199998229742 840
10.9399998225272 862
10.9599998220801 839
10.9799998216331 867
10.9999998211861 847
11.019999820739 843
11.039999820292 905
11.059999819845 817
11.0799998193979 763
11.0999998189509 754
11.1199998185039 773
11.1399998180568 790
11.1599998176098 845
11.1799998171628 774
11.1999998167157 752
11.2199998162687 784
11.2399998158216 832
11.2599998153746 836
11.2799998149276 795
11.2999998144805 758
11.3199998140335 777
11.3399998135865 773
11.3599998131394 758
11.3799998126924 720
11.3999998122454 765
11.4199998117983 726
11.4399998113513 743
11.4599998109043 790
11.4799998104572 721
11.4999998100102 757
11.5199998095632 750
11.5399998091161 689
11.5599998086691 799
11.5799998082221 733
11.599999807775 779
11.619999807328 735
11.639999806881 771
11.6599998064339 678
11.6799998059869 760
11.6999998055398 713
11.7199998050928 760
11.7399998046458 737
11.7599998041987 771
11.7799998037517 807
11.7999998033047 764
11.8199998028576 720
11.8399998024106 743
11.8599998019636 732
11.8799998015165 775
11.8999998010695 733
11.9199998006225 727
11.9399998001754 709
11.9599997997284 720
11.9799997992814 684
11.9999997988343 767
12.0199997983873 707
12.0399997979403 748
12.0599997974932 719
12.0799997970462 690
12.0999997965992 747
12.1199997961521 759
12.1399997957051 769
12.159999795258 769
12.179999794811 773
12.199999794364 750
12.2199997939169 738
12.2399997934699 720
12.2599997930229 801
12.2799997925758 733
12.2999997921288 724
12.3199997916818 730
12.3399997912347 780
12.3599997907877 722
12.3799997903407 723
12.3999997898936 754
12.4199997894466 745
12.4399997889996 705
12.4599997885525 708
12.4799997881055 771
12.4999997876585 748
12.5199997872114 700
12.5399997867644 747
12.5599997863173 777
12.5799997858703 734
12.5999997854233 759
12.6199997849762 743
12.6399997845292 753
12.6599997840822 693
12.6799997836351 737
12.6999997831881 730
12.7199997827411 722
12.739999782294 709
12.759999781847 666
12.7799997814 678
12.7999997809529 774
12.8199997805059 744
12.8399997800589 718
12.8599997796118 747
12.8799997791648 706
12.8999997787178 725
12.9199997782707 740
12.9399997778237 777
12.9599997773767 747
12.9799997769296 751
12.9999997764826 740
13.0199997760355 785
13.0399997755885 717
13.0599997751415 740
13.0799997746944 699
13.0999997742474 726
13.1199997738004 697
13.1399997733533 689
13.1599997729063 694
13.1799997724593 749
13.1999997720122 733
13.2199997715652 764
13.2399997711182 742
13.2599997706711 749
13.2799997702241 748
13.2999997697771 755
13.31999976933 764
13.339999768883 734
13.359999768436 727
13.3799997679889 766
13.3999997675419 743
13.4199997670949 787
13.4399997666478 782
13.4599997662008 703
13.4799997657537 760
13.4999997653067 736
13.5199997648597 730
13.5399997644126 750
13.5599997639656 759
13.5799997635186 789
13.5999997630715 766
13.6199997626245 756
13.6399997621775 733
13.6599997617304 771
13.6799997612834 747
13.6999997608364 758
13.7199997603893 792
13.7399997599423 754
13.7599997594953 748
13.7799997590482 740
13.7999997586012 726
13.8199997581542 780
13.8399997577071 751
13.8599997572601 786
13.879999756813 813
13.899999756366 767
13.919999755919 767
13.9399997554719 742
13.9599997550249 737
13.9799997545779 770
13.9999997541308 813
14.0199997536838 838
14.0399997532368 792
14.0599997527897 839
14.0799997523427 767
14.0999997518957 718
14.1199997514486 778
14.1399997510016 729
14.1599997505546 771
14.1799997501075 825
14.1999997496605 820
14.2199997492135 817
14.2399997487664 837
14.2599997483194 777
14.2799997478724 796
14.2999997474253 762
14.3199997469783 805
14.3399997465312 804
14.3599997460842 805
14.3799997456372 825
14.3999997451901 822
14.4199997447431 830
14.4399997442961 830
14.459999743849 826
14.479999743402 815
14.499999742955 838
14.5199997425079 814
14.5399997420609 791
14.5599997416139 845
14.5799997411668 838
14.5999997407198 858
14.6199997402728 816
14.6399997398257 756
14.6599997393787 830
14.6799997389317 803
14.6999997384846 821
14.7199997380376 787
14.7399997375906 824
14.7599997371435 820
14.7799997366965 817
14.7999997362494 807
14.8199997358024 834
14.8399997353554 854
14.8599997349083 817
14.8799997344613 811
14.8999997340143 851
14.9199997335672 863
14.9399997331202 833
14.9599997326732 825
14.9799997322261 857
14.9999997317791 854
15.0199997313321 833
15.039999730885 838
15.059999730438 839
15.079999729991 853
15.0999997295439 867
15.1199997290969 857
15.1399997286499 819
15.1599997282028 865
15.1799997277558 808
15.1999997273088 860
15.2199997268617 801
15.2399997264147 860
15.2599997259676 904
15.2799997255206 853
15.2999997250736 896
15.3199997246265 792
15.3399997241795 915
15.3599997237325 854
15.3799997232854 889
15.3999997228384 840
15.4199997223914 845
15.4399997219443 859
15.4599997214973 884
15.4799997210503 873
15.4999997206032 883
15.5199997201562 823
15.5399997197092 873
15.5599997192621 884
15.5799997188151 885
15.5999997183681 889
15.619999717921 854
15.639999717474 874
15.659999717027 872
15.6799997165799 852
15.6999997161329 878
15.7199997156858 933
15.7399997152388 903
15.7599997147918 850
15.7799997143447 899
15.7999997138977 878
15.8199997134507 865
15.8399997130036 904
15.8599997125566 918
15.8799997121096 869
15.8999997116625 883
15.9199997112155 893
15.9399997107685 914
15.9599997103214 900
15.9799997098744 904
15.9999997094274 907
16.0199997089803 943
16.0399997085333 955
16.0599997080863 954
16.0799997076392 968
16.0999997071922 972
16.1199997067451 977
16.1399997062981 895
16.1599997058511 917
16.179999705404 934
16.199999704957 971
16.21999970451 927
16.2399997040629 893
16.2599997036159 990
16.2799997031689 954
16.2999997027218 940
16.3199997022748 912
16.3399997018278 1002
16.3599997013807 975
16.3799997009337 1008
16.3999997004867 987
16.4199997000396 989
16.4399996995926 989
16.4599996991456 995
16.4799996986985 962
16.4999996982515 1027
16.5199996978045 967
16.5399996973574 944
16.5599996969104 979
16.5799996964633 1003
16.5999996960163 952
16.6199996955693 965
16.6399996951222 1012
16.6599996946752 1005
16.6799996942282 1029
16.6999996937811 1023
16.7199996933341 992
16.7399996928871 1011
16.75999969244 1031
16.779999691993 988
16.799999691546 1073
16.8199996910989 994
16.8399996906519 1029
16.8599996902049 1022
16.8799996897578 980
16.8999996893108 1016
16.9199996888638 1022
16.9399996884167 1045
16.9599996879697 1006
16.9799996875226 1061
16.9999996870756 1014
17.0199996866286 1066
17.0399996861815 1033
17.0599996857345 970
17.0799996852875 979
17.0999996848404 989
17.1199996843934 1051
17.1399996839464 997
17.1599996834993 1044
17.1799996830523 1073
17.1999996826053 1080
17.2199996821582 1058
17.2399996817112 1082
17.2599996812642 1079
17.2799996808171 1060
17.2999996803701 1074
17.3199996799231 1113
17.339999679476 1147
17.359999679029 1102
17.379999678582 1051
17.3999996781349 1089
17.4199996776879 1103
17.4399996772408 1056
17.4599996767938 1057
17.4799996763468 1018
17.4999996758997 1172
17.5199996754527 1089
17.5399996750057 1110
17.5599996745586 1161
17.5799996741116 1067
17.5999996736646 1114
17.6199996732175 1124
17.6399996727705 1151
17.6599996723235 1126
17.6799996718764 1158
17.6999996714294 1142
17.7199996709824 1131
17.7399996705353 1120
17.7599996700883 1181
17.7799996696413 1151
17.7999996691942 1092
17.8199996687472 1146
17.8399996683002 1147
17.8599996678531 1111
17.8799996674061 1138
17.899999666959 1150
17.919999666512 1155
17.939999666065 1199
17.9599996656179 1196
17.9799996651709 1184
17.9999996647239 1161
18.0199996642768 1155
18.0399996638298 1171
18.0599996633828 1242
18.0799996629357 1128
18.0999996624887 1121
18.1199996620417 1181
18.1399996615946 1178
18.1599996611476 1215
18.1799996607006 1231
18.1999996602535 1177
18.2199996598065 1248
18.2399996593595 1145
18.2599996589124 1202
18.2799996584654 1187
18.2999996580184 1199
18.3199996575713 1200
18.3399996571243 1158
18.3599996566772 1144
18.3799996562302 1215
18.3999996557832 1212
18.4199996553361 1209
18.4399996548891 1242
18.4599996544421 1201
18.479999653995 1290
18.499999653548 1231
18.519999653101 1276
18.5399996526539 1164
18.5599996522069 1289
18.5799996517599 1202
18.5999996513128 1343
18.6199996508658 1284
18.6399996504188 1216
18.6599996499717 1246
18.6799996495247 1226
18.6999996490777 1318
18.7199996486306 1290
18.7399996481836 1252
18.7599996477366 1246
18.7799996472895 1343
18.7999996468425 1288
18.8199996463954 1251
18.8399996459484 1282
18.8599996455014 1259
18.8799996450543 1264
18.8999996446073 1233
18.9199996441603 1296
18.9399996437132 1350
18.9599996432662 1314
18.9799996428192 1315
18.9999996423721 1357
19.0199996419251 1336
19.0399996414781 1274
19.059999641031 1313
19.079999640584 1342
19.099999640137 1358
19.1199996396899 1353
19.1399996392429 1368
19.1599996387959 1344
19.1799996383488 1343
19.1999996379018 1331
19.2199996374547 1314
19.2399996370077 1375
19.2599996365607 1335
19.2799996361136 1353
19.2999996356666 1346
19.3199996352196 1354
19.3399996347725 1326
19.3599996343255 1382
19.3799996338785 1386
19.3999996334314 1332
19.4199996329844 1399
19.4399996325374 1380
19.4599996320903 1381
19.4799996316433 1440
19.4999996311963 1452
19.5199996307492 1421
19.5399996303022 1441
19.5599996298552 1406
19.5799996294081 1423
19.5999996289611 1430
19.6199996285141 1423
19.639999628067 1402
19.65999962762 1456
19.6799996271729 1409
19.6999996267259 1426
19.7199996262789 1330
19.7399996258318 1450
19.7599996253848 1399
19.7799996249378 1368
19.7999996244907 1382
19.8199996240437 1411
19.8399996235967 1431
19.8599996231496 1362
19.8799996227026 1421
19.8999996222556 1419
19.9199996218085 1417
19.9399996213615 1394
19.9599996209145 1405
19.9799996204674 1433
19.9999996200204 1451
