3 1989
3.01999999955297 2010
3.03999999910593 1821
3.0599999986589 1722
3.07999999821186 1606
3.09999999776483 1557
3.11999999731779 1530
3.13999999687076 1378
3.15999999642372 1381
3.17999999597669 1432
3.19999999552965 1409
3.21999999508262 1328
3.23999999463558 1346
3.25999999418855 1364
3.27999999374151 1294
3.29999999329448 1307
3.31999999284744 1276
3.33999999240041 1304
3.35999999195337 1290
3.37999999150634 1280
3.3999999910593 1202
3.41999999061227 1256
3.43999999016523 1210
3.4599999897182 1268
3.47999998927116 1198
3.49999998882413 1203
3.51999998837709 1160
3.53999998793006 1194
3.55999998748302 1144
3.57999998703599 1155
3.59999998658895 1150
3.61999998614192 1124
3.63999998569489 1081
3.65999998524785 1060
3.67999998480082 1099
3.69999998435378 1063
3.71999998390675 1093
3.73999998345971 1087
3.75999998301268 1055
3.77999998256564 991
3.79999998211861 1031
3.81999998167157 1017
3.83999998122454 1020
3.8599999807775 997
3.87999998033047 1029
3.89999997988343 1025
3.9199999794364 998
3.93999997898936 975
3.95999997854233 1023
3.97999997809529 971
3.99999997764826 1014
4.01999997720122 962
4.03999997675419 968
4.05999997630715 896
4.07999997586012 909
4.09999997541308 977
4.11999997496605 924
4.13999997451901 934
4.15999997407198 914
4.17999997362494 923
4.19999997317791 901
4.21999997273087 879
4.23999997228384 859
4.25999997183681 848
4.27999997138977 850
4.29999997094274 881
4.3199999704957 869
4.33999997004867 870
4.35999996960163 868
4.3799999691546 854
4.39999996870756 860
4.41999996826053 888
4.43999996781349 855
4.45999996736646 817
4.47999996691942 920
4.49999996647239 869
4.51999996602535 875
4.53999996557832 825
4.55999996513128 839
4.57999996468425 839
4.59999996423721 768
4.61999996379018 811
4.63999996334314 826
4.65999996289611 794
4.67999996244907 823
4.69999996200204 793
4.719999961555 863
4.73999996110797 813
4.75999996066093 789
4.7799999602139 813
4.79999995976686 831
4.81999995931983 776
4.83999995887279 819
4.85999995842576 852
4.87999995797873 928
4.89999995753169 823
4.91999995708466 810
4.93999995663762 824
4.95999995619059 881
4.97999995574355 873
4.99999995529652 870
5.01999995484948 898
5.03999995440245 908
5.05999995395541 950
5.07999995350838 934
5.09999995306134 911
5.11999995261431 918
5.13999995216727 980
5.15999995172024 1015
5.1799999512732 988
5.19999995082617 995
5.21999995037913 985
5.2399999499321 998
5.25999994948506 1044
5.27999994903803 1095
5.29999994859099 1062
5.31999994814396 1136
5.33999994769692 1152
5.35999994724989 1201
5.37999994680285 1167
5.39999994635582 1193
5.41999994590878 1224
5.43999994546175 1312
5.45999994501471 1290
5.47999994456768 1304
5.49999994412065 1331
5.51999994367361 1390
5.53999994322658 1395
5.55999994277954 1423
5.57999994233251 1378
5.59999994188547 1447
5.61999994143844 1507
5.6399999409914 1413
5.65999994054437 1520
5.67999994009733 1540
5.6999999396503 1494
5.71999993920326 1536
5.73999993875623 1580
5.75999993830919 1563
5.77999993786216 1519
5.79999993741512 1523
5.81999993696809 1482
5.83999993652105 1431
5.85999993607402 1437
5.87999993562698 1433
5.89999993517995 1305
5.91999993473291 1213
5.93999993428588 1252
5.95999993383884 1204
5.97999993339181 1054
5.99999993294477 1051
6.01999993249774 1042
6.0399999320507 951
6.05999993160367 972
6.07999993115663 927
6.0999999307096 898
6.11999993026257 919
6.13999992981553 845
6.1599999293685 870
6.17999992892146 797
6.19999992847443 811
6.21999992802739 827
6.23999992758036 824
6.25999992713332 805
6.27999992668629 833
6.29999992623925 793
6.31999992579222 761
6.33999992534518 771
6.35999992489815 801
6.37999992445111 805
6.39999992400408 808
6.41999992355704 753
6.43999992311001 759
6.45999992266297 746
6.47999992221594 859
6.4999999217689 807
6.51999992132187 831
6.53999992087483 798
6.5599999204278 794
6.57999991998076 836
6.59999991953373 780
6.61999991908669 803
6.63999991863966 828
6.65999991819262 799
6.67999991774559 813
6.69999991729855 773
6.71999991685152 779
6.73999991640449 740
6.75999991595745 794
6.77999991551042 713
6.79999991506338 777
6.81999991461635 803
6.83999991416931 721
6.85999991372228 747
6.87999991327524 694
6.89999991282821 794
6.91999991238117 675
6.93999991193414 700
6.9599999114871 703
6.97999991104007 681
6.99999991059303 679
7.019999910146 724
7.03999990969896 740
7.05999990925193 720
7.07999990880489 680
7.09999990835786 712
7.11999990791082 699
7.13999990746379 713
7.15999990701675 676
7.17999990656972 650
7.19999990612268 681
7.21999990567565 676
7.23999990522861 692
7.25999990478158 690
7.27999990433454 686
7.29999990388751 657
7.31999990344047 651
7.33999990299344 671
7.35999990254641 703
7.37999990209937 619
7.39999990165234 666
7.4199999012053 706
7.43999990075827 678
7.45999990031123 667
7.4799998998642 682
7.49999989941716 672
7.51999989897013 642
7.53999989852309 640
7.55999989807606 637
7.57999989762902 667
7.59999989718199 667
7.61999989673495 664
7.63999989628792 649
7.65999989584088 635
7.67999989539385 656
7.69999989494681 635
7.71999989449978 663
7.73999989405274 635
7.75999989360571 635
7.77999989315867 653
7.79999989271164 637
7.8199998922646 637
7.83999989181757 634
7.85999989137053 596
7.8799998909235 641
7.89999989047646 596
7.91999989002943 630
7.9399998895824 660
7.95999988913536 594
7.97999988868833 608
7.99999988824129 598
8.01999988779426 611
8.03999988734722 557
8.05999988690019 549
8.07999988645315 641
8.09999988600612 596
8.11999988555908 601
8.13999988511205 617
8.15999988466501 556
8.17999988421798 593
8.19999988377094 606
8.21999988332391 608
8.23999988287687 593
8.25999988242984 573
8.2799998819828 611
8.29999988153577 597
8.31999988108873 560
8.3399998806417 592
8.35999988019466 603
8.37999987974763 561
8.39999987930059 620
8.41999987885356 594
8.43999987840652 602
8.45999987795949 552
8.47999987751245 601
8.49999987706542 609
8.51999987661839 556
8.53999987617135 574
8.55999987572432 582
8.57999987527728 624
8.59999987483025 565
8.61999987438321 551
8.63999987393618 608
8.65999987348914 584
8.67999987304211 623
8.69999987259507 538
8.71999987214804 600
8.739999871701 578
8.75999987125397 565
8.77999987080693 584
8.7999998703599 573
8.81999986991286 604
8.83999986946583 606
8.85999986901879 591
8.87999986857176 649
8.89999986812472 597
8.91999986767769 587
8.93999986723065 634
8.95999986678362 622
8.97999986633658 661
8.99999986588955 679
9.01999986544251 725
9.03999986499548 734
9.05999986454844 729
9.07999986410141 808
9.09999986365438 887
9.11999986320734 786
9.13999986276031 792
9.15999986231327 831
9.17999986186624 878
9.1999998614192 963
9.21999986097217 1222
9.23999986052513 1467
9.2599998600781 1724
9.27999985963106 1952
9.29999985918403 1901
9.31999985873699 1605
9.33999985828996 1333
9.35999985784292 1110
9.37999985739589 1027
9.39999985694885 954
9.41999985650182 948
9.43999985605478 922
9.45999985560775 812
9.47999985516071 809
9.49999985471368 818
9.51999985426664 740
9.53999985381961 734
9.55999985337257 718
9.57999985292554 649
9.5999998524785 649
9.61999985203147 709
9.63999985158443 658
9.6599998511374 644
9.67999985069037 633
9.69999985024333 624
9.7199998497963 649
9.73999984934926 598
9.75999984890223 614
9.77999984845519 635
9.79999984800816 625
9.81999984756112 634
9.83999984711409 600
9.85999984666705 576
9.87999984622002 620
9.89999984577298 621
9.91999984532595 605
9.93999984487891 650
9.95999984443188 621
9.97999984398484 589
9.99999984353781 615
10.0199998430908 639
10.0399998426437 612
10.0599998421967 580
10.0799998417497 567
10.0999998413026 604
10.1199998408556 589
10.1399998404086 621
10.1599998399615 583
10.1799998395145 612
10.1999998390675 625
10.2199998386204 619
10.2399998381734 554
10.2599998377264 592
10.2799998372793 591
10.2999998368323 600
10.3199998363853 611
10.3399998359382 582
10.3599998354912 578
10.3799998350441 591
10.3999998345971 603
10.4199998341501 605
10.439999833703 576
10.459999833256 618
10.479999832809 569
10.4999998323619 597
10.5199998319149 607
10.5399998314679 602
10.5599998310208 595
10.5799998305738 636
10.5999998301268 639
10.6199998296797 636
10.6399998292327 657
10.6599998287857 644
10.6799998283386 659
10.6999998278916 637
10.7199998274446 662
10.7399998269975 690
10.7599998265505 627
10.7799998261034 689
10.7999998256564 711
10.8199998252094 718
10.8399998247623 674
10.8599998243153 721
10.8799998238683 737
10.8999998234212 749
10.9199998229742 722
10.9399998225272 745
10.9599998220801 732
10.9799998216331 742
10.9999998211861 736
11.019999820739 789
11.039999820292 741
11.059999819845 755
11.0799998193979 709
11.0999998189509 706
11.1199998185039 678
11.1399998180568 689
11.1599998176098 693
11.1799998171628 681
11.1999998167157 664
11.2199998162687 641
11.2399998158216 656
11.2599998153746 639
11.2799998149276 625
11.2999998144805 638
11.3199998140335 666
11.3399998135865 612
11.3599998131394 626
11.3799998126924 610
11.3999998122454 630
11.4199998117983 635
11.4399998113513 608
11.4599998109043 664
11.4799998104572 652
11.4999998100102 627
11.5199998095632 626
11.5399998091161 652
11.5599998086691 571
11.5799998082221 592
11.599999807775 585
11.619999807328 573
11.639999806881 552
11.6599998064339 590
11.6799998059869 575
11.6999998055398 577
11.7199998050928 574
11.7399998046458 590
11.7599998041987 579
11.7799998037517 569
11.7999998033047 566
11.8199998028576 630
11.8399998024106 587
11.8599998019636 570
11.8799998015165 565
11.8999998010695 547
11.9199998006225 576
11.9399998001754 553
11.9599997997284 553
11.9799997992814 537
11.9999997988343 541
12.0199997983873 560
12.0399997979403 595
12.0599997974932 568
12.0799997970462 556
12.0999997965992 560
12.1199997961521 542
12.1399997957051 565
12.159999795258 531
12.179999794811 536
12.199999794364 528
12.2199997939169 556
12.2399997934699 566
12.2599997930229 519
12.2799997925758 551
12.2999997921288 576
12.3199997916818 538
12.3399997912347 557
12.3599997907877 556
12.3799997903407 539
12.3999997898936 525
12.4199997894466 569
12.4399997889996 536
12.4599997885525 543
12.4799997881055 561
12.4999997876585 548
12.5199997872114 515
12.5399997867644 541
12.5599997863173 511
12.5799997858703 528
12.5999997854233 560
12.6199997849762 556
12.6399997845292 559
12.6599997840822 517
12.6799997836351 549
12.6999997831881 560
12.7199997827411 543
12.739999782294 518
12.759999781847 586
12.7799997814 545
12.7999997809529 518
12.8199997805059 527
12.8399997800589 531
12.8599997796118 560
12.8799997791648 545
12.8999997787178 555
12.9199997782707 565
12.9399997778237 548
12.9599997773767 508
12.9799997769296 538
12.9999997764826 558
13.0199997760355 521
13.0399997755885 530
13.0599997751415 527
13.0799997746944 551
13.0999997742474 548
13.1199997738004 538
13.1399997733533 555
13.1599997729063 565
13.1799997724593 534
13.1999997720122 497
13.2199997715652 568
13.2399997711182 558
13.2599997706711 574
13.2799997702241 542
13.2999997697771 569
13.31999976933 569
13.339999768883 555
13.359999768436 597
13.3799997679889 531
13.3999997675419 563
13.4199997670949 574
13.4399997666478 533
13.4599997662008 574
13.4799997657537 571
13.4999997653067 566
13.5199997648597 546
13.5399997644126 578
13.5599997639656 572
13.5799997635186 530
13.5999997630715 578
13.6199997626245 556
13.6399997621775 543
13.6599997617304 558
13.6799997612834 528
13.6999997608364 553
13.7199997603893 568
13.7399997599423 534
13.7599997594953 578
13.7799997590482 583
13.7999997586012 577
13.8199997581542 525
13.8399997577071 554
13.8599997572601 563
13.879999756813 555
13.899999756366 570
13.919999755919 553
13.9399997554719 553
13.9599997550249 564
13.9799997545779 577
13.9999997541308 561
14.0199997536838 560
14.0399997532368 628
14.0599997527897 559
14.0799997523427 577
14.0999997518957 545
14.1199997514486 595
14.1399997510016 560
14.1599997505546 586
14.1799997501075 580
14.1999997496605 539
14.2199997492135 619
14.2399997487664 542
14.2599997483194 593
14.2799997478724 566
14.2999997474253 560
14.3199997469783 618
14.3399997465312 628
14.3599997460842 607
14.3799997456372 574
14.3999997451901 649
14.4199997447431 618
14.4399997442961 620
14.459999743849 586
14.479999743402 671
14.499999742955 613
14.5199997425079 642
14.5399997420609 606
14.5599997416139 644
14.5799997411668 675
14.5999997407198 589
14.6199997402728 611
14.6399997398257 608
14.6599997393787 676
14.6799997389317 573
14.6999997384846 600
14.7199997380376 580
14.7399997375906 602
14.7599997371435 603
14.7799997366965 590
14.7999997362494 599
14.8199997358024 626
14.8399997353554 649
14.8599997349083 648
14.8799997344613 605
14.8999997340143 589
14.9199997335672 623
14.9399997331202 637
14.9599997326732 618
14.9799997322261 640
14.9999997317791 633
15.0199997313321 586
15.039999730885 643
15.059999730438 603
15.079999729991 581
15.0999997295439 607
15.1199997290969 625
15.1399997286499 600
15.1599997282028 642
15.1799997277558 624
15.1999997273088 609
15.2199997268617 623
15.2399997264147 593
15.2599997259676 591
15.2799997255206 616
15.2999997250736 607
15.3199997246265 646
15.3399997241795 615
15.3599997237325 598
15.3799997232854 663
15.3999997228384 594
15.4199997223914 609
15.4399997219443 630
15.4599997214973 628
15.4799997210503 636
15.4999997206032 632
15.5199997201562 613
15.5399997197092 646
15.5599997192621 623
15.5799997188151 666
15.5999997183681 623
15.619999717921 631
15.639999717474 670
15.659999717027 619
15.6799997165799 586
15.6999997161329 639
15.7199997156858 630
15.7399997152388 625
15.7599997147918 581
15.7799997143447 608
15.7999997138977 634
15.8199997134507 630
15.8399997130036 638
15.8599997125566 668
15.8799997121096 619
15.8999997116625 617
15.9199997112155 671
15.9399997107685 693
15.9599997103214 701
15.9799997098744 658
15.9999997094274 658
16.0199997089803 623
16.0399997085333 656
16.0599997080863 656
16.0799997076392 646
16.0999997071922 664
16.1199997067451 644
16.1399997062981 669
16.1599997058511 653
16.179999705404 663
16.199999704957 677
16.21999970451 653
16.2399997040629 729
16.2599997036159 666
16.2799997031689 650
16.2999997027218 656
16.3199997022748 702
16.3399997018278 668
16.3599997013807 688
16.3799997009337 656
16.3999997004867 669
16.4199997000396 683
16.4399996995926 616
16.4599996991456 665
16.4799996986985 654
16.4999996982515 722
16.5199996978045 648
16.5399996973574 648
16.5599996969104 662
16.5799996964633 725
16.5999996960163 686
16.6199996955693 686
16.6399996951222 662
16.6599996946752 681
16.6799996942282 718
16.6999996937811 741
16.7199996933341 684
16.7399996928871 771
16.75999969244 732
16.779999691993 715
16.799999691546 708
16.8199996910989 710
16.8399996906519 665
16.8599996902049 753
16.8799996897578 729
16.8999996893108 703
16.9199996888638 703
16.9399996884167 767
16.9599996879697 738
16.9799996875226 768
16.9999996870756 753
17.0199996866286 783
17.0399996861815 777
17.0599996857345 758
17.0799996852875 706
17.0999996848404 746
17.1199996843934 756
17.1399996839464 782
17.1599996834993 783
17.1799996830523 774
17.1999996826053 782
17.2199996821582 783
17.2399996817112 791
17.2599996812642 751
17.2799996808171 818
17.2999996803701 798
17.3199996799231 791
17.339999679476 819
17.359999679029 788
17.379999678582 746
17.3999996781349 762
17.4199996776879 764
17.4399996772408 742
17.4599996767938 819
17.4799996763468 759
17.4999996758997 791
17.5199996754527 809
17.5399996750057 797
17.5599996745586 782
17.5799996741116 791
17.5999996736646 784
17.6199996732175 789
17.6399996727705 766
17.6599996723235 735
17.6799996718764 816
17.6999996714294 850
17.7199996709824 762
17.7399996705353 782
17.7599996700883 780
17.7799996696413 761
17.7999996691942 769
17.8199996687472 789
17.8399996683002 797
17.8599996678531 828
17.8799996674061 836
17.899999666959 769
17.919999666512 855
17.939999666065 800
17.9599996656179 835
17.9799996651709 815
17.9999996647239 817
18.0199996642768 773
18.0399996638298 838
18.0599996633828 848
18.0799996629357 849
18.0999996624887 885
18.1199996620417 838
18.1399996615946 843
18.1599996611476 811
18.1799996607006 818
18.1999996602535 802
18.2199996598065 788
18.2399996593595 805
18.2599996589124 830
18.2799996584654 851
18.2999996580184 806
18.3199996575713 837
18.3399996571243 850
18.3599996566772 841
18.3799996562302 829
18.3999996557832 859
18.4199996553361 893
18.4399996548891 880
18.4599996544421 825
18.479999653995 883
18.499999653548 881
18.519999653101 935
18.5399996526539 894
18.5599996522069 881
18.5799996517599 870
18.5999996513128 878
18.6199996508658 923
18.6399996504188 906
18.6599996499717 878
18.6799996495247 893
18.6999996490777 906
18.7199996486306 932
18.7399996481836 924
18.7599996477366 899
18.7799996472895 901
18.7999996468425 927
18.8199996463954 974
18.8399996459484 952
18.8599996455014 928
18.8799996450543 956
18.8999996446073 926
18.9199996441603 963
18.9399996437132 974
18.9599996432662 917
18.9799996428192 960
18.9999996423721 930
19.0199996419251 951
19.0399996414781 1019
19.059999641031 969
19.079999640584 977
19.099999640137 994
19.1199996396899 979
19.1399996392429 977
19.1599996387959 944
19.1799996383488 992
19.1999996379018 1017
19.2199996374547 983
19.2399996370077 968
19.2599996365607 1040
19.2799996361136 1010
19.2999996356666 969
19.3199996352196 1010
19.3399996347725 1034
19.3599996343255 997
19.3799996338785 1073
19.3999996334314 1080
19.4199996329844 993
19.4399996325374 1128
19.4599996320903 1063
19.4799996316433 1120
19.4999996311963 1092
19.5199996307492 1080
19.5399996303022 1094
19.5599996298552 1124
19.5799996294081 1152
19.5999996289611 1153
19.6199996285141 1126
19.639999628067 1113
19.65999962762 1053
19.6799996271729 1103
19.6999996267259 1074
19.7199996262789 1123
19.7399996258318 1071
19.7599996253848 1034
19.7799996249378 1008
19.7999996244907 1131
19.8199996240437 1083
19.8399996235967 1095
19.8599996231496 1102
19.8799996227026 1133
19.8999996222556 1076
19.9199996218085 1078
19.9399996213615 1081
19.9599996209145 1105
19.9799996204674 1076
19.9999996200204 1043
