3 1703
3.01999999955297 1510
3.03999999910593 1494
3.0599999986589 1338
3.07999999821186 1302
3.09999999776483 1147
3.11999999731779 1165
3.13999999687076 1136
3.15999999642372 1108
3.17999999597669 1093
3.19999999552965 1068
3.21999999508262 1110
3.23999999463558 1112
3.25999999418855 1051
3.27999999374151 1027
3.29999999329448 1021
3.31999999284744 1040
3.33999999240041 1069
3.35999999195337 1036
3.37999999150634 1019
3.3999999910593 1057
3.41999999061227 1039
3.43999999016523 985
3.4599999897182 1010
3.47999998927116 984
3.49999998882413 1001
3.51999998837709 1002
3.53999998793006 1076
3.55999998748302 976
3.57999998703599 981
3.59999998658895 1008
3.61999998614192 1040
3.63999998569489 947
3.65999998524785 902
3.67999998480082 972
3.69999998435378 930
3.71999998390675 944
3.73999998345971 907
3.75999998301268 882
3.77999998256564 903
3.79999998211861 914
3.81999998167157 914
3.83999998122454 882
3.8599999807775 913
3.87999998033047 933
3.89999997988343 902
3.9199999794364 970
3.93999997898936 908
3.95999997854233 926
3.97999997809529 908
3.99999997764826 910
4.01999997720122 914
4.03999997675419 933
4.05999997630715 936
4.07999997586012 869
4.09999997541308 901
4.11999997496605 856
4.13999997451901 902
4.15999997407198 870
4.17999997362494 824
4.19999997317791 870
4.21999997273087 890
4.23999997228384 907
4.25999997183681 823
4.27999997138977 875
4.29999997094274 898
4.3199999704957 901
4.33999997004867 904
4.35999996960163 853
4.3799999691546 883
4.39999996870756 887
4.41999996826053 899
4.43999996781349 881
4.45999996736646 878
4.47999996691942 909
4.49999996647239 878
4.51999996602535 825
4.53999996557832 896
4.55999996513128 853
4.57999996468425 896
4.59999996423721 849
4.61999996379018 803
4.63999996334314 852
4.65999996289611 790
4.67999996244907 848
4.69999996200204 860
4.719999961555 863
4.73999996110797 861
4.75999996066093 833
4.7799999602139 876
4.79999995976686 869
4.81999995931983 903
4.83999995887279 815
4.85999995842576 859
4.87999995797873 860
4.89999995753169 857
4.91999995708466 874
4.93999995663762 884
4.95999995619059 887
4.97999995574355 858
4.99999995529652 901
5.01999995484948 883
5.03999995440245 986
5.05999995395541 864
5.07999995350838 884
5.09999995306134 897
5.11999995261431 891
5.13999995216727 904
5.15999995172024 938
5.1799999512732 944
5.19999995082617 943
5.21999995037913 930
5.2399999499321 937
5.25999994948506 971
5.27999994903803 987
5.29999994859099 976
5.31999994814396 1018
5.33999994769692 1004
5.35999994724989 1024
5.37999994680285 968
5.39999994635582 1068
5.41999994590878 1008
5.43999994546175 1052
5.45999994501471 1058
5.47999994456768 1120
5.49999994412065 1112
5.51999994367361 1067
5.53999994322658 1109
5.55999994277954 1119
5.57999994233251 1127
5.59999994188547 1108
5.61999994143844 1129
5.6399999409914 1144
5.65999994054437 1153
5.67999994009733 1189
5.6999999396503 1147
5.71999993920326 1217
5.73999993875623 1275
5.75999993830919 1228
5.77999993786216 1258
5.79999993741512 1229
5.81999993696809 1260
5.83999993652105 1220
5.85999993607402 1207
5.87999993562698 1292
5.89999993517995 1229
5.91999993473291 1267
5.93999993428588 1256
5.95999993383884 1229
5.97999993339181 1246
5.99999993294477 1227
6.01999993249774 1159
6.0399999320507 1224
6.05999993160367 1139
6.07999993115663 1105
6.0999999307096 1133
6.11999993026257 1049
6.13999992981553 1076
6.1599999293685 1034
6.17999992892146 979
6.19999992847443 993
6.21999992802739 953
6.23999992758036 935
6.25999992713332 927
6.27999992668629 955
6.29999992623925 889
6.31999992579222 875
6.33999992534518 870
6.35999992489815 847
6.37999992445111 806
6.39999992400408 826
6.41999992355704 773
6.43999992311001 789
6.45999992266297 806
6.47999992221594 776
6.4999999217689 788
6.51999992132187 799
6.53999992087483 767
6.5599999204278 770
6.57999991998076 806
6.59999991953373 781
6.61999991908669 792
6.63999991863966 728
6.65999991819262 738
6.67999991774559 752
6.69999991729855 734
6.71999991685152 794
6.73999991640449 775
6.75999991595745 749
6.77999991551042 721
6.79999991506338 708
6.81999991461635 711
6.83999991416931 765
6.85999991372228 745
6.87999991327524 668
6.89999991282821 715
6.91999991238117 693
6.93999991193414 747
6.9599999114871 683
6.97999991104007 723
6.99999991059303 701
7.019999910146 669
7.03999990969896 654
7.05999990925193 654
7.07999990880489 680
7.09999990835786 655
7.11999990791082 598
7.13999990746379 727
7.15999990701675 653
7.17999990656972 654
7.19999990612268 673
7.21999990567565 611
7.23999990522861 668
7.25999990478158 681
7.27999990433454 609
7.29999990388751 634
7.31999990344047 577
7.33999990299344 607
7.35999990254641 621
7.37999990209937 645
7.39999990165234 584
7.4199999012053 630
7.43999990075827 621
7.45999990031123 646
7.4799998998642 602
7.49999989941716 643
7.51999989897013 628
7.53999989852309 598
7.55999989807606 603
7.57999989762902 609
7.59999989718199 600
7.61999989673495 607
7.63999989628792 590
7.65999989584088 606
7.67999989539385 649
7.69999989494681 650
7.71999989449978 580
7.73999989405274 636
7.75999989360571 610
7.77999989315867 638
7.79999989271164 591
7.8199998922646 591
7.83999989181757 585
7.85999989137053 583
7.8799998909235 637
7.89999989047646 620
7.91999989002943 567
7.9399998895824 592
7.95999988913536 612
7.97999988868833 579
7.99999988824129 610
8.01999988779426 606
8.03999988734722 600
8.05999988690019 591
8.07999988645315 607
8.09999988600612 622
8.11999988555908 611
8.13999988511205 594
8.15999988466501 596
8.17999988421798 627
8.19999988377094 619
8.21999988332391 573
8.23999988287687 603
8.25999988242984 619
8.2799998819828 601
8.29999988153577 595
8.31999988108873 615
8.3399998806417 575
8.35999988019466 594
8.37999987974763 612
8.39999987930059 616
8.41999987885356 620
8.43999987840652 532
8.45999987795949 573
8.47999987751245 569
8.49999987706542 599
8.51999987661839 592
8.53999987617135 575
8.55999987572432 644
8.57999987527728 597
8.59999987483025 603
8.61999987438321 578
8.63999987393618 631
8.65999987348914 597
8.67999987304211 568
8.69999987259507 574
8.71999987214804 580
8.739999871701 601
8.75999987125397 607
8.77999987080693 608
8.7999998703599 559
8.81999986991286 622
8.83999986946583 613
8.85999986901879 624
8.87999986857176 601
8.89999986812472 600
8.91999986767769 623
8.93999986723065 582
8.95999986678362 595
8.97999986633658 588
8.99999986588955 607
9.01999986544251 624
9.03999986499548 586
9.05999986454844 582
9.07999986410141 590
9.09999986365438 617
9.11999986320734 607
9.13999986276031 619
9.15999986231327 593
9.17999986186624 574
9.1999998614192 622
9.21999986097217 634
9.23999986052513 611
9.2599998600781 616
9.27999985963106 616
9.29999985918403 639
9.31999985873699 619
9.33999985828996 654
9.35999985784292 572
9.37999985739589 645
9.39999985694885 613
9.41999985650182 628
9.43999985605478 648
9.45999985560775 633
9.47999985516071 637
9.49999985471368 639
9.51999985426664 662
9.53999985381961 708
9.55999985337257 634
9.57999985292554 678
9.5999998524785 643
9.61999985203147 665
9.63999985158443 687
9.6599998511374 684
9.67999985069037 690
9.69999985024333 625
9.7199998497963 691
9.73999984934926 654
9.75999984890223 629
9.77999984845519 658
9.79999984800816 669
9.81999984756112 635
9.83999984711409 622
9.85999984666705 599
9.87999984622002 613
9.89999984577298 608
9.91999984532595 629
9.93999984487891 569
9.95999984443188 560
9.97999984398484 620
9.99999984353781 559
10.0199998430908 620
10.0399998426437 578
10.0599998421967 608
10.0799998417497 606
10.0999998413026 583
10.1199998408556 565
10.1399998404086 586
10.1599998399615 548
10.1799998395145 613
10.1999998390675 594
10.2199998386204 594
10.2399998381734 592
10.2599998377264 601
10.2799998372793 594
10.2999998368323 631
10.3199998363853 603
10.3399998359382 613
10.3599998354912 595
10.3799998350441 598
10.3999998345971 605
10.4199998341501 597
10.439999833703 609
10.459999833256 594
10.479999832809 602
10.4999998323619 608
10.5199998319149 575
10.5399998314679 576
10.5599998310208 626
10.5799998305738 610
10.5999998301268 616
10.6199998296797 585
10.6399998292327 602
10.6599998287857 592
10.6799998283386 548
10.6999998278916 604
10.7199998274446 608
10.7399998269975 622
10.7599998265505 590
10.7799998261034 622
10.7999998256564 609
10.8199998252094 550
10.8399998247623 583
10.8599998243153 633
10.8799998238683 599
10.8999998234212 598
10.9199998229742 568
10.9399998225272 604
10.9599998220801 611
10.9799998216331 613
10.9999998211861 584
11.019999820739 635
11.039999820292 618
11.059999819845 600
11.0799998193979 640
11.0999998189509 658
11.1199998185039 583
11.1399998180568 625
11.1599998176098 598
11.1799998171628 577
11.1999998167157 616
11.2199998162687 628
11.2399998158216 615
11.2599998153746 616
11.2799998149276 635
11.2999998144805 629
11.3199998140335 618
11.3399998135865 578
11.3599998131394 636
11.3799998126924 604
11.3999998122454 589
11.4199998117983 593
11.4399998113513 602
11.4599998109043 566
11.4799998104572 635
11.4999998100102 598
11.5199998095632 602
11.5399998091161 566
11.5599998086691 584
11.5799998082221 582
11.599999807775 625
11.619999807328 603
11.639999806881 604
11.6599998064339 535
11.6799998059869 589
11.6999998055398 587
11.7199998050928 578
11.7399998046458 627
11.7599998041987 571
11.7799998037517 637
11.7999998033047 556
11.8199998028576 545
11.8399998024106 560
11.8599998019636 557
11.8799998015165 565
11.8999998010695 547
11.9199998006225 563
11.9399998001754 561
11.9599997997284 573
11.9799997992814 592
11.9999997988343 592
12.0199997983873 601
12.0399997979403 559
12.0599997974932 569
12.0799997970462 586
12.0999997965992 566
12.1199997961521 545
12.1399997957051 574
12.159999795258 573
12.179999794811 597
12.199999794364 571
12.2199997939169 547
12.2399997934699 553
12.2599997930229 569
12.2799997925758 538
12.2999997921288 569
12.3199997916818 554
12.3399997912347 520
12.3599997907877 578
12.3799997903407 579
12.3999997898936 546
12.4199997894466 550
12.4399997889996 569
12.4599997885525 566
12.4799997881055 574
12.4999997876585 569
12.5199997872114 567
12.5399997867644 551
12.5599997863173 604
12.5799997858703 581
12.5999997854233 569
12.6199997849762 579
12.6399997845292 548
12.6599997840822 550
12.6799997836351 544
12.6999997831881 548
12.7199997827411 537
12.739999782294 536
12.759999781847 570
12.7799997814 549
12.7999997809529 541
12.8199997805059 540
12.8399997800589 545
12.8599997796118 552
12.8799997791648 560
12.8999997787178 561
12.9199997782707 567
12.9399997778237 521
12.9599997773767 551
12.9799997769296 582
12.9999997764826 567
13.0199997760355 596
13.0399997755885 568
13.0599997751415 567
13.0799997746944 576
13.0999997742474 570
13.1199997738004 593
13.1399997733533 513
13.1599997729063 563
13.1799997724593 569
13.1999997720122 525
13.2199997715652 548
13.2399997711182 587
13.2599997706711 517
13.2799997702241 592
13.2999997697771 567
13.31999976933 630
13.339999768883 579
13.359999768436 575
13.3799997679889 587
13.3999997675419 609
13.4199997670949 592
13.4399997666478 578
13.4599997662008 578
13.4799997657537 552
13.4999997653067 616
13.5199997648597 533
13.5399997644126 551
13.5599997639656 573
13.5799997635186 587
13.5999997630715 576
13.6199997626245 548
13.6399997621775 649
13.6599997617304 565
13.6799997612834 571
13.6999997608364 567
13.7199997603893 581
13.7399997599423 564
13.7599997594953 581
13.7799997590482 567
13.7999997586012 542
13.8199997581542 582
13.8399997577071 590
13.8599997572601 617
13.879999756813 604
13.899999756366 622
13.919999755919 581
13.9399997554719 615
13.9599997550249 643
13.9799997545779 587
13.9999997541308 629
14.0199997536838 582
14.0399997532368 645
14.0599997527897 590
14.0799997523427 594
14.0999997518957 587
14.1199997514486 603
14.1399997510016 597
14.1599997505546 556
14.1799997501075 546
14.1999997496605 627
14.2199997492135 583
14.2399997487664 594
14.2599997483194 621
14.2799997478724 581
14.2999997474253 601
14.3199997469783 580
14.3399997465312 605
14.3599997460842 608
14.3799997456372 622
14.3999997451901 618
14.4199997447431 649
14.4399997442961 568
14.459999743849 641
14.479999743402 651
14.499999742955 642
14.5199997425079 601
14.5399997420609 654
14.5599997416139 577
14.5799997411668 641
14.5999997407198 622
14.6199997402728 630
14.6399997398257 664
14.6599997393787 620
14.6799997389317 650
14.6999997384846 612
14.7199997380376 598
14.7399997375906 629
14.7599997371435 661
14.7799997366965 622
14.7999997362494 608
14.8199997358024 624
14.8399997353554 620
14.8599997349083 643
14.8799997344613 658
14.8999997340143 616
14.9199997335672 615
14.9399997331202 623
14.9599997326732 662
14.9799997322261 642
14.9999997317791 656
15.0199997313321 627
15.039999730885 687
15.059999730438 643
15.079999729991 654
15.0999997295439 657
15.1199997290969 621
15.1399997286499 659
15.1599997282028 630
15.1799997277558 643
15.1999997273088 665
15.2199997268617 647
15.2399997264147 702
15.2599997259676 642
15.2799997255206 653
15.2999997250736 641
15.3199997246265 654
15.3399997241795 634
15.3599997237325 655
15.3799997232854 667
15.3999997228384 647
15.4199997223914 708
15.4399997219443 654
15.4599997214973 645
15.4799997210503 678
15.4999997206032 691
15.5199997201562 666
15.5399997197092 643
15.5599997192621 736
15.5799997188151 697
15.5999997183681 675
15.619999717921 701
15.639999717474 685
15.659999717027 698
15.6799997165799 643
15.6999997161329 684
15.7199997156858 702
15.7399997152388 663
15.7599997147918 684
15.7799997143447 709
15.7999997138977 703
15.8199997134507 678
15.8399997130036 722
15.8599997125566 696
15.8799997121096 726
15.8999997116625 678
15.9199997112155 706
15.9399997107685 695
15.9599997103214 697
15.9799997098744 741
15.9999997094274 716
16.0199997089803 698
16.0399997085333 731
16.0599997080863 713
16.0799997076392 740
16.0999997071922 764
16.1199997067451 741
16.1399997062981 723
16.1599997058511 716
16.179999705404 712
16.199999704957 748
16.21999970451 765
16.2399997040629 777
16.2599997036159 748
16.2799997031689 750
16.2999997027218 775
16.3199997022748 783
16.3399997018278 680
16.3599997013807 733
16.3799997009337 736
16.3999997004867 786
16.4199997000396 763
16.4399996995926 769
16.4599996991456 729
16.4799996986985 749
16.4999996982515 772
16.5199996978045 808
16.5399996973574 788
16.5599996969104 744
16.5799996964633 776
16.5999996960163 802
16.6199996955693 759
16.6399996951222 749
16.6599996946752 797
16.6799996942282 803
16.6999996937811 817
16.7199996933341 774
16.7399996928871 784
16.75999969244 784
16.779999691993 780
16.799999691546 781
16.8199996910989 819
16.8399996906519 792
16.8599996902049 831
16.8799996897578 838
16.8999996893108 791
16.9199996888638 774
16.9399996884167 801
16.9599996879697 811
16.9799996875226 838
16.9999996870756 818
17.0199996866286 828
17.0399996861815 855
17.0599996857345 849
17.0799996852875 860
17.0999996848404 840
17.1199996843934 867
17.1399996839464 879
17.1599996834993 847
17.1799996830523 984
17.1999996826053 977
17.2199996821582 1003
17.2399996817112 995
17.2599996812642 959
17.2799996808171 1051
17.2999996803701 971
17.3199996799231 950
17.339999679476 969
17.359999679029 926
17.379999678582 913
17.3999996781349 868
17.4199996776879 910
17.4399996772408 885
17.4599996767938 869
17.4799996763468 905
17.4999996758997 879
17.5199996754527 942
17.5399996750057 873
17.5599996745586 927
17.5799996741116 911
17.5999996736646 909
17.6199996732175 867
17.6399996727705 902
17.6599996723235 915
17.6799996718764 946
17.6999996714294 930
17.7199996709824 935
17.7399996705353 883
17.7599996700883 866
17.7799996696413 955
17.7999996691942 937
17.8199996687472 957
17.8399996683002 966
17.8599996678531 955
17.8799996674061 966
17.899999666959 924
17.919999666512 933
17.939999666065 883
17.9599996656179 881
17.9799996651709 984
17.9999996647239 980
18.0199996642768 946
18.0399996638298 943
18.0599996633828 904
18.0799996629357 937
18.0999996624887 920
18.1199996620417 918
18.1399996615946 939
18.1599996611476 949
18.1799996607006 971
18.1999996602535 986
18.2199996598065 978
18.2399996593595 985
18.2599996589124 979
18.2799996584654 969
18.2999996580184 996
18.3199996575713 995
18.3399996571243 959
18.3599996566772 1005
18.3799996562302 933
18.3999996557832 1035
18.4199996553361 1003
18.4399996548891 1030
18.4599996544421 1018
18.479999653995 985
18.499999653548 1009
18.519999653101 972
18.5399996526539 1034
18.5599996522069 1052
18.5799996517599 1008
18.5999996513128 991
18.6199996508658 1078
18.6399996504188 1028
18.6599996499717 1040
18.6799996495247 990
18.6999996490777 1069
18.7199996486306 1007
18.7399996481836 1071
18.7599996477366 1047
18.7799996472895 1047
18.7999996468425 1065
18.8199996463954 1073
18.8399996459484 1088
18.8599996455014 1089
18.8799996450543 1083
18.8999996446073 1070
18.9199996441603 1081
18.9399996437132 1084
18.9599996432662 1061
18.9799996428192 1127
18.9999996423721 1110
19.0199996419251 1086
19.0399996414781 1103
19.059999641031 1096
19.079999640584 1096
19.099999640137 1085
19.1199996396899 1085
19.1399996392429 1118
19.1599996387959 1137
19.1799996383488 1145
19.1999996379018 1146
19.2199996374547 1141
19.2399996370077 1082
19.2599996365607 1089
19.2799996361136 1099
19.2999996356666 1150
19.3199996352196 1106
19.3399996347725 1162
19.3599996343255 1209
19.3799996338785 1207
19.3999996334314 1159
19.4199996329844 1162
19.4399996325374 1198
19.4599996320903 1178
19.4799996316433 1153
19.4999996311963 1219
19.5199996307492 1212
19.5399996303022 1236
19.5599996298552 1168
19.5799996294081 1207
19.5999996289611 1123
19.6199996285141 1189
19.639999628067 1172
19.65999962762 1177
19.6799996271729 1248
19.6999996267259 1174
19.7199996262789 1243
19.7399996258318 1286
19.7599996253848 1250
19.7799996249378 1241
19.7999996244907 1269
19.8199996240437 1257
19.8399996235967 1199
19.8599996231496 1274
19.8799996227026 1211
19.8999996222556 1183
19.9199996218085 1215
19.9399996213615 1212
19.9599996209145 1270
19.9799996204674 1272
19.9999996200204 1251
