3 2118
3.01999999955297 1841
3.03999999910593 1808
3.0599999986589 1705
3.07999999821186 1583
3.09999999776483 1474
3.11999999731779 1427
3.13999999687076 1381
3.15999999642372 1415
3.17999999597669 1399
3.19999999552965 1394
3.21999999508262 1379
3.23999999463558 1352
3.25999999418855 1372
3.27999999374151 1274
3.29999999329448 1313
3.31999999284744 1278
3.33999999240041 1303
3.35999999195337 1305
3.37999999150634 1280
3.3999999910593 1245
3.41999999061227 1283
3.43999999016523 1205
3.4599999897182 1281
3.47999998927116 1221
3.49999998882413 1232
3.51999998837709 1141
3.53999998793006 1191
3.55999998748302 1212
3.57999998703599 1187
3.59999998658895 1193
3.61999998614192 1104
3.63999998569489 1120
3.65999998524785 1161
3.67999998480082 1087
3.69999998435378 1161
3.71999998390675 1150
3.73999998345971 1132
3.75999998301268 1141
3.77999998256564 1107
3.79999998211861 1124
3.81999998167157 1099
3.83999998122454 1083
3.8599999807775 1107
3.87999998033047 1022
3.89999997988343 1021
3.9199999794364 1010
3.93999997898936 1027
3.95999997854233 1065
3.97999997809529 1005
3.99999997764826 1011
4.01999997720122 973
4.03999997675419 1006
4.05999997630715 1006
4.07999997586012 1003
4.09999997541308 927
4.11999997496605 949
4.13999997451901 980
4.15999997407198 971
4.17999997362494 981
4.19999997317791 941
4.21999997273087 973
4.23999997228384 927
4.25999997183681 938
4.27999997138977 933
4.29999997094274 947
4.3199999704957 886
4.33999997004867 912
4.35999996960163 950
4.3799999691546 950
4.39999996870756 931
4.41999996826053 894
4.43999996781349 952
4.45999996736646 869
4.47999996691942 881
4.49999996647239 842
4.51999996602535 919
4.53999996557832 819
4.55999996513128 859
4.57999996468425 906
4.59999996423721 884
4.61999996379018 871
4.63999996334314 867
4.65999996289611 892
4.67999996244907 855
4.69999996200204 865
4.719999961555 801
4.73999996110797 836
4.75999996066093 827
4.7799999602139 808
4.79999995976686 838
4.81999995931983 854
4.83999995887279 856
4.85999995842576 865
4.87999995797873 823
4.89999995753169 851
4.91999995708466 766
4.93999995663762 782
4.95999995619059 827
4.97999995574355 811
4.99999995529652 833
5.01999995484948 776
5.03999995440245 803
5.05999995395541 767
5.07999995350838 782
5.09999995306134 770
5.11999995261431 796
5.13999995216727 775
5.15999995172024 806
5.1799999512732 805
5.19999995082617 795
5.21999995037913 804
5.2399999499321 770
5.25999994948506 832
5.27999994903803 757
5.29999994859099 798
5.31999994814396 797
5.33999994769692 789
5.35999994724989 815
5.37999994680285 787
5.39999994635582 765
5.41999994590878 760
5.43999994546175 780
5.45999994501471 780
5.47999994456768 741
5.49999994412065 751
5.51999994367361 763
5.53999994322658 762
5.55999994277954 796
5.57999994233251 817
5.59999994188547 803
5.61999994143844 781
5.6399999409914 801
5.65999994054437 772
5.67999994009733 776
5.6999999396503 828
5.71999993920326 765
5.73999993875623 811
5.75999993830919 822
5.77999993786216 753
5.79999993741512 740
5.81999993696809 763
5.83999993652105 821
5.85999993607402 764
5.87999993562698 780
5.89999993517995 761
5.91999993473291 739
5.93999993428588 802
5.95999993383884 807
5.97999993339181 769
5.99999993294477 780
6.01999993249774 805
6.0399999320507 788
6.05999993160367 754
6.07999993115663 763
6.0999999307096 797
6.11999993026257 752
6.13999992981553 764
6.1599999293685 780
6.17999992892146 806
6.19999992847443 697
6.21999992802739 715
6.23999992758036 766
6.25999992713332 772
6.27999992668629 780
6.29999992623925 787
6.31999992579222 748
6.33999992534518 779
6.35999992489815 786
6.37999992445111 764
6.39999992400408 789
6.41999992355704 791
6.43999992311001 766
6.45999992266297 739
6.47999992221594 745
6.4999999217689 775
6.51999992132187 718
6.53999992087483 721
6.5599999204278 761
6.57999991998076 757
6.59999991953373 766
6.61999991908669 809
6.63999991863966 774
6.65999991819262 742
6.67999991774559 781
6.69999991729855 764
6.71999991685152 750
6.73999991640449 774
6.75999991595745 725
6.77999991551042 805
6.79999991506338 777
6.81999991461635 775
6.83999991416931 794
6.85999991372228 740
6.87999991327524 766
6.89999991282821 767
6.91999991238117 760
6.93999991193414 738
6.9599999114871 758
6.97999991104007 781
6.99999991059303 770
7.019999910146 727
7.03999990969896 720
7.05999990925193 781
7.07999990880489 744
7.09999990835786 777
7.11999990791082 746
7.13999990746379 737
7.15999990701675 743
7.17999990656972 730
7.19999990612268 722
7.21999990567565 717
7.23999990522861 817
7.25999990478158 757
7.27999990433454 764
7.29999990388751 755
7.31999990344047 724
7.33999990299344 717
7.35999990254641 784
7.37999990209937 771
7.39999990165234 735
7.4199999012053 736
7.43999990075827 738
7.45999990031123 756
7.4799998998642 744
7.49999989941716 740
7.51999989897013 784
7.53999989852309 796
7.55999989807606 794
7.57999989762902 738
7.59999989718199 729
7.61999989673495 780
7.63999989628792 758
7.65999989584088 773
7.67999989539385 722
7.69999989494681 717
7.71999989449978 727
7.73999989405274 749
7.75999989360571 761
7.77999989315867 781
7.79999989271164 761
7.8199998922646 771
7.83999989181757 730
7.85999989137053 782
7.8799998909235 732
7.89999989047646 795
7.91999989002943 761
7.9399998895824 743
7.95999988913536 762
7.97999988868833 806
7.99999988824129 713
8.01999988779426 774
8.03999988734722 679
8.05999988690019 711
8.07999988645315 782
8.09999988600612 764
8.11999988555908 692
8.13999988511205 756
8.15999988466501 769
8.17999988421798 759
8.19999988377094 743
8.21999988332391 735
8.23999988287687 760
8.25999988242984 674
8.2799998819828 748
8.29999988153577 745
8.31999988108873 784
8.3399998806417 702
8.35999988019466 728
8.37999987974763 749
8.39999987930059 718
8.41999987885356 686
8.43999987840652 733
8.45999987795949 744
8.47999987751245 730
8.49999987706542 696
8.51999987661839 733
8.53999987617135 719
8.55999987572432 724
8.57999987527728 708
8.59999987483025 747
8.61999987438321 746
8.63999987393618 784
8.65999987348914 701
8.67999987304211 738
8.69999987259507 728
8.71999987214804 782
8.739999871701 782
8.75999987125397 722
8.77999987080693 762
8.7999998703599 757
8.81999986991286 744
8.83999986946583 747
8.85999986901879 712
8.87999986857176 720
8.89999986812472 708
8.91999986767769 744
8.93999986723065 738
8.95999986678362 739
8.97999986633658 745
8.99999986588955 757
9.01999986544251 738
9.03999986499548 713
9.05999986454844 738
9.07999986410141 734
9.09999986365438 758
9.11999986320734 697
9.13999986276031 708
9.15999986231327 727
9.17999986186624 703
9.1999998614192 718
9.21999986097217 722
9.23999986052513 690
9.2599998600781 722
9.27999985963106 721
9.29999985918403 713
9.31999985873699 727
9.33999985828996 710
9.35999985784292 743
9.37999985739589 704
9.39999985694885 706
9.41999985650182 715
9.43999985605478 692
9.45999985560775 701
9.47999985516071 727
9.49999985471368 727
9.51999985426664 681
9.53999985381961 682
9.55999985337257 686
9.57999985292554 718
9.5999998524785 700
9.61999985203147 746
9.63999985158443 726
9.6599998511374 709
9.67999985069037 688
9.69999985024333 757
9.7199998497963 670
9.73999984934926 681
9.75999984890223 714
9.77999984845519 715
9.79999984800816 714
9.81999984756112 728
9.83999984711409 735
9.85999984666705 737
9.87999984622002 672
9.89999984577298 706
9.91999984532595 715
9.93999984487891 724
9.95999984443188 665
9.97999984398484 684
9.99999984353781 741
10.0199998430908 710
10.0399998426437 717
10.0599998421967 700
10.0799998417497 680
10.0999998413026 702
10.1199998408556 707
10.1399998404086 749
10.1599998399615 738
10.1799998395145 625
10.1999998390675 727
10.2199998386204 702
10.2399998381734 736
10.2599998377264 731
10.2799998372793 690
10.2999998368323 706
10.3199998363853 705
10.3399998359382 711
10.3599998354912 687
10.3799998350441 705
10.3999998345971 742
10.4199998341501 729
10.439999833703 673
10.459999833256 673
10.479999832809 693
10.4999998323619 725
10.5199998319149 652
10.5399998314679 707
10.5599998310208 668
10.5799998305738 694
10.5999998301268 717
10.6199998296797 725
10.6399998292327 703
10.6599998287857 723
10.6799998283386 688
10.6999998278916 694
10.7199998274446 691
10.7399998269975 709
10.7599998265505 694
10.7799998261034 665
10.7999998256564 653
10.8199998252094 726
10.8399998247623 668
10.8599998243153 675
10.8799998238683 713
10.8999998234212 683
10.9199998229742 659
10.9399998225272 695
10.9599998220801 718
10.9799998216331 690
10.9999998211861 685
11.019999820739 674
11.039999820292 698
11.059999819845 667
11.0799998193979 684
11.0999998189509 736
11.1199998185039 701
11.1399998180568 707
11.1599998176098 701
11.1799998171628 739
11.1999998167157 697
11.2199998162687 752
11.2399998158216 705
11.2599998153746 709
11.2799998149276 694
11.2999998144805 692
11.3199998140335 683
11.3399998135865 694
11.3599998131394 739
11.3799998126924 683
11.3999998122454 701
11.4199998117983 723
11.4399998113513 715
11.4599998109043 705
11.4799998104572 672
11.4999998100102 674
11.5199998095632 681
11.5399998091161 738
11.5599998086691 694
11.5799998082221 687
11.599999807775 645
11.619999807328 677
11.639999806881 709
11.6599998064339 744
11.6799998059869 698
11.6999998055398 672
11.7199998050928 684
11.7399998046458 649
11.7599998041987 709
11.7799998037517 702
11.7999998033047 681
11.8199998028576 717
11.8399998024106 693
11.8599998019636 707
11.8799998015165 716
11.8999998010695 682
11.9199998006225 643
11.9399998001754 700
11.9599997997284 701
11.9799997992814 712
11.9999997988343 751
12.0199997983873 746
12.0399997979403 749
12.0599997974932 640
12.0799997970462 677
12.0999997965992 661
12.1199997961521 691
12.1399997957051 711
12.159999795258 729
12.179999794811 732
12.199999794364 686
12.2199997939169 672
12.2399997934699 689
12.2599997930229 684
12.2799997925758 717
12.2999997921288 693
12.3199997916818 673
12.3399997912347 714
12.3599997907877 711
12.3799997903407 708
12.3999997898936 715
12.4199997894466 659
12.4399997889996 696
12.4599997885525 670
12.4799997881055 704
12.4999997876585 680
12.5199997872114 684
12.5399997867644 679
12.5599997863173 688
12.5799997858703 705
12.5999997854233 689
12.6199997849762 706
12.6399997845292 679
12.6599997840822 675
12.6799997836351 709
12.6999997831881 685
12.7199997827411 691
12.739999782294 691
12.759999781847 678
12.7799997814 708
12.7999997809529 708
12.8199997805059 646
12.8399997800589 706
12.8599997796118 687
12.8799997791648 693
12.8999997787178 678
12.9199997782707 693
12.9399997778237 721
12.9599997773767 680
12.9799997769296 716
12.9999997764826 661
13.0199997760355 732
13.0399997755885 724
13.0599997751415 685
13.0799997746944 702
13.0999997742474 709
13.1199997738004 706
13.1399997733533 666
13.1599997729063 691
13.1799997724593 708
13.1999997720122 682
13.2199997715652 668
13.2399997711182 693
13.2599997706711 680
13.2799997702241 700
13.2999997697771 691
13.31999976933 730
13.339999768883 716
13.359999768436 729
13.3799997679889 705
13.3999997675419 682
13.4199997670949 728
13.4399997666478 697
13.4599997662008 701
13.4799997657537 712
13.4999997653067 706
13.5199997648597 691
13.5399997644126 700
13.5599997639656 709
13.5799997635186 717
13.5999997630715 698
13.6199997626245 720
13.6399997621775 680
13.6599997617304 726
13.6799997612834 720
13.6999997608364 706
13.7199997603893 737
13.7399997599423 771
13.7599997594953 710
13.7799997590482 679
13.7999997586012 682
13.8199997581542 701
13.8399997577071 790
13.8599997572601 711
13.879999756813 720
13.899999756366 740
13.919999755919 718
13.9399997554719 722
13.9599997550249 723
13.9799997545779 704
13.9999997541308 697
14.0199997536838 737
14.0399997532368 729
14.0599997527897 703
14.0799997523427 678
14.0999997518957 723
14.1199997514486 708
14.1399997510016 757
14.1599997505546 713
14.1799997501075 731
14.1999997496605 756
14.2199997492135 715
14.2399997487664 669
14.2599997483194 723
14.2799997478724 692
14.2999997474253 775
14.3199997469783 757
14.3399997465312 722
14.3599997460842 700
14.3799997456372 735
14.3999997451901 733
14.4199997447431 754
14.4399997442961 767
14.459999743849 774
14.479999743402 724
14.499999742955 723
14.5199997425079 736
14.5399997420609 730
14.5599997416139 764
14.5799997411668 737
14.5999997407198 687
14.6199997402728 694
14.6399997398257 800
14.6599997393787 721
14.6799997389317 708
14.6999997384846 723
14.7199997380376 724
14.7399997375906 752
14.7599997371435 750
14.7799997366965 746
14.7999997362494 740
14.8199997358024 721
14.8399997353554 737
14.8599997349083 759
14.8799997344613 768
14.8999997340143 712
14.9199997335672 721
14.9399997331202 790
14.9599997326732 800
14.9799997322261 732
14.9999997317791 731
15.0199997313321 757
15.039999730885 819
15.059999730438 738
15.079999729991 760
15.0999997295439 784
15.1199997290969 779
15.1399997286499 767
15.1599997282028 736
15.1799997277558 822
15.1999997273088 770
15.2199997268617 774
15.2399997264147 755
15.2599997259676 801
15.2799997255206 803
15.2999997250736 807
15.3199997246265 787
15.3399997241795 817
15.3599997237325 803
15.3799997232854 779
15.3999997228384 781
15.4199997223914 784
15.4399997219443 788
15.4599997214973 798
15.4799997210503 819
15.4999997206032 788
15.5199997201562 835
15.5399997197092 813
15.5599997192621 763
15.5799997188151 773
15.5999997183681 747
15.619999717921 815
15.639999717474 785
15.659999717027 819
15.6799997165799 822
15.6999997161329 838
15.7199997156858 802
15.7399997152388 768
15.7599997147918 805
15.7799997143447 838
15.7999997138977 792
15.8199997134507 809
15.8399997130036 818
15.8599997125566 870
15.8799997121096 797
15.8999997116625 864
15.9199997112155 793
15.9399997107685 847
15.9599997103214 869
15.9799997098744 847
15.9999997094274 887
16.0199997089803 821
16.0399997085333 809
16.0599997080863 790
16.0799997076392 855
16.0999997071922 822
16.1199997067451 865
16.1399997062981 829
16.1599997058511 873
16.179999705404 851
16.199999704957 834
16.21999970451 855
16.2399997040629 867
16.2599997036159 819
16.2799997031689 869
16.2999997027218 826
16.3199997022748 833
16.3399997018278 814
16.3599997013807 848
16.3799997009337 902
16.3999997004867 856
16.4199997000396 870
16.4399996995926 838
16.4599996991456 866
16.4799996986985 895
16.4999996982515 843
16.5199996978045 894
16.5399996973574 915
16.5599996969104 898
16.5799996964633 944
16.5999996960163 921
16.6199996955693 878
16.6399996951222 885
16.6599996946752 974
16.6799996942282 919
16.6999996937811 953
16.7199996933341 946
16.7399996928871 970
16.75999969244 969
16.779999691993 979
16.799999691546 998
16.8199996910989 1041
16.8399996906519 1010
16.8599996902049 1128
16.8799996897578 1147
16.8999996893108 1216
16.9199996888638 1390
16.9399996884167 1444
16.9599996879697 1530
16.9799996875226 1735
16.9999996870756 1867
17.0199996866286 1863
17.0399996861815 1978
17.0599996857345 1950
17.0799996852875 1928
17.0999996848404 1779
17.1199996843934 1701
17.1399996839464 1601
17.1599996834993 1473
17.1799996830523 1260
17.1999996826053 1287
17.2199996821582 1217
17.2399996817112 1112
17.2599996812642 1138
17.2799996808171 1089
17.2999996803701 1118
17.3199996799231 1045
17.339999679476 993
17.359999679029 985
17.379999678582 1043
17.3999996781349 1024
17.4199996776879 1005
17.4399996772408 997
17.4599996767938 1057
17.4799996763468 1015
17.4999996758997 955
17.5199996754527 1007
17.5399996750057 996
17.5599996745586 970
17.5799996741116 1017
17.5999996736646 966
17.6199996732175 1030
17.6399996727705 936
17.6599996723235 1002
17.6799996718764 1002
17.6999996714294 1048
17.7199996709824 1005
17.7399996705353 1071
17.7599996700883 1019
17.7799996696413 1059
17.7999996691942 1017
17.8199996687472 976
17.8399996683002 995
17.8599996678531 998
17.8799996674061 1053
17.899999666959 1034
17.919999666512 1060
17.939999666065 1027
17.9599996656179 1032
17.9799996651709 1071
17.9999996647239 1113
18.0199996642768 1076
18.0399996638298 1071
18.0599996633828 1069
18.0799996629357 1077
18.0999996624887 1091
18.1199996620417 1089
18.1399996615946 1086
18.1599996611476 1054
18.1799996607006 1107
18.1999996602535 1057
18.2199996598065 1052
18.2399996593595 1017
18.2599996589124 1123
18.2799996584654 1113
18.2999996580184 1099
18.3199996575713 1089
18.3399996571243 1088
18.3599996566772 1083
18.3799996562302 1116
18.3999996557832 1089
18.4199996553361 1111
18.4399996548891 1075
18.4599996544421 1084
18.479999653995 1069
18.499999653548 1152
18.519999653101 1097
18.5399996526539 1208
18.5599996522069 1141
18.5799996517599 1172
18.5999996513128 1156
18.6199996508658 1121
18.6399996504188 1139
18.6599996499717 1129
18.6799996495247 1100
18.6999996490777 1150
18.7199996486306 1137
18.7399996481836 1166
18.7599996477366 1131
18.7799996472895 1127
18.7999996468425 1151
18.8199996463954 1162
18.8399996459484 1152
18.8599996455014 1190
18.8799996450543 1157
18.8999996446073 1194
18.9199996441603 1199
18.9399996437132 1186
18.9599996432662 1163
18.9799996428192 1221
18.9999996423721 1246
19.0199996419251 1246
19.0399996414781 1191
19.059999641031 1220
19.079999640584 1220
19.099999640137 1184
19.1199996396899 1228
19.1399996392429 1161
19.1599996387959 1241
19.1799996383488 1203
19.1999996379018 1224
19.2199996374547 1161
19.2399996370077 1239
19.2599996365607 1222
19.2799996361136 1241
19.2999996356666 1227
19.3199996352196 1238
19.3399996347725 1223
19.3599996343255 1283
19.3799996338785 1247
19.3999996334314 1240
19.4199996329844 1281
19.4399996325374 1241
19.4599996320903 1303
19.4799996316433 1258
19.4999996311963 1263
19.5199996307492 1288
19.5399996303022 1303
19.5599996298552 1251
19.5799996294081 1277
19.5999996289611 1340
19.6199996285141 1277
19.639999628067 1298
19.65999962762 1292
19.6799996271729 1351
19.6999996267259 1289
19.7199996262789 1228
19.7399996258318 1344
19.7599996253848 1337
19.7799996249378 1298
19.7999996244907 1395
19.8199996240437 1390
19.8399996235967 1329
19.8599996231496 1314
19.8799996227026 1282
19.8999996222556 1345
19.9199996218085 1350
19.9399996213615 1348
19.9599996209145 1326
19.9799996204674 1353
19.9999996200204 1379
