3 2072
3.01999999955297 1891
3.03999999910593 1870
3.0599999986589 1746
3.07999999821186 1665
3.09999999776483 1539
3.11999999731779 1555
3.13999999687076 1503
3.15999999642372 1489
3.17999999597669 1501
3.19999999552965 1430
3.21999999508262 1426
3.23999999463558 1437
3.25999999418855 1427
3.27999999374151 1444
3.29999999329448 1381
3.31999999284744 1347
3.33999999240041 1356
3.35999999195337 1418
3.37999999150634 1390
3.3999999910593 1428
3.41999999061227 1404
3.43999999016523 1344
3.4599999897182 1327
3.47999998927116 1320
3.49999998882413 1358
3.51999998837709 1299
3.53999998793006 1310
3.55999998748302 1358
3.57999998703599 1315
3.59999998658895 1334
3.61999998614192 1323
3.63999998569489 1302
3.65999998524785 1307
3.67999998480082 1307
3.69999998435378 1266
3.71999998390675 1227
3.73999998345971 1276
3.75999998301268 1311
3.77999998256564 1306
3.79999998211861 1323
3.81999998167157 1287
3.83999998122454 1396
3.8599999807775 1263
3.87999998033047 1246
3.89999997988343 1265
3.9199999794364 1216
3.93999997898936 1213
3.95999997854233 1261
3.97999997809529 1330
3.99999997764826 1344
4.01999997720122 1225
4.03999997675419 1244
4.05999997630715 1300
4.07999997586012 1324
4.09999997541308 1288
4.11999997496605 1257
4.13999997451901 1219
4.15999997407198 1288
4.17999997362494 1245
4.19999997317791 1228
4.21999997273087 1216
4.23999997228384 1273
4.25999997183681 1323
4.27999997138977 1219
4.29999997094274 1257
4.3199999704957 1231
4.33999997004867 1254
4.35999996960163 1281
4.3799999691546 1339
4.39999996870756 1226
4.41999996826053 1246
4.43999996781349 1284
4.45999996736646 1321
4.47999996691942 1239
4.49999996647239 1276
4.51999996602535 1279
4.53999996557832 1234
4.55999996513128 1264
4.57999996468425 1294
4.59999996423721 1304
4.61999996379018 1320
4.63999996334314 1257
4.65999996289611 1259
4.67999996244907 1336
4.69999996200204 1309
4.719999961555 1295
4.73999996110797 1272
4.75999996066093 1321
4.7799999602139 1342
4.79999995976686 1333
4.81999995931983 1215
4.83999995887279 1348
4.85999995842576 1202
4.87999995797873 1263
4.89999995753169 1355
4.91999995708466 1299
4.93999995663762 1353
4.95999995619059 1371
4.97999995574355 1318
4.99999995529652 1318
5.01999995484948 1322
5.03999995440245 1309
5.05999995395541 1315
5.07999995350838 1350
5.09999995306134 1376
5.11999995261431 1364
5.13999995216727 1408
5.15999995172024 1319
5.1799999512732 1329
5.19999995082617 1367
5.21999995037913 1284
5.2399999499321 1291
5.25999994948506 1351
5.27999994903803 1338
5.29999994859099 1318
5.31999994814396 1328
5.33999994769692 1316
5.35999994724989 1359
5.37999994680285 1339
5.39999994635582 1289
5.41999994590878 1378
5.43999994546175 1249
5.45999994501471 1305
5.47999994456768 1386
5.49999994412065 1305
5.51999994367361 1305
5.53999994322658 1348
5.55999994277954 1303
5.57999994233251 1321
5.59999994188547 1326
5.61999994143844 1318
5.6399999409914 1265
5.65999994054437 1283
5.67999994009733 1316
5.6999999396503 1280
5.71999993920326 1280
5.73999993875623 1329
5.75999993830919 1231
5.77999993786216 1288
5.79999993741512 1176
5.81999993696809 1294
5.83999993652105 1217
5.85999993607402 1200
5.87999993562698 1207
5.89999993517995 1178
5.91999993473291 1175
5.93999993428588 1250
5.95999993383884 1223
5.97999993339181 1185
5.99999993294477 1233
6.01999993249774 1112
6.0399999320507 1186
6.05999993160367 1144
6.07999993115663 1183
6.0999999307096 1149
6.11999993026257 1232
6.13999992981553 1183
6.1599999293685 1082
6.17999992892146 1142
6.19999992847443 1116
6.21999992802739 1162
6.23999992758036 1161
6.25999992713332 1099
6.27999992668629 1124
6.29999992623925 1124
6.31999992579222 1093
6.33999992534518 1140
6.35999992489815 1110
6.37999992445111 1010
6.39999992400408 1054
6.41999992355704 1030
6.43999992311001 1014
6.45999992266297 1041
6.47999992221594 1029
6.4999999217689 1037
6.51999992132187 1001
6.53999992087483 1045
6.5599999204278 995
6.57999991998076 991
6.59999991953373 991
6.61999991908669 989
6.63999991863966 1025
6.65999991819262 948
6.67999991774559 995
6.69999991729855 939
6.71999991685152 985
6.73999991640449 1023
6.75999991595745 937
6.77999991551042 920
6.79999991506338 921
6.81999991461635 933
6.83999991416931 929
6.85999991372228 967
6.87999991327524 944
6.89999991282821 902
6.91999991238117 906
6.93999991193414 965
6.9599999114871 946
6.97999991104007 963
6.99999991059303 934
7.019999910146 918
7.03999990969896 885
7.05999990925193 881
7.07999990880489 950
7.09999990835786 894
7.11999990791082 850
7.13999990746379 936
7.15999990701675 954
7.17999990656972 850
7.19999990612268 860
7.21999990567565 853
7.23999990522861 879
7.25999990478158 892
7.27999990433454 858
7.29999990388751 814
7.31999990344047 829
7.33999990299344 851
7.35999990254641 832
7.37999990209937 868
7.39999990165234 870
7.4199999012053 837
7.43999990075827 853
7.45999990031123 868
7.4799998998642 815
7.49999989941716 833
7.51999989897013 833
7.53999989852309 844
7.55999989807606 899
7.57999989762902 879
7.59999989718199 881
7.61999989673495 814
7.63999989628792 771
7.65999989584088 796
7.67999989539385 846
7.69999989494681 805
7.71999989449978 821
7.73999989405274 877
7.75999989360571 862
7.77999989315867 839
7.79999989271164 799
7.8199998922646 833
7.83999989181757 783
7.85999989137053 874
7.8799998909235 871
7.89999989047646 823
7.91999989002943 830
7.9399998895824 838
7.95999988913536 815
7.97999988868833 795
7.99999988824129 821
8.01999988779426 800
8.03999988734722 852
8.05999988690019 808
8.07999988645315 784
8.09999988600612 813
8.11999988555908 819
8.13999988511205 840
8.15999988466501 858
8.17999988421798 795
8.19999988377094 845
8.21999988332391 790
8.23999988287687 825
8.25999988242984 803
8.2799998819828 805
8.29999988153577 759
8.31999988108873 814
8.3399998806417 775
8.35999988019466 842
8.37999987974763 774
8.39999987930059 770
8.41999987885356 794
8.43999987840652 781
8.45999987795949 789
8.47999987751245 743
8.49999987706542 815
8.51999987661839 822
8.53999987617135 817
8.55999987572432 811
8.57999987527728 793
8.59999987483025 812
8.61999987438321 814
8.63999987393618 851
8.65999987348914 809
8.67999987304211 797
8.69999987259507 800
8.71999987214804 756
8.739999871701 780
8.75999987125397 760
8.77999987080693 807
8.7999998703599 790
8.81999986991286 798
8.83999986946583 820
8.85999986901879 794
8.87999986857176 839
8.89999986812472 786
8.91999986767769 781
8.93999986723065 810
8.95999986678362 797
8.97999986633658 785
8.99999986588955 809
9.01999986544251 798
9.03999986499548 790
9.05999986454844 775
9.07999986410141 792
9.09999986365438 806
9.11999986320734 775
9.13999986276031 815
9.15999986231327 790
9.17999986186624 831
9.1999998614192 787
9.21999986097217 802
9.23999986052513 814
9.2599998600781 841
9.27999985963106 824
9.29999985918403 782
9.31999985873699 778
9.33999985828996 777
9.35999985784292 777
9.37999985739589 803
9.39999985694885 795
9.41999985650182 853
9.43999985605478 763
9.45999985560775 768
9.47999985516071 807
9.49999985471368 784
9.51999985426664 745
9.53999985381961 760
9.55999985337257 850
9.57999985292554 838
9.5999998524785 791
9.61999985203147 806
9.63999985158443 812
9.6599998511374 793
9.67999985069037 812
9.69999985024333 796
9.7199998497963 754
9.73999984934926 864
9.75999984890223 812
9.77999984845519 782
9.79999984800816 755
9.81999984756112 793
9.83999984711409 798
9.85999984666705 735
9.87999984622002 787
9.89999984577298 819
9.91999984532595 778
9.93999984487891 815
9.95999984443188 811
9.97999984398484 742
9.99999984353781 823
10.0199998430908 848
10.0399998426437 791
10.0599998421967 867
10.0799998417497 796
10.0999998413026 818
10.1199998408556 840
10.1399998404086 816
10.1599998399615 811
10.1799998395145 811
10.1999998390675 787
10.2199998386204 806
10.2399998381734 777
10.2599998377264 771
10.2799998372793 806
10.2999998368323 800
10.3199998363853 788
10.3399998359382 781
10.3599998354912 769
10.3799998350441 782
10.3999998345971 818
10.4199998341501 867
10.439999833703 834
10.459999833256 800
10.479999832809 763
10.4999998323619 764
10.5199998319149 826
10.5399998314679 806
10.5599998310208 773
10.5799998305738 823
10.5999998301268 770
10.6199998296797 807
10.6399998292327 800
10.6599998287857 834
10.6799998283386 770
10.6999998278916 839
10.7199998274446 822
10.7399998269975 754
10.7599998265505 739
10.7799998261034 824
10.7999998256564 788
10.8199998252094 865
10.8399998247623 833
10.8599998243153 812
10.8799998238683 810
10.8999998234212 793
10.9199998229742 809
10.9399998225272 848
10.9599998220801 787
10.9799998216331 757
10.9999998211861 784
11.019999820739 819
11.039999820292 820
11.059999819845 803
11.0799998193979 760
11.0999998189509 815
11.1199998185039 788
11.1399998180568 764
11.1599998176098 773
11.1799998171628 771
11.1999998167157 817
11.2199998162687 821
11.2399998158216 827
11.2599998153746 813
11.2799998149276 747
11.2999998144805 835
11.3199998140335 815
11.3399998135865 784
11.3599998131394 805
11.3799998126924 757
11.3999998122454 783
11.4199998117983 812
11.4399998113513 847
11.4599998109043 836
11.4799998104572 804
11.4999998100102 784
11.5199998095632 764
11.5399998091161 836
11.5599998086691 823
11.5799998082221 833
11.599999807775 768
11.619999807328 836
11.639999806881 812
11.6599998064339 751
11.6799998059869 792
11.6999998055398 744
11.7199998050928 781
11.7399998046458 770
11.7599998041987 764
11.7799998037517 787
11.7999998033047 780
11.8199998028576 845
11.8399998024106 850
11.8599998019636 759
11.8799998015165 787
11.8999998010695 802
11.9199998006225 783
11.9399998001754 786
11.9599997997284 793
11.9799997992814 785
11.9999997988343 766
12.0199997983873 816
12.0399997979403 810
12.0599997974932 836
12.0799997970462 793
12.0999997965992 806
12.1199997961521 797
12.1399997957051 832
12.159999795258 844
12.179999794811 793
12.199999794364 797
12.2199997939169 850
12.2399997934699 816
12.2599997930229 800
12.2799997925758 766
12.2999997921288 792
12.3199997916818 801
12.3399997912347 795
12.3599997907877 791
12.3799997903407 821
12.3999997898936 868
12.4199997894466 823
12.4399997889996 785
12.4599997885525 819
12.4799997881055 815
12.4999997876585 833
12.5199997872114 802
12.5399997867644 822
12.5599997863173 799
12.5799997858703 776
12.5999997854233 772
12.6199997849762 841
12.6399997845292 795
12.6599997840822 813
12.6799997836351 774
12.6999997831881 818
12.7199997827411 803
12.739999782294 828
12.759999781847 842
12.7799997814 808
12.7999997809529 794
12.8199997805059 775
12.8399997800589 843
12.8599997796118 838
12.8799997791648 870
12.8999997787178 815
12.9199997782707 848
12.9399997778237 775
12.9599997773767 773
12.9799997769296 777
12.9999997764826 820
13.0199997760355 825
13.0399997755885 808
13.0599997751415 778
13.0799997746944 812
13.0999997742474 780
13.1199997738004 823
13.1399997733533 831
13.1599997729063 880
13.1799997724593 847
13.1999997720122 820
13.2199997715652 826
13.2399997711182 880
13.2599997706711 876
13.2799997702241 867
13.2999997697771 876
13.31999976933 799
13.339999768883 841
13.359999768436 836
13.3799997679889 822
13.3999997675419 846
13.4199997670949 824
13.4399997666478 786
13.4599997662008 853
13.4799997657537 863
13.4999997653067 818
13.5199997648597 824
13.5399997644126 857
13.5599997639656 868
13.5799997635186 852
13.5999997630715 841
13.6199997626245 845
13.6399997621775 846
13.6599997617304 868
13.6799997612834 887
13.6999997608364 832
13.7199997603893 843
13.7399997599423 854
13.7599997594953 883
13.7799997590482 836
13.7999997586012 814
13.8199997581542 880
13.8399997577071 888
13.8599997572601 858
13.879999756813 838
13.899999756366 840
13.919999755919 873
13.9399997554719 862
13.9599997550249 832
13.9799997545779 872
13.9999997541308 858
14.0199997536838 871
14.0399997532368 851
14.0599997527897 883
14.0799997523427 860
14.0999997518957 892
14.1199997514486 916
14.1399997510016 858
14.1599997505546 908
14.1799997501075 888
14.1999997496605 937
14.2199997492135 879
14.2399997487664 894
14.2599997483194 895
14.2799997478724 893
14.2999997474253 909
14.3199997469783 846
14.3399997465312 952
14.3599997460842 891
14.3799997456372 830
14.3999997451901 843
14.4199997447431 928
14.4399997442961 924
14.459999743849 928
14.479999743402 930
14.499999742955 915
14.5199997425079 904
14.5399997420609 914
14.5599997416139 910
14.5799997411668 932
14.5999997407198 880
14.6199997402728 922
14.6399997398257 905
14.6599997393787 906
14.6799997389317 951
14.6999997384846 916
14.7199997380376 870
14.7399997375906 887
14.7599997371435 892
14.7799997366965 891
14.7999997362494 970
14.8199997358024 921
14.8399997353554 947
14.8599997349083 942
14.8799997344613 924
14.8999997340143 921
14.9199997335672 911
14.9399997331202 995
14.9599997326732 948
14.9799997322261 962
14.9999997317791 948
15.0199997313321 965
15.039999730885 981
15.059999730438 960
15.079999729991 923
15.0999997295439 940
15.1199997290969 979
15.1399997286499 979
15.1599997282028 1016
15.1799997277558 983
15.1999997273088 945
15.2199997268617 975
15.2399997264147 1031
15.2599997259676 996
15.2799997255206 984
15.2999997250736 984
15.3199997246265 991
15.3399997241795 976
15.3599997237325 1043
15.3799997232854 1025
15.3999997228384 985
15.4199997223914 971
15.4399997219443 999
15.4599997214973 1048
15.4799997210503 1019
15.4999997206032 990
15.5199997201562 1039
15.5399997197092 1038
15.5599997192621 1006
15.5799997188151 1109
15.5999997183681 1034
15.619999717921 1012
15.639999717474 1049
15.659999717027 1010
15.6799997165799 1097
15.6999997161329 1022
15.7199997156858 1032
15.7399997152388 1039
15.7599997147918 1029
15.7799997143447 1058
15.7999997138977 1082
15.8199997134507 1049
15.8399997130036 1072
15.8599997125566 1075
15.8799997121096 1078
15.8999997116625 1047
15.9199997112155 1139
15.9399997107685 1092
15.9599997103214 1090
15.9799997098744 1067
15.9999997094274 1111
16.0199997089803 1065
16.0399997085333 1055
16.0599997080863 1043
16.0799997076392 1080
16.0999997071922 1098
16.1199997067451 1072
16.1399997062981 1105
16.1599997058511 1106
16.179999705404 1103
16.199999704957 1098
16.21999970451 1124
16.2399997040629 1127
16.2599997036159 1112
16.2799997031689 1143
16.2999997027218 1195
16.3199997022748 1110
16.3399997018278 1130
16.3599997013807 1159
16.3799997009337 1084
16.3999997004867 1177
16.4199997000396 1130
16.4399996995926 1135
16.4599996991456 1167
16.4799996986985 1167
16.4999996982515 1214
16.5199996978045 1111
16.5399996973574 1149
16.5599996969104 1183
16.5799996964633 1122
16.5999996960163 1164
16.6199996955693 1218
16.6399996951222 1162
16.6599996946752 1127
16.6799996942282 1193
16.6999996937811 1237
16.7199996933341 1214
16.7399996928871 1230
16.75999969244 1269
16.779999691993 1272
16.799999691546 1283
16.8199996910989 1319
16.8399996906519 1399
16.8599996902049 1352
16.8799996897578 1342
16.8999996893108 1437
16.9199996888638 1626
16.9399996884167 1552
16.9599996879697 1651
16.9799996875226 1763
16.9999996870756 1861
17.0199996866286 1846
17.0399996861815 1847
17.0599996857345 1832
17.0799996852875 1788
17.0999996848404 1697
17.1199996843934 1623
17.1399996839464 1579
17.1599996834993 1593
17.1799996830523 1546
17.1999996826053 1491
17.2199996821582 1486
17.2399996817112 1479
17.2599996812642 1499
17.2799996808171 1491
17.2999996803701 1392
17.3199996799231 1399
17.339999679476 1486
17.359999679029 1419
17.379999678582 1431
17.3999996781349 1401
17.4199996776879 1295
17.4399996772408 1338
17.4599996767938 1352
17.4799996763468 1359
17.4999996758997 1346
17.5199996754527 1322
17.5399996750057 1349
17.5599996745586 1365
17.5799996741116 1278
17.5999996736646 1317
17.6199996732175 1365
17.6399996727705 1361
17.6599996723235 1433
17.6799996718764 1346
17.6999996714294 1363
17.7199996709824 1483
17.7399996705353 1364
17.7599996700883 1387
17.7799996696413 1376
17.7999996691942 1374
17.8199996687472 1377
17.8399996683002 1410
17.8599996678531 1413
17.8799996674061 1484
17.899999666959 1398
17.919999666512 1469
17.939999666065 1390
17.9599996656179 1454
17.9799996651709 1447
17.9999996647239 1400
18.0199996642768 1403
18.0399996638298 1440
18.0599996633828 1419
18.0799996629357 1466
18.0999996624887 1474
18.1199996620417 1454
18.1399996615946 1405
18.1599996611476 1524
18.1799996607006 1424
18.1999996602535 1508
18.2199996598065 1468
18.2399996593595 1498
18.2599996589124 1489
18.2799996584654 1548
18.2999996580184 1493
18.3199996575713 1485
18.3399996571243 1524
18.3599996566772 1471
18.3799996562302 1535
18.3999996557832 1563
18.4199996553361 1447
18.4399996548891 1538
18.4599996544421 1560
18.479999653995 1520
18.499999653548 1557
18.519999653101 1533
18.5399996526539 1596
18.5599996522069 1635
18.5799996517599 1515
18.5999996513128 1507
18.6199996508658 1568
18.6399996504188 1581
18.6599996499717 1485
18.6799996495247 1554
18.6999996490777 1560
18.7199996486306 1560
18.7399996481836 1596
18.7599996477366 1506
18.7799996472895 1649
18.7999996468425 1661
18.8199996463954 1608
18.8399996459484 1596
18.8599996455014 1628
18.8799996450543 1640
18.8999996446073 1609
18.9199996441603 1664
18.9399996437132 1633
18.9599996432662 1625
18.9799996428192 1601
18.9999996423721 1644
19.0199996419251 1637
19.0399996414781 1668
19.059999641031 1618
19.079999640584 1602
19.099999640137 1650
19.1199996396899 1670
19.1399996392429 1634
19.1599996387959 1666
19.1799996383488 1608
19.1999996379018 1593
19.2199996374547 1671
19.2399996370077 1712
19.2599996365607 1603
19.2799996361136 1649
19.2999996356666 1685
19.3199996352196 1689
19.3399996347725 1700
19.3599996343255 1685
19.3799996338785 1722
19.3999996334314 1664
19.4199996329844 1732
19.4399996325374 1722
19.4599996320903 1695
19.4799996316433 1657
19.4999996311963 1670
19.5199996307492 1701
19.5399996303022 1733
19.5599996298552 1779
19.5799996294081 1657
19.5999996289611 1673
19.6199996285141 1678
19.639999628067 1748
19.65999962762 1698
19.6799996271729 1745
19.6999996267259 1730
19.7199996262789 1709
19.7399996258318 1747
19.7599996253848 1764
19.7799996249378 1843
19.7999996244907 1764
19.8199996240437 1764
19.8399996235967 1787
19.8599996231496 1777
19.8799996227026 1794
19.8999996222556 1797
19.9199996218085 1781
19.9399996213615 1708
19.9599996209145 1774
19.9799996204674 1755
19.9999996200204 1748
