3 2348
3.01999999955297 2283
3.03999999910593 2107
3.0599999986589 1947
3.07999999821186 1820
3.09999999776483 1704
3.11999999731779 1759
3.13999999687076 1689
3.15999999642372 1777
3.17999999597669 1709
3.19999999552965 1633
3.21999999508262 1702
3.23999999463558 1622
3.25999999418855 1574
3.27999999374151 1653
3.29999999329448 1562
3.31999999284744 1553
3.33999999240041 1580
3.35999999195337 1584
3.37999999150634 1532
3.3999999910593 1520
3.41999999061227 1429
3.43999999016523 1452
3.4599999897182 1489
3.47999998927116 1398
3.49999998882413 1434
3.51999998837709 1385
3.53999998793006 1426
3.55999998748302 1380
3.57999998703599 1348
3.59999998658895 1363
3.61999998614192 1361
3.63999998569489 1334
3.65999998524785 1342
3.67999998480082 1300
3.69999998435378 1289
3.71999998390675 1329
3.73999998345971 1301
3.75999998301268 1243
3.77999998256564 1240
3.79999998211861 1290
3.81999998167157 1272
3.83999998122454 1272
3.8599999807775 1224
3.87999998033047 1236
3.89999997988343 1223
3.9199999794364 1222
3.93999997898936 1156
3.95999997854233 1181
3.97999997809529 1177
3.99999997764826 1202
4.01999997720122 1104
4.03999997675419 1164
4.05999997630715 1107
4.07999997586012 1140
4.09999997541308 1127
4.11999997496605 1170
4.13999997451901 1110
4.15999997407198 1078
4.17999997362494 1013
4.19999997317791 1128
4.21999997273087 1141
4.23999997228384 1063
4.25999997183681 1068
4.27999997138977 1023
4.29999997094274 1094
4.3199999704957 1046
4.33999997004867 1031
4.35999996960163 1026
4.3799999691546 1051
4.39999996870756 1021
4.41999996826053 1058
4.43999996781349 1008
4.45999996736646 1001
4.47999996691942 970
4.49999996647239 1003
4.51999996602535 974
4.53999996557832 1025
4.55999996513128 998
4.57999996468425 1008
4.59999996423721 994
4.61999996379018 1003
4.63999996334314 976
4.65999996289611 929
4.67999996244907 953
4.69999996200204 1011
4.719999961555 951
4.73999996110797 958
4.75999996066093 956
4.7799999602139 1019
4.79999995976686 982
4.81999995931983 923
4.83999995887279 960
4.85999995842576 954
4.87999995797873 930
4.89999995753169 927
4.91999995708466 929
4.93999995663762 847
4.95999995619059 887
4.97999995574355 972
4.99999995529652 919
5.01999995484948 905
5.03999995440245 922
5.05999995395541 898
5.07999995350838 875
5.09999995306134 914
5.11999995261431 951
5.13999995216727 911
5.15999995172024 892
5.1799999512732 873
5.19999995082617 939
5.21999995037913 937
5.2399999499321 893
5.25999994948506 918
5.27999994903803 934
5.29999994859099 943
5.31999994814396 884
5.33999994769692 873
5.35999994724989 909
5.37999994680285 810
5.39999994635582 877
5.41999994590878 920
5.43999994546175 874
5.45999994501471 860
5.47999994456768 879
5.49999994412065 894
5.51999994367361 895
5.53999994322658 851
5.55999994277954 860
5.57999994233251 813
5.59999994188547 833
5.61999994143844 878
5.6399999409914 895
5.65999994054437 907
5.67999994009733 862
5.6999999396503 906
5.71999993920326 866
5.73999993875623 835
5.75999993830919 842
5.77999993786216 892
5.79999993741512 825
5.81999993696809 825
5.83999993652105 866
5.85999993607402 873
5.87999993562698 842
5.89999993517995 925
5.91999993473291 905
5.93999993428588 854
5.95999993383884 859
5.97999993339181 842
5.99999993294477 803
6.01999993249774 816
6.0399999320507 861
6.05999993160367 895
6.07999993115663 872
6.0999999307096 844
6.11999993026257 888
6.13999992981553 855
6.1599999293685 845
6.17999992892146 815
6.19999992847443 800
6.21999992802739 839
6.23999992758036 826
6.25999992713332 848
6.27999992668629 832
6.29999992623925 836
6.31999992579222 853
6.33999992534518 842
6.35999992489815 885
6.37999992445111 864
6.39999992400408 871
6.41999992355704 826
6.43999992311001 848
6.45999992266297 847
6.47999992221594 826
6.4999999217689 854
6.51999992132187 833
6.53999992087483 818
6.5599999204278 836
6.57999991998076 810
6.59999991953373 833
6.61999991908669 848
6.63999991863966 819
6.65999991819262 839
6.67999991774559 775
6.69999991729855 837
6.71999991685152 772
6.73999991640449 865
6.75999991595745 860
6.77999991551042 853
6.79999991506338 844
6.81999991461635 858
6.83999991416931 804
6.85999991372228 861
6.87999991327524 798
6.89999991282821 864
6.91999991238117 831
6.93999991193414 828
6.9599999114871 860
6.97999991104007 838
6.99999991059303 864
7.019999910146 813
7.03999990969896 822
7.05999990925193 834
7.07999990880489 757
7.09999990835786 823
7.11999990791082 823
7.13999990746379 810
7.15999990701675 813
7.17999990656972 777
7.19999990612268 793
7.21999990567565 804
7.23999990522861 797
7.25999990478158 808
7.27999990433454 807
7.29999990388751 858
7.31999990344047 844
7.33999990299344 797
7.35999990254641 806
7.37999990209937 821
7.39999990165234 815
7.4199999012053 811
7.43999990075827 791
7.45999990031123 796
7.4799998998642 820
7.49999989941716 806
7.51999989897013 772
7.53999989852309 822
7.55999989807606 785
7.57999989762902 742
7.59999989718199 846
7.61999989673495 802
7.63999989628792 809
7.65999989584088 857
7.67999989539385 784
7.69999989494681 782
7.71999989449978 838
7.73999989405274 806
7.75999989360571 811
7.77999989315867 822
7.79999989271164 817
7.8199998922646 767
7.83999989181757 822
7.85999989137053 809
7.8799998909235 776
7.89999989047646 829
7.91999989002943 766
7.9399998895824 830
7.95999988913536 824
7.97999988868833 801
7.99999988824129 773
8.01999988779426 759
8.03999988734722 802
8.05999988690019 767
8.07999988645315 765
8.09999988600612 811
8.11999988555908 814
8.13999988511205 808
8.15999988466501 809
8.17999988421798 829
8.19999988377094 745
8.21999988332391 788
8.23999988287687 810
8.25999988242984 794
8.2799998819828 791
8.29999988153577 775
8.31999988108873 764
8.3399998806417 800
8.35999988019466 770
8.37999987974763 783
8.39999987930059 798
8.41999987885356 762
8.43999987840652 706
8.45999987795949 769
8.47999987751245 756
8.49999987706542 772
8.51999987661839 753
8.53999987617135 711
8.55999987572432 717
8.57999987527728 729
8.59999987483025 780
8.61999987438321 776
8.63999987393618 747
8.65999987348914 785
8.67999987304211 777
8.69999987259507 777
8.71999987214804 783
8.739999871701 774
8.75999987125397 798
8.77999987080693 722
8.7999998703599 802
8.81999986991286 764
8.83999986946583 804
8.85999986901879 782
8.87999986857176 772
8.89999986812472 790
8.91999986767769 803
8.93999986723065 745
8.95999986678362 737
8.97999986633658 695
8.99999986588955 740
9.01999986544251 785
9.03999986499548 746
9.05999986454844 778
9.07999986410141 773
9.09999986365438 730
9.11999986320734 733
9.13999986276031 750
9.15999986231327 767
9.17999986186624 715
9.1999998614192 737
9.21999986097217 725
9.23999986052513 742
9.2599998600781 777
9.27999985963106 763
9.29999985918403 726
9.31999985873699 743
9.33999985828996 727
9.35999985784292 758
9.37999985739589 749
9.39999985694885 753
9.41999985650182 728
9.43999985605478 755
9.45999985560775 696
9.47999985516071 732
9.49999985471368 718
9.51999985426664 734
9.53999985381961 756
9.55999985337257 694
9.57999985292554 763
9.5999998524785 728
9.61999985203147 759
9.63999985158443 779
9.6599998511374 755
9.67999985069037 742
9.69999985024333 743
9.7199998497963 719
9.73999984934926 739
9.75999984890223 683
9.77999984845519 751
9.79999984800816 744
9.81999984756112 772
9.83999984711409 770
9.85999984666705 809
9.87999984622002 739
9.89999984577298 705
9.91999984532595 757
9.93999984487891 741
9.95999984443188 675
9.97999984398484 718
9.99999984353781 748
10.0199998430908 716
10.0399998426437 730
10.0599998421967 704
10.0799998417497 719
10.0999998413026 724
10.1199998408556 722
10.1399998404086 741
10.1599998399615 724
10.1799998395145 686
10.1999998390675 725
10.2199998386204 718
10.2399998381734 759
10.2599998377264 736
10.2799998372793 720
10.2999998368323 730
10.3199998363853 772
10.3399998359382 745
10.3599998354912 755
10.3799998350441 678
10.3999998345971 735
10.4199998341501 724
10.439999833703 678
10.459999833256 712
10.479999832809 719
10.4999998323619 708
10.5199998319149 663
10.5399998314679 706
10.5599998310208 716
10.5799998305738 726
10.5999998301268 750
10.6199998296797 771
10.6399998292327 704
10.6599998287857 737
10.6799998283386 725
10.6999998278916 724
10.7199998274446 731
10.7399998269975 756
10.7599998265505 720
10.7799998261034 746
10.7999998256564 708
10.8199998252094 733
10.8399998247623 743
10.8599998243153 734
10.8799998238683 718
10.8999998234212 706
10.9199998229742 692
10.9399998225272 734
10.9599998220801 715
10.9799998216331 747
10.9999998211861 736
11.019999820739 741
11.039999820292 691
11.059999819845 732
11.0799998193979 684
11.0999998189509 701
11.1199998185039 701
11.1399998180568 648
11.1599998176098 716
11.1799998171628 735
11.1999998167157 688
11.2199998162687 741
11.2399998158216 713
11.2599998153746 755
11.2799998149276 710
11.2999998144805 740
11.3199998140335 696
11.3399998135865 666
11.3599998131394 665
11.3799998126924 723
11.3999998122454 729
11.4199998117983 741
11.4399998113513 653
11.4599998109043 730
11.4799998104572 763
11.4999998100102 676
11.5199998095632 699
11.5399998091161 759
11.5599998086691 695
11.5799998082221 726
11.599999807775 677
11.619999807328 711
11.639999806881 716
11.6599998064339 699
11.6799998059869 719
11.6999998055398 709
11.7199998050928 730
11.7399998046458 759
11.7599998041987 731
11.7799998037517 726
11.7999998033047 734
11.8199998028576 712
11.8399998024106 720
11.8599998019636 753
11.8799998015165 708
11.8999998010695 750
11.9199998006225 695
11.9399998001754 740
11.9599997997284 715
11.9799997992814 713
11.9999997988343 701
12.0199997983873 682
12.0399997979403 752
12.0599997974932 768
12.0799997970462 705
12.0999997965992 714
12.1199997961521 736
12.1399997957051 716
12.159999795258 719
12.179999794811 718
12.199999794364 750
12.2199997939169 756
12.2399997934699 768
12.2599997930229 691
12.2799997925758 745
12.2999997921288 726
12.3199997916818 737
12.3399997912347 790
12.3599997907877 701
12.3799997903407 751
12.3999997898936 719
12.4199997894466 703
12.4399997889996 723
12.4599997885525 740
12.4799997881055 731
12.4999997876585 705
12.5199997872114 741
12.5399997867644 732
12.5599997863173 703
12.5799997858703 684
12.5999997854233 724
12.6199997849762 719
12.6399997845292 739
12.6599997840822 772
12.6799997836351 773
12.6999997831881 762
12.7199997827411 762
12.739999782294 698
12.759999781847 748
12.7799997814 773
12.7999997809529 742
12.8199997805059 727
12.8399997800589 710
12.8599997796118 741
12.8799997791648 756
12.8999997787178 752
12.9199997782707 731
12.9399997778237 774
12.9599997773767 707
12.9799997769296 727
12.9999997764826 762
13.0199997760355 758
13.0399997755885 730
13.0599997751415 707
13.0799997746944 783
13.0999997742474 742
13.1199997738004 774
13.1399997733533 760
13.1599997729063 722
13.1799997724593 750
13.1999997720122 701
13.2199997715652 733
13.2399997711182 762
13.2599997706711 702
13.2799997702241 807
13.2999997697771 750
13.31999976933 731
13.339999768883 705
13.359999768436 790
13.3799997679889 793
13.3999997675419 789
13.4199997670949 781
13.4399997666478 784
13.4599997662008 748
13.4799997657537 770
13.4999997653067 754
13.5199997648597 686
13.5399997644126 730
13.5599997639656 768
13.5799997635186 780
13.5999997630715 728
13.6199997626245 757
13.6399997621775 753
13.6599997617304 819
13.6799997612834 744
13.6999997608364 766
13.7199997603893 748
13.7399997599423 751
13.7599997594953 742
13.7799997590482 761
13.7999997586012 752
13.8199997581542 772
13.8399997577071 762
13.8599997572601 724
13.879999756813 769
13.899999756366 718
13.919999755919 738
13.9399997554719 757
13.9599997550249 738
13.9799997545779 770
13.9999997541308 804
14.0199997536838 739
14.0399997532368 790
14.0599997527897 773
14.0799997523427 837
14.0999997518957 772
14.1199997514486 760
14.1399997510016 814
14.1599997505546 791
14.1799997501075 805
14.1999997496605 833
14.2199997492135 745
14.2399997487664 757
14.2599997483194 767
14.2799997478724 832
14.2999997474253 774
14.3199997469783 754
14.3399997465312 767
14.3599997460842 795
14.3799997456372 778
14.3999997451901 786
14.4199997447431 786
14.4399997442961 768
14.459999743849 732
14.479999743402 768
14.499999742955 828
14.5199997425079 782
14.5399997420609 722
14.5599997416139 792
14.5799997411668 749
14.5999997407198 830
14.6199997402728 802
14.6399997398257 791
14.6599997393787 797
14.6799997389317 846
14.6999997384846 857
14.7199997380376 810
14.7399997375906 795
14.7599997371435 857
14.7799997366965 861
14.7999997362494 846
14.8199997358024 850
14.8399997353554 829
14.8599997349083 836
14.8799997344613 807
14.8999997340143 823
14.9199997335672 841
14.9399997331202 785
14.9599997326732 833
14.9799997322261 814
14.9999997317791 792
15.0199997313321 817
15.039999730885 778
15.059999730438 791
15.079999729991 811
15.0999997295439 828
15.1199997290969 804
15.1399997286499 790
15.1599997282028 836
15.1799997277558 875
15.1999997273088 816
15.2199997268617 850
15.2399997264147 798
15.2599997259676 889
15.2799997255206 841
15.2999997250736 843
15.3199997246265 845
15.3399997241795 807
15.3599997237325 827
15.3799997232854 821
15.3999997228384 865
15.4199997223914 813
15.4399997219443 861
15.4599997214973 906
15.4799997210503 905
15.4999997206032 870
15.5199997201562 875
15.5399997197092 816
15.5599997192621 865
15.5799997188151 802
15.5999997183681 880
15.619999717921 873
15.639999717474 892
15.659999717027 847
15.6799997165799 884
15.6999997161329 900
15.7199997156858 900
15.7399997152388 861
15.7599997147918 851
15.7799997143447 854
15.7999997138977 820
15.8199997134507 892
15.8399997130036 941
15.8599997125566 898
15.8799997121096 850
15.8999997116625 879
15.9199997112155 901
15.9399997107685 929
15.9599997103214 937
15.9799997098744 870
15.9999997094274 854
16.0199997089803 954
16.0399997085333 876
16.0599997080863 887
16.0799997076392 873
16.0999997071922 902
16.1199997067451 944
16.1399997062981 908
16.1599997058511 948
16.179999705404 960
16.199999704957 927
16.21999970451 937
16.2399997040629 909
16.2599997036159 933
16.2799997031689 938
16.2999997027218 941
16.3199997022748 946
16.3399997018278 957
16.3599997013807 965
16.3799997009337 978
16.3999997004867 943
16.4199997000396 979
16.4399996995926 959
16.4599996991456 975
16.4799996986985 970
16.4999996982515 934
16.5199996978045 953
16.5399996973574 993
16.5599996969104 978
16.5799996964633 949
16.5999996960163 997
16.6199996955693 1019
16.6399996951222 1020
16.6599996946752 1003
16.6799996942282 1014
16.6999996937811 1016
16.7199996933341 1091
16.7399996928871 1068
16.75999969244 1032
16.779999691993 1097
16.799999691546 1074
16.8199996910989 1125
16.8399996906519 1168
16.8599996902049 1236
16.8799996897578 1218
16.8999996893108 1340
16.9199996888638 1425
16.9399996884167 1529
16.9599996879697 1571
16.9799996875226 1699
16.9999996870756 1835
17.0199996866286 1826
17.0399996861815 1770
17.0599996857345 1853
17.0799996852875 1884
17.0999996848404 1820
17.1199996843934 1795
17.1399996839464 1947
17.1599996834993 1843
17.1799996830523 1803
17.1999996826053 1686
17.2199996821582 1623
17.2399996817112 1500
17.2599996812642 1373
17.2799996808171 1262
17.2999996803701 1155
17.3199996799231 1208
17.339999679476 1126
17.359999679029 1161
17.379999678582 1110
17.3999996781349 1136
17.4199996776879 1155
17.4399996772408 1093
17.4599996767938 1099
17.4799996763468 1119
17.4999996758997 1095
17.5199996754527 1121
17.5399996750057 1118
17.5599996745586 1164
17.5799996741116 1167
17.5999996736646 1161
17.6199996732175 1079
17.6399996727705 1133
17.6599996723235 1183
17.6799996718764 1213
17.6999996714294 1197
17.7199996709824 1143
17.7399996705353 1069
17.7599996700883 1106
17.7799996696413 1115
17.7999996691942 1131
17.8199996687472 1137
17.8399996683002 1168
17.8599996678531 1182
17.8799996674061 1122
17.899999666959 1140
17.919999666512 1194
17.939999666065 1190
17.9599996656179 1212
17.9799996651709 1188
17.9999996647239 1181
18.0199996642768 1162
18.0399996638298 1230
18.0599996633828 1201
18.0799996629357 1211
18.0999996624887 1146
18.1199996620417 1204
18.1399996615946 1248
18.1599996611476 1216
18.1799996607006 1242
18.1999996602535 1182
18.2199996598065 1201
18.2399996593595 1215
18.2599996589124 1193
18.2799996584654 1262
18.2999996580184 1244
18.3199996575713 1214
18.3399996571243 1246
18.3599996566772 1252
18.3799996562302 1253
18.3999996557832 1258
18.4199996553361 1255
18.4399996548891 1268
18.4599996544421 1319
18.479999653995 1254
18.499999653548 1251
18.519999653101 1298
18.5399996526539 1321
18.5599996522069 1358
18.5799996517599 1364
18.5999996513128 1261
18.6199996508658 1289
18.6399996504188 1268
18.6599996499717 1277
18.6799996495247 1273
18.6999996490777 1285
18.7199996486306 1299
18.7399996481836 1293
18.7599996477366 1316
18.7799996472895 1338
18.7999996468425 1306
18.8199996463954 1309
18.8399996459484 1385
18.8599996455014 1348
18.8799996450543 1296
18.8999996446073 1387
18.9199996441603 1358
18.9399996437132 1374
18.9599996432662 1307
18.9799996428192 1397
18.9999996423721 1372
19.0199996419251 1359
19.0399996414781 1340
19.059999641031 1364
19.079999640584 1393
19.099999640137 1415
19.1199996396899 1372
19.1399996392429 1417
19.1599996387959 1389
19.1799996383488 1486
19.1999996379018 1424
19.2199996374547 1346
19.2399996370077 1469
19.2599996365607 1366
19.2799996361136 1442
19.2999996356666 1422
19.3199996352196 1435
19.3399996347725 1417
19.3599996343255 1375
19.3799996338785 1445
19.3999996334314 1404
19.4199996329844 1469
19.4399996325374 1457
19.4599996320903 1481
19.4799996316433 1484
19.4999996311963 1465
19.5199996307492 1392
19.5399996303022 1455
19.5599996298552 1472
19.5799996294081 1486
19.5999996289611 1475
19.6199996285141 1446
19.639999628067 1473
19.65999962762 1478
19.6799996271729 1479
19.6999996267259 1464
19.7199996262789 1428
19.7399996258318 1478
19.7599996253848 1507
19.7799996249378 1536
19.7999996244907 1457
19.8199996240437 1586
19.8399996235967 1505
19.8599996231496 1569
19.8799996227026 1595
19.8999996222556 1562
19.9199996218085 1533
19.9399996213615 1508
19.9599996209145 1506
19.9799996204674 1530
19.9999996200204 1561
