3 1979
3.01999999955297 1701
3.03999999910593 1625
3.0599999986589 1482
3.07999999821186 1408
3.09999999776483 1365
3.11999999731779 1297
3.13999999687076 1261
3.15999999642372 1201
3.17999999597669 1216
3.19999999552965 1216
3.21999999508262 1245
3.23999999463558 1150
3.25999999418855 1165
3.27999999374151 1174
3.29999999329448 1126
3.31999999284744 1102
3.33999999240041 1086
3.35999999195337 1177
3.37999999150634 1127
3.3999999910593 998
3.41999999061227 1095
3.43999999016523 1089
3.4599999897182 1000
3.47999998927116 1037
3.49999998882413 1035
3.51999998837709 1053
3.53999998793006 974
3.55999998748302 972
3.57999998703599 967
3.59999998658895 992
3.61999998614192 1007
3.63999998569489 998
3.65999998524785 984
3.67999998480082 973
3.69999998435378 953
3.71999998390675 921
3.73999998345971 938
3.75999998301268 881
3.77999998256564 916
3.79999998211861 912
3.81999998167157 863
3.83999998122454 897
3.8599999807775 824
3.87999998033047 841
3.89999997988343 861
3.9199999794364 861
3.93999997898936 813
3.95999997854233 848
3.97999997809529 814
3.99999997764826 847
4.01999997720122 779
4.03999997675419 802
4.05999997630715 788
4.07999997586012 826
4.09999997541308 772
4.11999997496605 797
4.13999997451901 776
4.15999997407198 715
4.17999997362494 770
4.19999997317791 706
4.21999997273087 743
4.23999997228384 730
4.25999997183681 727
4.27999997138977 702
4.29999997094274 729
4.3199999704957 697
4.33999997004867 684
4.35999996960163 703
4.3799999691546 687
4.39999996870756 710
4.41999996826053 709
4.43999996781349 693
4.45999996736646 695
4.47999996691942 666
4.49999996647239 688
4.51999996602535 639
4.53999996557832 649
4.55999996513128 640
4.57999996468425 632
4.59999996423721 643
4.61999996379018 634
4.63999996334314 637
4.65999996289611 644
4.67999996244907 610
4.69999996200204 618
4.719999961555 616
4.73999996110797 608
4.75999996066093 584
4.7799999602139 611
4.79999995976686 623
4.81999995931983 592
4.83999995887279 559
4.85999995842576 597
4.87999995797873 601
4.89999995753169 573
4.91999995708466 525
4.93999995663762 614
4.95999995619059 586
4.97999995574355 563
4.99999995529652 576
5.01999995484948 544
5.03999995440245 552
5.05999995395541 556
5.07999995350838 529
5.09999995306134 545
5.11999995261431 582
5.13999995216727 550
5.15999995172024 525
5.1799999512732 515
5.19999995082617 519
5.21999995037913 566
5.2399999499321 518
5.25999994948506 498
5.27999994903803 493
5.29999994859099 544
5.31999994814396 553
5.33999994769692 524
5.35999994724989 528
5.37999994680285 535
5.39999994635582 533
5.41999994590878 535
5.43999994546175 531
5.45999994501471 520
5.47999994456768 505
5.49999994412065 519
5.51999994367361 493
5.53999994322658 510
5.55999994277954 507
5.57999994233251 503
5.59999994188547 476
5.61999994143844 505
5.6399999409914 485
5.65999994054437 484
5.67999994009733 504
5.6999999396503 514
5.71999993920326 554
5.73999993875623 471
5.75999993830919 475
5.77999993786216 512
5.79999993741512 506
5.81999993696809 471
5.83999993652105 512
5.85999993607402 503
5.87999993562698 483
5.89999993517995 499
5.91999993473291 519
5.93999993428588 478
5.95999993383884 520
5.97999993339181 485
5.99999993294477 513
6.01999993249774 496
6.0399999320507 460
6.05999993160367 501
6.07999993115663 484
6.0999999307096 467
6.11999993026257 528
6.13999992981553 503
6.1599999293685 524
6.17999992892146 445
6.19999992847443 493
6.21999992802739 485
6.23999992758036 516
6.25999992713332 492
6.27999992668629 526
6.29999992623925 504
6.31999992579222 480
6.33999992534518 447
6.35999992489815 501
6.37999992445111 475
6.39999992400408 480
6.41999992355704 503
6.43999992311001 504
6.45999992266297 546
6.47999992221594 474
6.4999999217689 515
6.51999992132187 468
6.53999992087483 484
6.5599999204278 477
6.57999991998076 482
6.59999991953373 503
6.61999991908669 486
6.63999991863966 512
6.65999991819262 503
6.67999991774559 470
6.69999991729855 488
6.71999991685152 496
6.73999991640449 489
6.75999991595745 506
6.77999991551042 501
6.79999991506338 453
6.81999991461635 485
6.83999991416931 482
6.85999991372228 506
6.87999991327524 487
6.89999991282821 454
6.91999991238117 517
6.93999991193414 454
6.9599999114871 467
6.97999991104007 493
6.99999991059303 464
7.019999910146 458
7.03999990969896 474
7.05999990925193 504
7.07999990880489 478
7.09999990835786 470
7.11999990791082 504
7.13999990746379 463
7.15999990701675 486
7.17999990656972 484
7.19999990612268 542
7.21999990567565 478
7.23999990522861 470
7.25999990478158 499
7.27999990433454 475
7.29999990388751 522
7.31999990344047 522
7.33999990299344 481
7.35999990254641 503
7.37999990209937 499
7.39999990165234 441
7.4199999012053 501
7.43999990075827 483
7.45999990031123 447
7.4799998998642 471
7.49999989941716 451
7.51999989897013 460
7.53999989852309 497
7.55999989807606 439
7.57999989762902 487
7.59999989718199 450
7.61999989673495 502
7.63999989628792 432
7.65999989584088 473
7.67999989539385 471
7.69999989494681 466
7.71999989449978 473
7.73999989405274 494
7.75999989360571 515
7.77999989315867 490
7.79999989271164 475
7.8199998922646 444
7.83999989181757 473
7.85999989137053 469
7.8799998909235 495
7.89999989047646 452
7.91999989002943 469
7.9399998895824 457
7.95999988913536 435
7.97999988868833 449
7.99999988824129 451
8.01999988779426 452
8.03999988734722 480
8.05999988690019 503
8.07999988645315 460
8.09999988600612 483
8.11999988555908 486
8.13999988511205 462
8.15999988466501 486
8.17999988421798 481
8.19999988377094 474
8.21999988332391 447
8.23999988287687 464
8.25999988242984 456
8.2799998819828 454
8.29999988153577 443
8.31999988108873 475
8.3399998806417 462
8.35999988019466 516
8.37999987974763 452
8.39999987930059 462
8.41999987885356 498
8.43999987840652 475
8.45999987795949 466
8.47999987751245 480
8.49999987706542 480
8.51999987661839 505
8.53999987617135 535
8.55999987572432 487
8.57999987527728 480
8.59999987483025 515
8.61999987438321 565
8.63999987393618 526
8.65999987348914 513
8.67999987304211 519
8.69999987259507 563
8.71999987214804 577
8.739999871701 583
8.75999987125397 647
8.77999987080693 692
8.7999998703599 738
8.81999986991286 690
8.83999986946583 797
8.85999986901879 858
8.87999986857176 892
8.89999986812472 939
8.91999986767769 1074
8.93999986723065 1136
8.95999986678362 1199
8.97999986633658 1284
8.99999986588955 1479
9.01999986544251 1369
9.03999986499548 1386
9.05999986454844 1335
9.07999986410141 1200
9.09999986365438 1201
9.11999986320734 1079
9.13999986276031 981
9.15999986231327 934
9.17999986186624 941
9.1999998614192 911
9.21999986097217 947
9.23999986052513 871
9.2599998600781 813
9.27999985963106 773
9.29999985918403 699
9.31999985873699 664
9.33999985828996 651
9.35999985784292 548
9.37999985739589 545
9.39999985694885 513
9.41999985650182 537
9.43999985605478 537
9.45999985560775 511
9.47999985516071 497
9.49999985471368 549
9.51999985426664 501
9.53999985381961 508
9.55999985337257 513
9.57999985292554 478
9.5999998524785 534
9.61999985203147 496
9.63999985158443 521
9.6599998511374 495
9.67999985069037 559
9.69999985024333 500
9.7199998497963 552
9.73999984934926 577
9.75999984890223 586
9.77999984845519 613
9.79999984800816 629
9.81999984756112 618
9.83999984711409 694
9.85999984666705 694
9.87999984622002 792
9.89999984577298 812
9.91999984532595 881
9.93999984487891 978
9.95999984443188 1078
9.97999984398484 990
9.99999984353781 912
10.0199998430908 856
10.0399998426437 744
10.0599998421967 759
10.0799998417497 726
10.0999998413026 805
10.1199998408556 804
10.1399998404086 809
10.1599998399615 803
10.1799998395145 740
10.1999998390675 704
10.2199998386204 590
10.2399998381734 584
10.2599998377264 515
10.2799998372793 500
10.2999998368323 467
10.3199998363853 473
10.3399998359382 443
10.3599998354912 439
10.3799998350441 422
10.3999998345971 434
10.4199998341501 461
10.439999833703 443
10.459999833256 437
10.479999832809 408
10.4999998323619 437
10.5199998319149 472
10.5399998314679 444
10.5599998310208 425
10.5799998305738 393
10.5999998301268 417
10.6199998296797 428
10.6399998292327 424
10.6599998287857 460
10.6799998283386 416
10.6999998278916 420
10.7199998274446 442
10.7399998269975 410
10.7599998265505 380
10.7799998261034 406
10.7999998256564 437
10.8199998252094 458
10.8399998247623 426
10.8599998243153 449
10.8799998238683 409
10.8999998234212 413
10.9199998229742 396
10.9399998225272 388
10.9599998220801 417
10.9799998216331 409
10.9999998211861 406
11.019999820739 401
11.039999820292 390
11.059999819845 438
11.0799998193979 397
11.0999998189509 434
11.1199998185039 435
11.1399998180568 426
11.1599998176098 456
11.1799998171628 424
11.1999998167157 393
11.2199998162687 411
11.2399998158216 407
11.2599998153746 427
11.2799998149276 443
11.2999998144805 409
11.3199998140335 445
11.3399998135865 420
11.3599998131394 424
11.3799998126924 464
11.3999998122454 412
11.4199998117983 394
11.4399998113513 401
11.4599998109043 406
11.4799998104572 421
11.4999998100102 412
11.5199998095632 406
11.5399998091161 409
11.5599998086691 420
11.5799998082221 410
11.599999807775 417
11.619999807328 398
11.639999806881 428
11.6599998064339 368
11.6799998059869 386
11.6999998055398 434
11.7199998050928 411
11.7399998046458 367
11.7599998041987 429
11.7799998037517 363
11.7999998033047 401
11.8199998028576 381
11.8399998024106 387
11.8599998019636 379
11.8799998015165 370
11.8999998010695 406
11.9199998006225 380
11.9399998001754 399
11.9599997997284 411
11.9799997992814 418
11.9999997988343 394
12.0199997983873 389
12.0399997979403 400
12.0599997974932 372
12.0799997970462 402
12.0999997965992 393
12.1199997961521 383
12.1399997957051 405
12.159999795258 435
12.179999794811 397
12.199999794364 402
12.2199997939169 405
12.2399997934699 413
12.2599997930229 401
12.2799997925758 401
12.2999997921288 372
12.3199997916818 414
12.3399997912347 412
12.3599997907877 396
12.3799997903407 388
12.3999997898936 413
12.4199997894466 394
12.4399997889996 396
12.4599997885525 392
12.4799997881055 445
12.4999997876585 450
12.5199997872114 425
12.5399997867644 450
12.5599997863173 449
12.5799997858703 451
12.5999997854233 505
12.6199997849762 466
12.6399997845292 506
12.6599997840822 479
12.6799997836351 485
12.6999997831881 520
12.7199997827411 525
12.739999782294 561
12.759999781847 521
12.7799997814 532
12.7999997809529 529
12.8199997805059 522
12.8399997800589 527
12.8599997796118 478
12.8799997791648 473
12.8999997787178 446
12.9199997782707 475
12.9399997778237 432
12.9599997773767 393
12.9799997769296 455
12.9999997764826 424
13.0199997760355 448
13.0399997755885 440
13.0599997751415 451
13.0799997746944 420
13.0999997742474 467
13.1199997738004 442
13.1399997733533 414
13.1599997729063 420
13.1799997724593 424
13.1999997720122 444
13.2199997715652 459
13.2399997711182 441
13.2599997706711 476
13.2799997702241 497
13.2999997697771 512
13.31999976933 495
13.339999768883 489
13.359999768436 505
13.3799997679889 563
13.3999997675419 563
13.4199997670949 565
13.4399997666478 586
13.4599997662008 505
13.4799997657537 525
13.4999997653067 505
13.5199997648597 509
13.5399997644126 475
13.5599997639656 520
13.5799997635186 539
13.5999997630715 544
13.6199997626245 533
13.6399997621775 497
13.6599997617304 513
13.6799997612834 462
13.6999997608364 433
13.7199997603893 418
13.7399997599423 437
13.7599997594953 419
13.7799997590482 428
13.7999997586012 439
13.8199997581542 448
13.8399997577071 404
13.8599997572601 413
13.879999756813 405
13.899999756366 376
13.919999755919 438
13.9399997554719 434
13.9599997550249 411
13.9799997545779 423
13.9999997541308 435
14.0199997536838 423
14.0399997532368 381
14.0599997527897 382
14.0799997523427 374
14.0999997518957 390
14.1199997514486 426
14.1399997510016 406
14.1599997505546 386
14.1799997501075 416
14.1999997496605 406
14.2199997492135 437
14.2399997487664 418
14.2599997483194 427
14.2799997478724 407
14.2999997474253 435
14.3199997469783 416
14.3399997465312 404
14.3599997460842 422
14.3799997456372 401
14.3999997451901 405
14.4199997447431 450
14.4399997442961 416
14.459999743849 424
14.479999743402 417
14.499999742955 402
14.5199997425079 444
14.5399997420609 438
14.5599997416139 437
14.5799997411668 409
14.5999997407198 446
14.6199997402728 474
14.6399997398257 402
14.6599997393787 427
14.6799997389317 426
14.6999997384846 437
14.7199997380376 435
14.7399997375906 401
14.7599997371435 413
14.7799997366965 435
14.7999997362494 412
14.8199997358024 425
14.8399997353554 435
14.8599997349083 409
14.8799997344613 430
14.8999997340143 401
14.9199997335672 386
14.9399997331202 447
14.9599997326732 419
14.9799997322261 420
14.9999997317791 453
15.0199997313321 413
15.039999730885 452
15.059999730438 432
15.079999729991 456
15.0999997295439 428
15.1199997290969 453
15.1399997286499 479
15.1599997282028 438
15.1799997277558 448
15.1999997273088 430
15.2199997268617 414
15.2399997264147 476
15.2599997259676 456
15.2799997255206 425
15.2999997250736 426
15.3199997246265 444
15.3399997241795 455
15.3599997237325 437
15.3799997232854 475
15.3999997228384 436
15.4199997223914 452
15.4399997219443 435
15.4599997214973 410
15.4799997210503 442
15.4999997206032 447
15.5199997201562 474
15.5399997197092 410
15.5599997192621 422
15.5799997188151 422
15.5999997183681 445
15.619999717921 459
15.639999717474 439
15.659999717027 450
15.6799997165799 411
15.6999997161329 442
15.7199997156858 467
15.7399997152388 497
15.7599997147918 433
15.7799997143447 450
15.7999997138977 477
15.8199997134507 484
15.8399997130036 454
15.8599997125566 444
15.8799997121096 457
15.8999997116625 443
15.9199997112155 431
15.9399997107685 462
15.9599997103214 483
15.9799997098744 452
15.9999997094274 459
16.0199997089803 465
16.0399997085333 446
16.0599997080863 501
16.0799997076392 446
16.0999997071922 460
16.1199997067451 432
16.1399997062981 482
16.1599997058511 469
16.179999705404 472
16.199999704957 487
16.21999970451 478
16.2399997040629 478
16.2599997036159 494
16.2799997031689 485
16.2999997027218 448
16.3199997022748 445
16.3399997018278 450
16.3599997013807 458
16.3799997009337 452
16.3999997004867 503
16.4199997000396 476
16.4399996995926 451
16.4599996991456 488
16.4799996986985 503
16.4999996982515 465
16.5199996978045 493
16.5399996973574 472
16.5599996969104 462
16.5799996964633 490
16.5999996960163 498
16.6199996955693 478
16.6399996951222 504
16.6599996946752 503
16.6799996942282 480
16.6999996937811 463
16.7199996933341 505
16.7399996928871 487
16.75999969244 530
16.779999691993 562
16.799999691546 526
16.8199996910989 520
16.8399996906519 528
16.8599996902049 610
16.8799996897578 551
16.8999996893108 548
16.9199996888638 599
16.9399996884167 673
16.9599996879697 680
16.9799996875226 686
16.9999996870756 707
17.0199996866286 696
17.0399996861815 652
17.0599996857345 582
17.0799996852875 592
17.0999996848404 566
17.1199996843934 585
17.1399996839464 622
17.1599996834993 612
17.1799996830523 627
17.1999996826053 607
17.2199996821582 587
17.2399996817112 594
17.2599996812642 621
17.2799996808171 546
17.2999996803701 502
17.3199996799231 550
17.339999679476 566
17.359999679029 500
17.379999678582 531
17.3999996781349 540
17.4199996776879 520
17.4399996772408 507
17.4599996767938 517
17.4799996763468 491
17.4999996758997 515
17.5199996754527 547
17.5399996750057 488
17.5599996745586 572
17.5799996741116 553
17.5999996736646 541
17.6199996732175 576
17.6399996727705 557
17.6599996723235 540
17.6799996718764 535
17.6999996714294 541
17.7199996709824 516
17.7399996705353 538
17.7599996700883 554
17.7799996696413 573
17.7999996691942 553
17.8199996687472 561
17.8399996683002 544
17.8599996678531 555
17.8799996674061 562
17.899999666959 564
17.919999666512 574
17.939999666065 581
17.9599996656179 587
17.9799996651709 556
17.9999996647239 597
18.0199996642768 571
18.0399996638298 567
18.0599996633828 590
18.0799996629357 595
18.0999996624887 578
18.1199996620417 592
18.1399996615946 608
18.1599996611476 595
18.1799996607006 560
18.1999996602535 597
18.2199996598065 594
18.2399996593595 558
18.2599996589124 602
18.2799996584654 566
18.2999996580184 570
18.3199996575713 610
18.3399996571243 583
18.3599996566772 593
18.3799996562302 574
18.3999996557832 558
18.4199996553361 585
18.4399996548891 601
18.4599996544421 623
18.479999653995 624
18.499999653548 639
18.519999653101 630
18.5399996526539 615
18.5599996522069 597
18.5799996517599 622
18.5999996513128 562
18.6199996508658 613
18.6399996504188 627
18.6599996499717 619
18.6799996495247 644
18.6999996490777 625
18.7199996486306 577
18.7399996481836 593
18.7599996477366 596
18.7799996472895 600
18.7999996468425 589
18.8199996463954 637
18.8399996459484 566
18.8599996455014 577
18.8799996450543 585
18.8999996446073 586
18.9199996441603 636
18.9399996437132 646
18.9599996432662 596
18.9799996428192 605
18.9999996423721 638
19.0199996419251 611
19.0399996414781 607
19.059999641031 620
19.079999640584 600
19.099999640137 602
19.1199996396899 583
19.1399996392429 609
19.1599996387959 649
19.1799996383488 596
19.1999996379018 599
19.2199996374547 605
19.2399996370077 599
19.2599996365607 628
19.2799996361136 660
19.2999996356666 632
19.3199996352196 585
19.3399996347725 600
19.3599996343255 594
19.3799996338785 644
19.3999996334314 623
19.4199996329844 615
19.4399996325374 598
19.4599996320903 614
19.4799996316433 650
19.4999996311963 699
19.5199996307492 646
19.5399996303022 638
19.5599996298552 649
19.5799996294081 648
19.5999996289611 618
19.6199996285141 646
19.639999628067 641
19.65999962762 679
19.6799996271729 676
19.6999996267259 672
19.7199996262789 650
19.7399996258318 636
19.7599996253848 655
19.7799996249378 678
19.7999996244907 696
19.8199996240437 672
19.8399996235967 753
19.8599996231496 720
19.8799996227026 707
19.8999996222556 747
19.9199996218085 753
19.9399996213615 790
19.9599996209145 798
19.9799996204674 808
19.9999996200204 833
