3 1326
3.01999999955297 1316
3.03999999910593 1237
3.0599999986589 1213
3.07999999821186 1225
3.09999999776483 1218
3.11999999731779 1216
3.13999999687076 1187
3.15999999642372 1121
3.17999999597669 1148
3.19999999552965 1113
3.21999999508262 1096
3.23999999463558 1091
3.25999999418855 1083
3.27999999374151 1105
3.29999999329448 1112
3.31999999284744 1053
3.33999999240041 1080
3.35999999195337 1039
3.37999999150634 1022
3.3999999910593 1074
3.41999999061227 1029
3.43999999016523 1013
3.4599999897182 1021
3.47999998927116 1013
3.49999998882413 1017
3.51999998837709 881
3.53999998793006 947
3.55999998748302 990
3.57999998703599 976
3.59999998658895 972
3.61999998614192 936
3.63999998569489 961
3.65999998524785 899
3.67999998480082 949
3.69999998435378 890
3.71999998390675 929
3.73999998345971 912
3.75999998301268 892
3.77999998256564 888
3.79999998211861 897
3.81999998167157 907
3.83999998122454 888
3.8599999807775 849
3.87999998033047 912
3.89999997988343 825
3.9199999794364 851
3.93999997898936 879
3.95999997854233 841
3.97999997809529 856
3.99999997764826 846
4.01999997720122 751
4.03999997675419 809
4.05999997630715 831
4.07999997586012 834
4.09999997541308 836
4.11999997496605 802
4.13999997451901 825
4.15999997407198 778
4.17999997362494 777
4.19999997317791 808
4.21999997273087 794
4.23999997228384 786
4.25999997183681 797
4.27999997138977 758
4.29999997094274 763
4.3199999704957 799
4.33999997004867 786
4.35999996960163 795
4.3799999691546 807
4.39999996870756 813
4.41999996826053 795
4.43999996781349 773
4.45999996736646 798
4.47999996691942 822
4.49999996647239 751
4.51999996602535 722
4.53999996557832 746
4.55999996513128 765
4.57999996468425 775
4.59999996423721 813
4.61999996379018 751
4.63999996334314 771
4.65999996289611 754
4.67999996244907 766
4.69999996200204 750
4.719999961555 750
4.73999996110797 760
4.75999996066093 750
4.7799999602139 762
4.79999995976686 766
4.81999995931983 752
4.83999995887279 801
4.85999995842576 731
4.87999995797873 765
4.89999995753169 832
4.91999995708466 749
4.93999995663762 757
4.95999995619059 729
4.97999995574355 799
4.99999995529652 804
5.01999995484948 840
5.03999995440245 832
5.05999995395541 772
5.07999995350838 792
5.09999995306134 807
5.11999995261431 856
5.13999995216727 820
5.15999995172024 841
5.1799999512732 864
5.19999995082617 906
5.21999995037913 963
5.2399999499321 933
5.25999994948506 959
5.27999994903803 981
5.29999994859099 969
5.31999994814396 947
5.33999994769692 984
5.35999994724989 1062
5.37999994680285 1089
5.39999994635582 1085
5.41999994590878 1119
5.43999994546175 1161
5.45999994501471 1193
5.47999994456768 1201
5.49999994412065 1287
5.51999994367361 1344
5.53999994322658 1494
5.55999994277954 1455
5.57999994233251 1563
5.59999994188547 1675
5.61999994143844 1700
5.6399999409914 1844
5.65999994054437 2013
5.67999994009733 2176
5.6999999396503 2417
5.71999993920326 2764
5.73999993875623 3187
5.75999993830919 3735
5.77999993786216 3717
5.79999993741512 3149
5.81999993696809 2203
5.83999993652105 1439
5.85999993607402 1131
5.87999993562698 941
5.89999993517995 959
5.91999993473291 887
5.93999993428588 849
5.95999993383884 861
5.97999993339181 829
5.99999993294477 837
6.01999993249774 823
6.0399999320507 888
6.05999993160367 887
6.07999993115663 891
6.0999999307096 834
6.11999993026257 884
6.13999992981553 940
6.1599999293685 915
6.17999992892146 865
6.19999992847443 807
6.21999992802739 912
6.23999992758036 811
6.25999992713332 888
6.27999992668629 850
6.29999992623925 904
6.31999992579222 921
6.33999992534518 1021
6.35999992489815 957
6.37999992445111 969
6.39999992400408 979
6.41999992355704 1029
6.43999992311001 1040
6.45999992266297 1123
6.47999992221594 1189
6.4999999217689 1221
6.51999992132187 1339
6.53999992087483 1432
6.5599999204278 1495
6.57999991998076 1613
6.59999991953373 1764
6.61999991908669 2049
6.63999991863966 2245
6.65999991819262 2289
6.67999991774559 2001
6.69999991729855 1407
6.71999991685152 1042
6.73999991640449 880
6.75999991595745 856
6.77999991551042 810
6.79999991506338 780
6.81999991461635 744
6.83999991416931 744
6.85999991372228 736
6.87999991327524 693
6.89999991282821 736
6.91999991238117 700
6.93999991193414 661
6.9599999114871 728
6.97999991104007 713
6.99999991059303 704
7.019999910146 696
7.03999990969896 722
7.05999990925193 712
7.07999990880489 695
7.09999990835786 687
7.11999990791082 695
7.13999990746379 680
7.15999990701675 668
7.17999990656972 651
7.19999990612268 701
7.21999990567565 711
7.23999990522861 646
7.25999990478158 667
7.27999990433454 688
7.29999990388751 694
7.31999990344047 709
7.33999990299344 681
7.35999990254641 688
7.37999990209937 655
7.39999990165234 675
7.4199999012053 681
7.43999990075827 687
7.45999990031123 651
7.4799998998642 704
7.49999989941716 660
7.51999989897013 613
7.53999989852309 671
7.55999989807606 703
7.57999989762902 646
7.59999989718199 689
7.61999989673495 659
7.63999989628792 655
7.65999989584088 646
7.67999989539385 683
7.69999989494681 632
7.71999989449978 656
7.73999989405274 659
7.75999989360571 615
7.77999989315867 640
7.79999989271164 670
7.8199998922646 651
7.83999989181757 624
7.85999989137053 658
7.8799998909235 694
7.89999989047646 634
7.91999989002943 693
7.9399998895824 652
7.95999988913536 629
7.97999988868833 661
7.99999988824129 635
8.01999988779426 628
8.03999988734722 669
8.05999988690019 622
8.07999988645315 707
8.09999988600612 671
8.11999988555908 705
8.13999988511205 650
8.15999988466501 669
8.17999988421798 664
8.19999988377094 644
8.21999988332391 714
8.23999988287687 660
8.25999988242984 681
8.2799998819828 674
8.29999988153577 672
8.31999988108873 671
8.3399998806417 665
8.35999988019466 675
8.37999987974763 665
8.39999987930059 664
8.41999987885356 650
8.43999987840652 635
8.45999987795949 654
8.47999987751245 670
8.49999987706542 651
8.51999987661839 674
8.53999987617135 674
8.55999987572432 628
8.57999987527728 704
8.59999987483025 664
8.61999987438321 689
8.63999987393618 679
8.65999987348914 683
8.67999987304211 647
8.69999987259507 665
8.71999987214804 664
8.739999871701 685
8.75999987125397 664
8.77999987080693 656
8.7999998703599 651
8.81999986991286 677
8.83999986946583 698
8.85999986901879 702
8.87999986857176 681
8.89999986812472 725
8.91999986767769 695
8.93999986723065 709
8.95999986678362 694
8.97999986633658 698
8.99999986588955 687
9.01999986544251 729
9.03999986499548 807
9.05999986454844 740
9.07999986410141 812
9.09999986365438 809
9.11999986320734 834
9.13999986276031 856
9.15999986231327 854
9.17999986186624 871
9.1999998614192 955
9.21999986097217 967
9.23999986052513 1029
9.2599998600781 1036
9.27999985963106 1175
9.29999985918403 1349
9.31999985873699 1445
9.33999985828996 1655
9.35999985784292 1787
9.37999985739589 1979
9.39999985694885 1738
9.41999985650182 1473
9.43999985605478 1067
9.45999985560775 884
9.47999985516071 825
9.49999985471368 756
9.51999985426664 763
9.53999985381961 686
9.55999985337257 743
9.57999985292554 718
9.5999998524785 729
9.61999985203147 672
9.63999985158443 688
9.6599998511374 705
9.67999985069037 700
9.69999985024333 660
9.7199998497963 701
9.73999984934926 705
9.75999984890223 643
9.77999984845519 657
9.79999984800816 684
9.81999984756112 678
9.83999984711409 675
9.85999984666705 673
9.87999984622002 656
9.89999984577298 700
9.91999984532595 690
9.93999984487891 686
9.95999984443188 720
9.97999984398484 709
9.99999984353781 662
10.0199998430908 706
10.0399998426437 659
10.0599998421967 694
10.0799998417497 685
10.0999998413026 694
10.1199998408556 660
10.1399998404086 660
10.1599998399615 697
10.1799998395145 679
10.1999998390675 703
10.2199998386204 678
10.2399998381734 650
10.2599998377264 667
10.2799998372793 656
10.2999998368323 678
10.3199998363853 720
10.3399998359382 707
10.3599998354912 701
10.3799998350441 694
10.3999998345971 726
10.4199998341501 744
10.439999833703 762
10.459999833256 695
10.479999832809 676
10.4999998323619 715
10.5199998319149 744
10.5399998314679 694
10.5599998310208 748
10.5799998305738 717
10.5999998301268 717
10.6199998296797 735
10.6399998292327 816
10.6599998287857 794
10.6799998283386 807
10.6999998278916 776
10.7199998274446 804
10.7399998269975 888
10.7599998265505 856
10.7799998261034 952
10.7999998256564 938
10.8199998252094 955
10.8399998247623 1027
10.8599998243153 1052
10.8799998238683 1098
10.8999998234212 1191
10.9199998229742 1295
10.9399998225272 1532
10.9599998220801 1651
10.9799998216331 1871
10.9999998211861 1850
11.019999820739 1570
11.039999820292 1256
11.059999819845 1037
11.0799998193979 883
11.0999998189509 786
11.1199998185039 829
11.1399998180568 808
11.1599998176098 757
11.1799998171628 789
11.1999998167157 755
11.2199998162687 806
11.2399998158216 796
11.2599998153746 797
11.2799998149276 804
11.2999998144805 805
11.3199998140335 898
11.3399998135865 871
11.3599998131394 903
11.3799998126924 1023
11.3999998122454 989
11.4199998117983 1089
11.4399998113513 1135
11.4599998109043 1247
11.4799998104572 1221
11.4999998100102 1151
11.5199998095632 1073
11.5399998091161 921
11.5599998086691 844
11.5799998082221 792
11.599999807775 757
11.619999807328 733
11.639999806881 761
11.6599998064339 754
11.6799998059869 760
11.6999998055398 713
11.7199998050928 739
11.7399998046458 744
11.7599998041987 698
11.7799998037517 702
11.7999998033047 671
11.8199998028576 732
11.8399998024106 747
11.8599998019636 713
11.8799998015165 737
11.8999998010695 739
11.9199998006225 720
11.9399998001754 720
11.9599997997284 725
11.9799997992814 698
11.9999997988343 729
12.0199997983873 736
12.0399997979403 742
12.0599997974932 762
12.0799997970462 749
12.0999997965992 757
12.1199997961521 758
12.1399997957051 707
12.159999795258 683
12.179999794811 744
12.199999794364 782
12.2199997939169 749
12.2399997934699 767
12.2599997930229 760
12.2799997925758 728
12.2999997921288 740
12.3199997916818 730
12.3399997912347 727
12.3599997907877 752
12.3799997903407 779
12.3999997898936 767
12.4199997894466 720
12.4399997889996 739
12.4599997885525 735
12.4799997881055 705
12.4999997876585 741
12.5199997872114 758
12.5399997867644 679
12.5599997863173 745
12.5799997858703 689
12.5999997854233 777
12.6199997849762 764
12.6399997845292 729
12.6599997840822 771
12.6799997836351 755
12.6999997831881 740
12.7199997827411 768
12.739999782294 755
12.759999781847 758
12.7799997814 762
12.7999997809529 820
12.8199997805059 780
12.8399997800589 760
12.8599997796118 759
12.8799997791648 787
12.8999997787178 769
12.9199997782707 777
12.9399997778237 807
12.9599997773767 789
12.9799997769296 767
12.9999997764826 758
13.0199997760355 759
13.0399997755885 789
13.0599997751415 787
13.0799997746944 765
13.0999997742474 800
13.1199997738004 824
13.1399997733533 828
13.1599997729063 879
13.1799997724593 866
13.1999997720122 889
13.2199997715652 1033
13.2399997711182 980
13.2599997706711 969
13.2799997702241 910
13.2999997697771 876
13.31999976933 886
13.339999768883 805
13.359999768436 778
13.3799997679889 788
13.3999997675419 816
13.4199997670949 785
13.4399997666478 796
13.4599997662008 804
13.4799997657537 793
13.4999997653067 772
13.5199997648597 789
13.5399997644126 793
13.5599997639656 823
13.5799997635186 790
13.5999997630715 798
13.6199997626245 830
13.6399997621775 779
13.6599997617304 786
13.6799997612834 814
13.6999997608364 757
13.7199997603893 816
13.7399997599423 796
13.7599997594953 855
13.7799997590482 885
13.7999997586012 801
13.8199997581542 847
13.8399997577071 791
13.8599997572601 773
13.879999756813 800
13.899999756366 792
13.919999755919 857
13.9399997554719 872
13.9599997550249 864
13.9799997545779 861
13.9999997541308 878
14.0199997536838 796
14.0399997532368 896
14.0599997527897 865
14.0799997523427 887
14.0999997518957 831
14.1199997514486 887
14.1399997510016 903
14.1599997505546 881
14.1799997501075 864
14.1999997496605 880
14.2199997492135 814
14.2399997487664 865
14.2599997483194 916
14.2799997478724 891
14.2999997474253 907
14.3199997469783 942
14.3399997465312 929
14.3599997460842 948
14.3799997456372 985
14.3999997451901 1067
14.4199997447431 1059
14.4399997442961 1086
14.459999743849 1054
14.479999743402 1006
14.499999742955 983
14.5199997425079 871
14.5399997420609 866
14.5599997416139 869
14.5799997411668 907
14.5999997407198 918
14.6199997402728 943
14.6399997398257 961
14.6599997393787 855
14.6799997389317 888
14.6999997384846 917
14.7199997380376 902
14.7399997375906 961
14.7599997371435 884
14.7799997366965 996
14.7999997362494 952
14.8199997358024 967
14.8399997353554 896
14.8599997349083 964
14.8799997344613 942
14.8999997340143 949
14.9199997335672 935
14.9399997331202 974
14.9599997326732 943
14.9799997322261 930
14.9999997317791 929
15.0199997313321 907
15.039999730885 942
15.059999730438 971
15.079999729991 946
15.0999997295439 1004
15.1199997290969 964
15.1399997286499 963
15.1599997282028 989
15.1799997277558 1004
15.1999997273088 975
15.2199997268617 997
15.2399997264147 998
15.2599997259676 987
15.2799997255206 989
15.2999997250736 953
15.3199997246265 1022
15.3399997241795 985
15.3599997237325 1032
15.3799997232854 1024
15.3999997228384 1021
15.4199997223914 1018
15.4399997219443 1006
15.4599997214973 1022
15.4799997210503 1043
15.4999997206032 980
15.5199997201562 962
15.5399997197092 1012
15.5599997192621 1000
15.5799997188151 1110
15.5999997183681 1034
15.619999717921 1044
15.639999717474 1040
15.659999717027 1025
15.6799997165799 1029
15.6999997161329 1055
15.7199997156858 1030
15.7399997152388 1040
15.7599997147918 1038
15.7799997143447 1032
15.7999997138977 1014
15.8199997134507 1051
15.8399997130036 1013
15.8599997125566 1046
15.8799997121096 1123
15.8999997116625 1090
15.9199997112155 1120
15.9399997107685 1060
15.9599997103214 1086
15.9799997098744 1127
15.9999997094274 1136
16.0199997089803 1084
16.0399997085333 1111
16.0599997080863 1087
16.0799997076392 1086
16.0999997071922 1111
16.1199997067451 1114
16.1399997062981 1130
16.1599997058511 1147
16.179999705404 1137
16.199999704957 1151
16.21999970451 1144
16.2399997040629 1134
16.2599997036159 1119
16.2799997031689 1103
16.2999997027218 1152
16.3199997022748 1203
16.3399997018278 1107
16.3599997013807 1183
16.3799997009337 1191
16.3999997004867 1242
16.4199997000396 1147
16.4399996995926 1161
16.4599996991456 1213
16.4799996986985 1149
16.4999996982515 1200
16.5199996978045 1198
16.5399996973574 1132
16.5599996969104 1321
16.5799996964633 1213
16.5999996960163 1194
16.6199996955693 1192
16.6399996951222 1222
16.6599996946752 1183
16.6799996942282 1204
16.6999996937811 1241
16.7199996933341 1281
16.7399996928871 1230
16.75999969244 1256
16.779999691993 1257
16.799999691546 1198
16.8199996910989 1243
16.8399996906519 1215
16.8599996902049 1281
16.8799996897578 1343
16.8999996893108 1250
16.9199996888638 1304
16.9399996884167 1264
16.9599996879697 1272
16.9799996875226 1279
16.9999996870756 1286
17.0199996866286 1326
17.0399996861815 1284
17.0599996857345 1302
17.0799996852875 1347
17.0999996848404 1315
17.1199996843934 1377
17.1399996839464 1420
17.1599996834993 1430
17.1799996830523 1562
17.1999996826053 1488
17.2199996821582 1485
17.2399996817112 1515
17.2599996812642 1506
17.2799996808171 1460
17.2999996803701 1410
17.3199996799231 1423
17.339999679476 1367
17.359999679029 1281
17.379999678582 1393
17.3999996781349 1332
17.4199996776879 1352
17.4399996772408 1391
17.4599996767938 1412
17.4799996763468 1391
17.4999996758997 1354
17.5199996754527 1393
17.5399996750057 1367
17.5599996745586 1420
17.5799996741116 1440
17.5999996736646 1429
17.6199996732175 1463
17.6399996727705 1484
17.6599996723235 1326
17.6799996718764 1466
17.6999996714294 1453
17.7199996709824 1434
17.7399996705353 1459
17.7599996700883 1451
17.7799996696413 1525
17.7999996691942 1519
17.8199996687472 1451
17.8399996683002 1416
17.8599996678531 1532
17.8799996674061 1527
17.899999666959 1548
17.919999666512 1473
17.939999666065 1542
17.9599996656179 1482
17.9799996651709 1569
17.9999996647239 1511
18.0199996642768 1393
18.0399996638298 1492
18.0599996633828 1494
18.0799996629357 1497
18.0999996624887 1507
18.1199996620417 1474
18.1399996615946 1548
18.1599996611476 1523
18.1799996607006 1545
18.1999996602535 1546
18.2199996598065 1617
18.2399996593595 1545
18.2599996589124 1585
18.2799996584654 1550
18.2999996580184 1512
18.3199996575713 1621
18.3399996571243 1638
18.3599996566772 1627
18.3799996562302 1630
18.3999996557832 1609
18.4199996553361 1600
18.4399996548891 1614
18.4599996544421 1558
18.479999653995 1556
18.499999653548 1610
18.519999653101 1570
18.5399996526539 1693
18.5599996522069 1628
18.5799996517599 1687
18.5999996513128 1640
18.6199996508658 1662
18.6399996504188 1551
18.6599996499717 1647
18.6799996495247 1618
18.6999996490777 1722
18.7199996486306 1610
18.7399996481836 1668
18.7599996477366 1658
18.7799996472895 1619
18.7999996468425 1540
18.8199996463954 1699
18.8399996459484 1662
18.8599996455014 1676
18.8799996450543 1668
18.8999996446073 1660
18.9199996441603 1696
18.9399996437132 1747
18.9599996432662 1678
18.9799996428192 1675
18.9999996423721 1707
19.0199996419251 1693
19.0399996414781 1666
19.059999641031 1790
19.079999640584 1727
19.099999640137 1802
19.1199996396899 1725
19.1399996392429 1726
19.1599996387959 1734
19.1799996383488 1725
19.1999996379018 1721
19.2199996374547 1681
19.2399996370077 1753
19.2599996365607 1770
19.2799996361136 1789
19.2999996356666 1744
19.3199996352196 1713
19.3399996347725 1768
19.3599996343255 1766
19.3799996338785 1790
19.3999996334314 1809
19.4199996329844 1823
19.4399996325374 1884
19.4599996320903 1971
19.4799996316433 1921
19.4999996311963 2004
19.5199996307492 2029
19.5399996303022 2087
19.5599996298552 2276
19.5799996294081 2360
19.5999996289611 2369
19.6199996285141 2407
19.639999628067 2330
19.65999962762 2194
19.6799996271729 2068
19.6999996267259 2010
19.7199996262789 2011
19.7399996258318 1976
19.7599996253848 2047
19.7799996249378 2143
19.7999996244907 2164
19.8199996240437 2329
19.8399996235967 2431
19.8599996231496 2582
19.8799996227026 2593
19.8999996222556 2567
19.9199996218085 2430
19.9399996213615 2353
19.9599996209145 2185
19.9799996204674 1964
19.9999996200204 1915
