3 1319
3.01999999955297 1307
3.03999999910593 1283
3.0599999986589 1308
3.07999999821186 1258
3.09999999776483 1208
3.11999999731779 1245
3.13999999687076 1213
3.15999999642372 1130
3.17999999597669 1166
3.19999999552965 1106
3.21999999508262 1178
3.23999999463558 1046
3.25999999418855 1108
3.27999999374151 1081
3.29999999329448 1064
3.31999999284744 1091
3.33999999240041 1012
3.35999999195337 1048
3.37999999150634 1049
3.3999999910593 1027
3.41999999061227 1017
3.43999999016523 1004
3.4599999897182 1013
3.47999998927116 979
3.49999998882413 963
3.51999998837709 969
3.53999998793006 952
3.55999998748302 913
3.57999998703599 903
3.59999998658895 908
3.61999998614192 886
3.63999998569489 948
3.65999998524785 917
3.67999998480082 892
3.69999998435378 896
3.71999998390675 880
3.73999998345971 881
3.75999998301268 887
3.77999998256564 851
3.79999998211861 841
3.81999998167157 814
3.83999998122454 817
3.8599999807775 835
3.87999998033047 796
3.89999997988343 803
3.9199999794364 850
3.93999997898936 830
3.95999997854233 814
3.97999997809529 794
3.99999997764826 743
4.01999997720122 830
4.03999997675419 773
4.05999997630715 770
4.07999997586012 720
4.09999997541308 709
4.11999997496605 767
4.13999997451901 753
4.15999997407198 733
4.17999997362494 739
4.19999997317791 713
4.21999997273087 713
4.23999997228384 767
4.25999997183681 716
4.27999997138977 724
4.29999997094274 703
4.3199999704957 655
4.33999997004867 697
4.35999996960163 707
4.3799999691546 717
4.39999996870756 720
4.41999996826053 705
4.43999996781349 671
4.45999996736646 690
4.47999996691942 726
4.49999996647239 651
4.51999996602535 707
4.53999996557832 635
4.55999996513128 718
4.57999996468425 701
4.59999996423721 679
4.61999996379018 683
4.63999996334314 687
4.65999996289611 748
4.67999996244907 690
4.69999996200204 715
4.719999961555 746
4.73999996110797 688
4.75999996066093 704
4.7799999602139 708
4.79999995976686 685
4.81999995931983 675
4.83999995887279 696
4.85999995842576 681
4.87999995797873 681
4.89999995753169 758
4.91999995708466 733
4.93999995663762 759
4.95999995619059 716
4.97999995574355 704
4.99999995529652 810
5.01999995484948 733
5.03999995440245 776
5.05999995395541 825
5.07999995350838 850
5.09999995306134 817
5.11999995261431 860
5.13999995216727 882
5.15999995172024 889
5.1799999512732 974
5.19999995082617 960
5.21999995037913 983
5.2399999499321 971
5.25999994948506 1035
5.27999994903803 1039
5.29999994859099 1108
5.31999994814396 1040
5.33999994769692 1054
5.35999994724989 1212
5.37999994680285 1261
5.39999994635582 1284
5.41999994590878 1382
5.43999994546175 1464
5.45999994501471 1507
5.47999994456768 1616
5.49999994412065 1745
5.51999994367361 1884
5.53999994322658 2177
5.55999994277954 2368
5.57999994233251 2570
5.59999994188547 2805
5.61999994143844 3040
5.6399999409914 3316
5.65999994054437 3738
5.67999994009733 4262
5.6999999396503 5023
5.71999993920326 6777
5.73999993875623 8897
5.75999993830919 9841
5.77999993786216 8160
5.79999993741512 5160
5.81999993696809 2393
5.83999993652105 1243
5.85999993607402 996
5.87999993562698 973
5.89999993517995 941
5.91999993473291 886
5.93999993428588 867
5.95999993383884 822
5.97999993339181 847
5.99999993294477 798
6.01999993249774 780
6.0399999320507 778
6.05999993160367 810
6.07999993115663 831
6.0999999307096 772
6.11999993026257 810
6.13999992981553 846
6.1599999293685 842
6.17999992892146 863
6.19999992847443 900
6.21999992802739 830
6.23999992758036 916
6.25999992713332 987
6.27999992668629 969
6.29999992623925 1018
6.31999992579222 1019
6.33999992534518 1140
6.35999992489815 1136
6.37999992445111 1195
6.39999992400408 1365
6.41999992355704 1321
6.43999992311001 1395
6.45999992266297 1474
6.47999992221594 1588
6.4999999217689 1830
6.51999992132187 1905
6.53999992087483 2018
6.5599999204278 2272
6.57999991998076 2675
6.59999991953373 3251
6.61999991908669 3996
6.63999991863966 4325
6.65999991819262 3800
6.67999991774559 2392
6.69999991729855 1399
6.71999991685152 874
6.73999991640449 725
6.75999991595745 735
6.77999991551042 715
6.79999991506338 717
6.81999991461635 669
6.83999991416931 658
6.85999991372228 628
6.87999991327524 642
6.89999991282821 624
6.91999991238117 666
6.93999991193414 642
6.9599999114871 618
6.97999991104007 612
6.99999991059303 616
7.019999910146 624
7.03999990969896 600
7.05999990925193 594
7.07999990880489 599
7.09999990835786 608
7.11999990791082 601
7.13999990746379 602
7.15999990701675 588
7.17999990656972 613
7.19999990612268 584
7.21999990567565 562
7.23999990522861 604
7.25999990478158 571
7.27999990433454 601
7.29999990388751 596
7.31999990344047 552
7.33999990299344 585
7.35999990254641 539
7.37999990209937 594
7.39999990165234 556
7.4199999012053 553
7.43999990075827 582
7.45999990031123 586
7.4799998998642 623
7.49999989941716 554
7.51999989897013 574
7.53999989852309 581
7.55999989807606 603
7.57999989762902 605
7.59999989718199 569
7.61999989673495 607
7.63999989628792 598
7.65999989584088 587
7.67999989539385 546
7.69999989494681 582
7.71999989449978 582
7.73999989405274 544
7.75999989360571 571
7.77999989315867 578
7.79999989271164 636
7.8199998922646 600
7.83999989181757 568
7.85999989137053 534
7.8799998909235 556
7.89999989047646 574
7.91999989002943 600
7.9399998895824 576
7.95999988913536 551
7.97999988868833 549
7.99999988824129 593
8.01999988779426 582
8.03999988734722 567
8.05999988690019 613
8.07999988645315 591
8.09999988600612 601
8.11999988555908 559
8.13999988511205 602
8.15999988466501 602
8.17999988421798 623
8.19999988377094 587
8.21999988332391 529
8.23999988287687 545
8.25999988242984 544
8.2799998819828 569
8.29999988153577 559
8.31999988108873 559
8.3399998806417 587
8.35999988019466 544
8.37999987974763 551
8.39999987930059 580
8.41999987885356 611
8.43999987840652 640
8.45999987795949 592
8.47999987751245 574
8.49999987706542 578
8.51999987661839 585
8.53999987617135 607
8.55999987572432 565
8.57999987527728 587
8.59999987483025 579
8.61999987438321 599
8.63999987393618 608
8.65999987348914 588
8.67999987304211 580
8.69999987259507 609
8.71999987214804 610
8.739999871701 617
8.75999987125397 628
8.77999987080693 619
8.7999998703599 611
8.81999986991286 599
8.83999986946583 604
8.85999986901879 651
8.87999986857176 618
8.89999986812472 630
8.91999986767769 655
8.93999986723065 628
8.95999986678362 689
8.97999986633658 701
8.99999986588955 687
9.01999986544251 712
9.03999986499548 752
9.05999986454844 834
9.07999986410141 829
9.09999986365438 887
9.11999986320734 879
9.13999986276031 943
9.15999986231327 1012
9.17999986186624 1090
9.1999998614192 1165
9.21999986097217 1221
9.23999986052513 1363
9.2599998600781 1467
9.27999985963106 1768
9.29999985918403 2041
9.31999985873699 2396
9.33999985828996 3010
9.35999985784292 3636
9.37999985739589 3409
9.39999985694885 2654
9.41999985650182 1674
9.43999985605478 941
9.45999985560775 750
9.47999985516071 651
9.49999985471368 676
9.51999985426664 623
9.53999985381961 605
9.55999985337257 604
9.57999985292554 617
9.5999998524785 623
9.61999985203147 627
9.63999985158443 571
9.6599998511374 607
9.67999985069037 652
9.69999985024333 629
9.7199998497963 594
9.73999984934926 614
9.75999984890223 570
9.77999984845519 553
9.79999984800816 586
9.81999984756112 626
9.83999984711409 598
9.85999984666705 608
9.87999984622002 607
9.89999984577298 591
9.91999984532595 594
9.93999984487891 591
9.95999984443188 583
9.97999984398484 531
9.99999984353781 576
10.0199998430908 563
10.0399998426437 606
10.0599998421967 597
10.0799998417497 576
10.0999998413026 559
10.1199998408556 584
10.1399998404086 572
10.1599998399615 553
10.1799998395145 615
10.1999998390675 611
10.2199998386204 559
10.2399998381734 572
10.2599998377264 566
10.2799998372793 588
10.2999998368323 568
10.3199998363853 589
10.3399998359382 574
10.3599998354912 620
10.3799998350441 616
10.3999998345971 603
10.4199998341501 608
10.439999833703 588
10.459999833256 613
10.479999832809 614
10.4999998323619 577
10.5199998319149 602
10.5399998314679 641
10.5599998310208 684
10.5799998305738 654
10.5999998301268 663
10.6199998296797 690
10.6399998292327 716
10.6599998287857 755
10.6799998283386 768
10.6999998278916 779
10.7199998274446 787
10.7399998269975 850
10.7599998265505 922
10.7799998261034 987
10.7999998256564 1071
10.8199998252094 1087
10.8399998247623 1238
10.8599998243153 1276
10.8799998238683 1498
10.8999998234212 1656
10.9199998229742 2070
10.9399998225272 2561
10.9599998220801 3174
10.9799998216331 3296
10.9999998211861 2773
11.019999820739 1969
11.039999820292 1356
11.059999819845 838
11.0799998193979 741
11.0999998189509 699
11.1199998185039 668
11.1399998180568 751
11.1599998176098 714
11.1799998171628 695
11.1999998167157 705
11.2199998162687 723
11.2399998158216 764
11.2599998153746 791
11.2799998149276 792
11.2999998144805 835
11.3199998140335 901
11.3399998135865 929
11.3599998131394 1078
11.3799998126924 1128
11.3999998122454 1309
11.4199998117983 1517
11.4399998113513 1880
11.4599998109043 2287
11.4799998104572 2107
11.4999998100102 1671
11.5199998095632 1183
11.5399998091161 863
11.5599998086691 684
11.5799998082221 636
11.599999807775 633
11.619999807328 572
11.639999806881 593
11.6599998064339 596
11.6799998059869 680
11.6999998055398 582
11.7199998050928 587
11.7399998046458 619
11.7599998041987 623
11.7799998037517 604
11.7999998033047 624
11.8199998028576 618
11.8399998024106 613
11.8599998019636 633
11.8799998015165 621
11.8999998010695 611
11.9199998006225 630
11.9399998001754 579
11.9599997997284 629
11.9799997992814 581
11.9999997988343 608
12.0199997983873 590
12.0399997979403 620
12.0599997974932 591
12.0799997970462 593
12.0999997965992 570
12.1199997961521 565
12.1399997957051 629
12.159999795258 580
12.179999794811 563
12.199999794364 609
12.2199997939169 585
12.2399997934699 615
12.2599997930229 615
12.2799997925758 635
12.2999997921288 573
12.3199997916818 615
12.3399997912347 579
12.3599997907877 603
12.3799997903407 576
12.3999997898936 578
12.4199997894466 632
12.4399997889996 652
12.4599997885525 580
12.4799997881055 622
12.4999997876585 583
12.5199997872114 600
12.5399997867644 590
12.5599997863173 636
12.5799997858703 586
12.5999997854233 576
12.6199997849762 592
12.6399997845292 596
12.6599997840822 588
12.6799997836351 620
12.6999997831881 576
12.7199997827411 626
12.739999782294 682
12.759999781847 582
12.7799997814 620
12.7999997809529 580
12.8199997805059 605
12.8399997800589 636
12.8599997796118 623
12.8799997791648 632
12.8999997787178 618
12.9199997782707 632
12.9399997778237 646
12.9599997773767 686
12.9799997769296 676
12.9999997764826 689
13.0199997760355 692
13.0399997755885 699
13.0599997751415 638
13.0799997746944 682
13.0999997742474 725
13.1199997738004 747
13.1399997733533 795
13.1599997729063 834
13.1799997724593 831
13.1999997720122 941
13.2199997715652 1046
13.2399997711182 1104
13.2599997706711 1021
13.2799997702241 936
13.2999997697771 811
13.31999976933 693
13.339999768883 650
13.359999768436 637
13.3799997679889 625
13.3999997675419 659
13.4199997670949 598
13.4399997666478 631
13.4599997662008 612
13.4799997657537 607
13.4999997653067 625
13.5199997648597 620
13.5399997644126 657
13.5599997639656 653
13.5799997635186 659
13.5999997630715 601
13.6199997626245 656
13.6399997621775 642
13.6599997617304 672
13.6799997612834 660
13.6999997608364 650
13.7199997603893 602
13.7399997599423 632
13.7599997594953 627
13.7799997590482 624
13.7999997586012 617
13.8199997581542 636
13.8399997577071 659
13.8599997572601 635
13.879999756813 611
13.899999756366 600
13.919999755919 597
13.9399997554719 621
13.9599997550249 669
13.9799997545779 650
13.9999997541308 636
14.0199997536838 687
14.0399997532368 650
14.0599997527897 667
14.0799997523427 656
14.0999997518957 709
14.1199997514486 646
14.1399997510016 678
14.1599997505546 718
14.1799997501075 705
14.1999997496605 667
14.2199997492135 682
14.2399997487664 718
14.2599997483194 745
14.2799997478724 710
14.2999997474253 769
14.3199997469783 815
14.3399997465312 825
14.3599997460842 876
14.3799997456372 913
14.3999997451901 1072
14.4199997447431 1094
14.4399997442961 1033
14.459999743849 948
14.479999743402 916
14.499999742955 779
14.5199997425079 730
14.5399997420609 687
14.5599997416139 726
14.5799997411668 690
14.5999997407198 628
14.6199997402728 664
14.6399997398257 695
14.6599997393787 742
14.6799997389317 709
14.6999997384846 738
14.7199997380376 700
14.7399997375906 766
14.7599997371435 741
14.7799997366965 810
14.7999997362494 785
14.8199997358024 791
14.8399997353554 741
14.8599997349083 741
14.8799997344613 705
14.8999997340143 699
14.9199997335672 721
14.9399997331202 678
14.9599997326732 684
14.9799997322261 671
14.9999997317791 709
15.0199997313321 727
15.039999730885 700
15.059999730438 732
15.079999729991 679
15.0999997295439 674
15.1199997290969 712
15.1399997286499 730
15.1599997282028 733
15.1799997277558 748
15.1999997273088 690
15.2199997268617 686
15.2399997264147 737
15.2599997259676 730
15.2799997255206 737
15.2999997250736 737
15.3199997246265 736
15.3399997241795 744
15.3599997237325 756
15.3799997232854 791
15.3999997228384 768
15.4199997223914 758
15.4399997219443 727
15.4599997214973 751
15.4799997210503 749
15.4999997206032 756
15.5199997201562 817
15.5399997197092 760
15.5599997192621 751
15.5799997188151 775
15.5999997183681 743
15.619999717921 767
15.639999717474 785
15.659999717027 742
15.6799997165799 751
15.6999997161329 739
15.7199997156858 757
15.7399997152388 784
15.7599997147918 778
15.7799997143447 770
15.7999997138977 738
15.8199997134507 807
15.8399997130036 759
15.8599997125566 780
15.8799997121096 765
15.8999997116625 804
15.9199997112155 787
15.9399997107685 794
15.9599997103214 805
15.9799997098744 798
15.9999997094274 768
16.0199997089803 727
16.0399997085333 765
16.0599997080863 850
16.0799997076392 771
16.0999997071922 794
16.1199997067451 819
16.1399997062981 777
16.1599997058511 836
16.179999705404 797
16.199999704957 812
16.21999970451 857
16.2399997040629 838
16.2599997036159 817
16.2799997031689 835
16.2999997027218 843
16.3199997022748 824
16.3399997018278 809
16.3599997013807 806
16.3799997009337 844
16.3999997004867 825
16.4199997000396 811
16.4399996995926 799
16.4599996991456 833
16.4799996986985 855
16.4999996982515 852
16.5199996978045 814
16.5399996973574 866
16.5599996969104 833
16.5799996964633 849
16.5999996960163 862
16.6199996955693 827
16.6399996951222 904
16.6599996946752 887
16.6799996942282 896
16.6999996937811 900
16.7199996933341 994
16.7399996928871 976
16.75999969244 991
16.779999691993 988
16.799999691546 1030
16.8199996910989 1028
16.8399996906519 1115
16.8599996902049 1149
16.8799996897578 1253
16.8999996893108 1276
16.9199996888638 1455
16.9399996884167 1615
16.9599996879697 1855
16.9799996875226 1960
16.9999996870756 1907
17.0199996866286 1861
17.0399996861815 1555
17.0599996857345 1375
17.0799996852875 1230
17.0999996848404 1082
17.1199996843934 1110
17.1399996839464 1171
17.1599996834993 1218
17.1799996830523 1402
17.1999996826053 1425
17.2199996821582 1337
17.2399996817112 1192
17.2599996812642 1177
17.2799996808171 1029
17.2999996803701 932
17.3199996799231 995
17.339999679476 973
17.359999679029 1003
17.379999678582 976
17.3999996781349 982
17.4199996776879 941
17.4399996772408 974
17.4599996767938 994
17.4799996763468 958
17.4999996758997 930
17.5199996754527 951
17.5399996750057 944
17.5599996745586 1007
17.5799996741116 920
17.5999996736646 1013
17.6199996732175 991
17.6399996727705 986
17.6599996723235 953
17.6799996718764 1007
17.6999996714294 1037
17.7199996709824 1036
17.7399996705353 991
17.7599996700883 971
17.7799996696413 988
17.7999996691942 1024
17.8199996687472 994
17.8399996683002 1026
17.8599996678531 1040
17.8799996674061 1063
17.899999666959 1039
17.919999666512 998
17.939999666065 1049
17.9599996656179 1054
17.9799996651709 1059
17.9999996647239 1087
18.0199996642768 1082
18.0399996638298 1055
18.0599996633828 1035
18.0799996629357 1072
18.0999996624887 1081
18.1199996620417 1089
18.1399996615946 1077
18.1599996611476 1003
18.1799996607006 1017
18.1999996602535 1035
18.2199996598065 1052
18.2399996593595 1072
18.2599996589124 1086
18.2799996584654 1040
18.2999996580184 1078
18.3199996575713 1090
18.3399996571243 1109
18.3599996566772 1037
18.3799996562302 1097
18.3999996557832 1023
18.4199996553361 1113
18.4399996548891 1065
18.4599996544421 1049
18.479999653995 1105
18.499999653548 1038
18.519999653101 1062
18.5399996526539 1115
18.5599996522069 1065
18.5799996517599 1161
18.5999996513128 1061
18.6199996508658 1114
18.6399996504188 1136
18.6599996499717 1132
18.6799996495247 1138
18.6999996490777 1114
18.7199996486306 1112
18.7399996481836 1096
18.7599996477366 1159
18.7799996472895 1171
18.7999996468425 1166
18.8199996463954 1138
18.8399996459484 1139
18.8599996455014 1201
18.8799996450543 1167
18.8999996446073 1166
18.9199996441603 1159
18.9399996437132 1162
18.9599996432662 1191
18.9799996428192 1137
18.9999996423721 1158
19.0199996419251 1243
19.0399996414781 1141
19.059999641031 1128
19.079999640584 1129
19.099999640137 1181
19.1199996396899 1182
19.1399996392429 1155
19.1599996387959 1233
19.1799996383488 1249
19.1999996379018 1171
19.2199996374547 1189
19.2399996370077 1223
19.2599996365607 1214
19.2799996361136 1197
19.2999996356666 1243
19.3199996352196 1133
19.3399996347725 1212
19.3599996343255 1266
19.3799996338785 1284
19.3999996334314 1335
19.4199996329844 1393
19.4399996325374 1312
19.4599996320903 1405
19.4799996316433 1504
19.4999996311963 1536
19.5199996307492 1539
19.5399996303022 1827
19.5599996298552 2009
19.5799996294081 2406
19.5999996289611 2416
19.6199996285141 2400
19.639999628067 2135
19.65999962762 1953
19.6799996271729 1688
19.6999996267259 1606
19.7199996262789 1532
19.7399996258318 1583
19.7599996253848 1673
19.7799996249378 1717
19.7999996244907 1980
19.8199996240437 2162
19.8399996235967 2482
19.8599996231496 2976
19.8799996227026 3141
19.8999996222556 2958
19.9199996218085 2566
19.9399996213615 2083
19.9599996209145 1662
19.9799996204674 1535
19.9999996200204 1326
