3 824
3.01999999955297 804
3.03999999910593 764
3.0599999986589 754
3.07999999821186 775
3.09999999776483 792
3.11999999731779 749
3.13999999687076 826
3.15999999642372 756
3.17999999597669 733
3.19999999552965 771
3.21999999508262 743
3.23999999463558 717
3.25999999418855 689
3.27999999374151 708
3.29999999329448 713
3.31999999284744 709
3.33999999240041 730
3.35999999195337 709
3.37999999150634 699
3.3999999910593 729
3.41999999061227 694
3.43999999016523 710
3.4599999897182 679
3.47999998927116 665
3.49999998882413 658
3.51999998837709 656
3.53999998793006 661
3.55999998748302 620
3.57999998703599 601
3.59999998658895 632
3.61999998614192 599
3.63999998569489 611
3.65999998524785 629
3.67999998480082 640
3.69999998435378 624
3.71999998390675 592
3.73999998345971 646
3.75999998301268 656
3.77999998256564 595
3.79999998211861 598
3.81999998167157 595
3.83999998122454 595
3.8599999807775 616
3.87999998033047 568
3.89999997988343 621
3.9199999794364 576
3.93999997898936 593
3.95999997854233 610
3.97999997809529 614
3.99999997764826 566
4.01999997720122 603
4.03999997675419 544
4.05999997630715 575
4.07999997586012 586
4.09999997541308 582
4.11999997496605 579
4.13999997451901 546
4.15999997407198 576
4.17999997362494 564
4.19999997317791 582
4.21999997273087 542
4.23999997228384 544
4.25999997183681 546
4.27999997138977 551
4.29999997094274 534
4.3199999704957 532
4.33999997004867 545
4.35999996960163 498
4.3799999691546 459
4.39999996870756 507
4.41999996826053 525
4.43999996781349 484
4.45999996736646 545
4.47999996691942 488
4.49999996647239 463
4.51999996602535 472
4.53999996557832 464
4.55999996513128 480
4.57999996468425 447
4.59999996423721 501
4.61999996379018 471
4.63999996334314 443
4.65999996289611 459
4.67999996244907 480
4.69999996200204 488
4.719999961555 472
4.73999996110797 438
4.75999996066093 461
4.7799999602139 472
4.79999995976686 467
4.81999995931983 475
4.83999995887279 475
4.85999995842576 420
4.87999995797873 471
4.89999995753169 453
4.91999995708466 415
4.93999995663762 432
4.95999995619059 404
4.97999995574355 466
4.99999995529652 475
5.01999995484948 459
5.03999995440245 457
5.05999995395541 466
5.07999995350838 447
5.09999995306134 495
5.11999995261431 468
5.13999995216727 447
5.15999995172024 467
5.1799999512732 493
5.19999995082617 509
5.21999995037913 470
5.2399999499321 501
5.25999994948506 490
5.27999994903803 491
5.29999994859099 508
5.31999994814396 530
5.33999994769692 526
5.35999994724989 503
5.37999994680285 552
5.39999994635582 501
5.41999994590878 540
5.43999994546175 539
5.45999994501471 554
5.47999994456768 618
5.49999994412065 590
5.51999994367361 625
5.53999994322658 687
5.55999994277954 674
5.57999994233251 640
5.59999994188547 608
5.61999994143844 694
5.6399999409914 772
5.65999994054437 771
5.67999994009733 829
5.6999999396503 912
5.71999993920326 985
5.73999993875623 1009
5.75999993830919 1024
5.77999993786216 1107
5.79999993741512 1235
5.81999993696809 1376
5.83999993652105 1460
5.85999993607402 1552
5.87999993562698 1554
5.89999993517995 1407
5.91999993473291 912
5.93999993428588 654
5.95999993383884 602
5.97999993339181 554
5.99999993294477 523
6.01999993249774 510
6.0399999320507 493
6.05999993160367 479
6.07999993115663 477
6.0999999307096 498
6.11999993026257 483
6.13999992981553 470
6.1599999293685 459
6.17999992892146 470
6.19999992847443 470
6.21999992802739 513
6.23999992758036 470
6.25999992713332 486
6.27999992668629 518
6.29999992623925 492
6.31999992579222 491
6.33999992534518 495
6.35999992489815 504
6.37999992445111 504
6.39999992400408 508
6.41999992355704 527
6.43999992311001 511
6.45999992266297 543
6.47999992221594 540
6.4999999217689 551
6.51999992132187 560
6.53999992087483 579
6.5599999204278 630
6.57999991998076 645
6.59999991953373 685
6.61999991908669 651
6.63999991863966 730
6.65999991819262 750
6.67999991774559 795
6.69999991729855 867
6.71999991685152 923
6.73999991640449 1049
6.75999991595745 1067
6.77999991551042 904
6.79999991506338 645
6.81999991461635 500
6.83999991416931 525
6.85999991372228 484
6.87999991327524 477
6.89999991282821 464
6.91999991238117 449
6.93999991193414 460
6.9599999114871 429
6.97999991104007 439
6.99999991059303 433
7.019999910146 434
7.03999990969896 406
7.05999990925193 435
7.07999990880489 450
7.09999990835786 428
7.11999990791082 433
7.13999990746379 420
7.15999990701675 427
7.17999990656972 415
7.19999990612268 437
7.21999990567565 385
7.23999990522861 447
7.25999990478158 430
7.27999990433454 425
7.29999990388751 429
7.31999990344047 392
7.33999990299344 404
7.35999990254641 413
7.37999990209937 447
7.39999990165234 444
7.4199999012053 438
7.43999990075827 455
7.45999990031123 457
7.4799998998642 443
7.49999989941716 403
7.51999989897013 453
7.53999989852309 430
7.55999989807606 411
7.57999989762902 450
7.59999989718199 424
7.61999989673495 416
7.63999989628792 410
7.65999989584088 443
7.67999989539385 430
7.69999989494681 400
7.71999989449978 439
7.73999989405274 440
7.75999989360571 429
7.77999989315867 386
7.79999989271164 430
7.8199998922646 429
7.83999989181757 399
7.85999989137053 403
7.8799998909235 432
7.89999989047646 399
7.91999989002943 399
7.9399998895824 407
7.95999988913536 415
7.97999988868833 417
7.99999988824129 428
8.01999988779426 455
8.03999988734722 441
8.05999988690019 417
8.07999988645315 421
8.09999988600612 413
8.11999988555908 398
8.13999988511205 404
8.15999988466501 396
8.17999988421798 385
8.19999988377094 404
8.21999988332391 443
8.23999988287687 397
8.25999988242984 433
8.2799998819828 392
8.29999988153577 408
8.31999988108873 407
8.3399998806417 406
8.35999988019466 395
8.37999987974763 422
8.39999987930059 416
8.41999987885356 411
8.43999987840652 409
8.45999987795949 427
8.47999987751245 407
8.49999987706542 383
8.51999987661839 417
8.53999987617135 446
8.55999987572432 413
8.57999987527728 399
8.59999987483025 404
8.61999987438321 457
8.63999987393618 428
8.65999987348914 427
8.67999987304211 428
8.69999987259507 402
8.71999987214804 416
8.739999871701 402
8.75999987125397 386
8.77999987080693 361
8.7999998703599 377
8.81999986991286 410
8.83999986946583 430
8.85999986901879 390
8.87999986857176 429
8.89999986812472 408
8.91999986767769 451
8.93999986723065 408
8.95999986678362 402
8.97999986633658 413
8.99999986588955 450
9.01999986544251 406
9.03999986499548 430
9.05999986454844 393
9.07999986410141 477
9.09999986365438 431
9.11999986320734 439
9.13999986276031 443
9.15999986231327 459
9.17999986186624 425
9.1999998614192 434
9.21999986097217 471
9.23999986052513 471
9.2599998600781 477
9.27999985963106 530
9.29999985918403 531
9.31999985873699 545
9.33999985828996 568
9.35999985784292 583
9.37999985739589 552
9.39999985694885 707
9.41999985650182 676
9.43999985605478 720
9.45999985560775 795
9.47999985516071 786
9.49999985471368 812
9.51999985426664 677
9.53999985381961 528
9.55999985337257 428
9.57999985292554 413
9.5999998524785 413
9.61999985203147 438
9.63999985158443 393
9.6599998511374 405
9.67999985069037 413
9.69999985024333 370
9.7199998497963 387
9.73999984934926 401
9.75999984890223 400
9.77999984845519 438
9.79999984800816 444
9.81999984756112 379
9.83999984711409 402
9.85999984666705 435
9.87999984622002 395
9.89999984577298 412
9.91999984532595 405
9.93999984487891 412
9.95999984443188 424
9.97999984398484 424
9.99999984353781 404
10.0199998430908 427
10.0399998426437 381
10.0599998421967 442
10.0799998417497 398
10.0999998413026 419
10.1199998408556 380
10.1399998404086 409
10.1599998399615 411
10.1799998395145 408
10.1999998390675 455
10.2199998386204 421
10.2399998381734 435
10.2599998377264 396
10.2799998372793 410
10.2999998368323 383
10.3199998363853 422
10.3399998359382 424
10.3599998354912 437
10.3799998350441 416
10.3999998345971 420
10.4199998341501 429
10.439999833703 410
10.459999833256 411
10.479999832809 401
10.4999998323619 416
10.5199998319149 431
10.5399998314679 392
10.5599998310208 421
10.5799998305738 414
10.5999998301268 389
10.6199998296797 421
10.6399998292327 381
10.6599998287857 378
10.6799998283386 434
10.6999998278916 422
10.7199998274446 432
10.7399998269975 433
10.7599998265505 442
10.7799998261034 418
10.7999998256564 445
10.8199998252094 462
10.8399998247623 440
10.8599998243153 483
10.8799998238683 480
10.8999998234212 518
10.9199998229742 516
10.9399998225272 560
10.9599998220801 530
10.9799998216331 575
10.9999998211861 602
11.019999820739 615
11.039999820292 664
11.059999819845 662
11.0799998193979 694
11.0999998189509 723
11.1199998185039 719
11.1399998180568 612
11.1599998176098 481
11.1799998171628 418
11.1999998167157 447
11.2199998162687 430
11.2399998158216 443
11.2599998153746 438
11.2799998149276 467
11.2999998144805 464
11.3199998140335 442
11.3399998135865 433
11.3599998131394 428
11.3799998126924 466
11.3999998122454 456
11.4199998117983 443
11.4399998113513 459
11.4599998109043 490
11.4799998104572 462
11.4999998100102 532
11.5199998095632 529
11.5399998091161 521
11.5599998086691 498
11.5799998082221 584
11.599999807775 579
11.619999807328 552
11.639999806881 457
11.6599998064339 461
11.6799998059869 432
11.6999998055398 384
11.7199998050928 416
11.7399998046458 399
11.7599998041987 392
11.7799998037517 400
11.7999998033047 433
11.8199998028576 380
11.8399998024106 408
11.8599998019636 409
11.8799998015165 407
11.8999998010695 397
11.9199998006225 375
11.9399998001754 410
11.9599997997284 405
11.9799997992814 409
11.9999997988343 445
12.0199997983873 440
12.0399997979403 400
12.0599997974932 380
12.0799997970462 407
12.0999997965992 421
12.1199997961521 421
12.1399997957051 451
12.159999795258 412
12.179999794811 430
12.199999794364 428
12.2199997939169 438
12.2399997934699 424
12.2599997930229 415
12.2799997925758 465
12.2999997921288 426
12.3199997916818 399
12.3399997912347 443
12.3599997907877 411
12.3799997903407 420
12.3999997898936 438
12.4199997894466 410
12.4399997889996 398
12.4599997885525 418
12.4799997881055 440
12.4999997876585 413
12.5199997872114 475
12.5399997867644 488
12.5599997863173 440
12.5799997858703 450
12.5999997854233 396
12.6199997849762 425
12.6399997845292 413
12.6599997840822 438
12.6799997836351 464
12.6999997831881 422
12.7199997827411 410
12.739999782294 414
12.759999781847 419
12.7799997814 426
12.7999997809529 430
12.8199997805059 423
12.8399997800589 421
12.8599997796118 373
12.8799997791648 413
12.8999997787178 414
12.9199997782707 413
12.9399997778237 404
12.9599997773767 406
12.9799997769296 429
12.9999997764826 444
13.0199997760355 459
13.0399997755885 436
13.0599997751415 457
13.0799997746944 480
13.0999997742474 455
13.1199997738004 474
13.1399997733533 483
13.1599997729063 495
13.1799997724593 466
13.1999997720122 446
13.2199997715652 487
13.2399997711182 459
13.2599997706711 472
13.2799997702241 451
13.2999997697771 506
13.31999976933 476
13.339999768883 523
13.359999768436 478
13.3799997679889 464
13.3999997675419 470
13.4199997670949 489
13.4399997666478 457
13.4599997662008 496
13.4799997657537 455
13.4999997653067 476
13.5199997648597 460
13.5399997644126 494
13.5599997639656 470
13.5799997635186 440
13.5999997630715 411
13.6199997626245 466
13.6399997621775 464
13.6599997617304 483
13.6799997612834 503
13.6999997608364 485
13.7199997603893 453
13.7399997599423 493
13.7599997594953 502
13.7799997590482 430
13.7999997586012 478
13.8199997581542 492
13.8399997577071 491
13.8599997572601 475
13.879999756813 464
13.899999756366 464
13.919999755919 459
13.9399997554719 470
13.9599997550249 462
13.9799997545779 490
13.9999997541308 471
14.0199997536838 478
14.0399997532368 466
14.0599997527897 522
14.0799997523427 502
14.0999997518957 497
14.1199997514486 488
14.1399997510016 466
14.1599997505546 489
14.1799997501075 516
14.1999997496605 515
14.2199997492135 491
14.2399997487664 490
14.2599997483194 523
14.2799997478724 488
14.2999997474253 516
14.3199997469783 543
14.3399997465312 532
14.3599997460842 507
14.3799997456372 532
14.3999997451901 519
14.4199997447431 514
14.4399997442961 538
14.459999743849 527
14.479999743402 494
14.499999742955 566
14.5199997425079 551
14.5399997420609 535
14.5599997416139 551
14.5799997411668 510
14.5999997407198 540
14.6199997402728 497
14.6399997398257 504
14.6599997393787 538
14.6799997389317 549
14.6999997384846 538
14.7199997380376 514
14.7399997375906 539
14.7599997371435 527
14.7799997366965 554
14.7999997362494 531
14.8199997358024 529
14.8399997353554 554
14.8599997349083 526
14.8799997344613 538
14.8999997340143 560
14.9199997335672 539
14.9399997331202 555
14.9599997326732 532
14.9799997322261 555
14.9999997317791 578
15.0199997313321 525
15.039999730885 573
15.059999730438 520
15.079999729991 535
15.0999997295439 533
15.1199997290969 537
15.1399997286499 581
15.1599997282028 562
15.1799997277558 558
15.1999997273088 560
15.2199997268617 605
15.2399997264147 563
15.2599997259676 549
15.2799997255206 552
15.2999997250736 565
15.3199997246265 601
15.3399997241795 569
15.3599997237325 538
15.3799997232854 551
15.3999997228384 579
15.4199997223914 598
15.4399997219443 540
15.4599997214973 548
15.4799997210503 606
15.4999997206032 619
15.5199997201562 599
15.5399997197092 561
15.5599997192621 578
15.5799997188151 608
15.5999997183681 584
15.619999717921 596
15.639999717474 612
15.659999717027 563
15.6799997165799 540
15.6999997161329 594
15.7199997156858 625
15.7399997152388 609
15.7599997147918 595
15.7799997143447 638
15.7999997138977 600
15.8199997134507 619
15.8399997130036 621
15.8599997125566 664
15.8799997121096 641
15.8999997116625 662
15.9199997112155 597
15.9399997107685 639
15.9599997103214 609
15.9799997098744 633
15.9999997094274 589
16.0199997089803 644
16.0399997085333 650
16.0599997080863 617
16.0799997076392 664
16.0999997071922 653
16.1199997067451 641
16.1399997062981 609
16.1599997058511 661
16.179999705404 697
16.199999704957 658
16.21999970451 650
16.2399997040629 674
16.2599997036159 678
16.2799997031689 642
16.2999997027218 600
16.3199997022748 681
16.3399997018278 685
16.3599997013807 665
16.3799997009337 655
16.3999997004867 677
16.4199997000396 658
16.4399996995926 658
16.4599996991456 662
16.4799996986985 691
16.4999996982515 673
16.5199996978045 698
16.5399996973574 696
16.5599996969104 730
16.5799996964633 662
16.5999996960163 733
16.6199996955693 703
16.6399996951222 697
16.6599996946752 676
16.6799996942282 656
16.6999996937811 721
16.7199996933341 746
16.7399996928871 739
16.75999969244 699
16.779999691993 706
16.799999691546 741
16.8199996910989 706
16.8399996906519 689
16.8599996902049 749
16.8799996897578 761
16.8999996893108 743
16.9199996888638 792
16.9399996884167 767
16.9599996879697 738
16.9799996875226 752
16.9999996870756 766
17.0199996866286 734
17.0399996861815 756
17.0599996857345 773
17.0799996852875 747
17.0999996848404 773
17.1199996843934 873
17.1399996839464 802
17.1599996834993 818
17.1799996830523 837
17.1999996826053 781
17.2199996821582 769
17.2399996817112 790
17.2599996812642 810
17.2799996808171 818
17.2999996803701 800
17.3199996799231 816
17.339999679476 829
17.359999679029 793
17.379999678582 822
17.3999996781349 842
17.4199996776879 816
17.4399996772408 823
17.4599996767938 877
17.4799996763468 855
17.4999996758997 848
17.5199996754527 783
17.5399996750057 818
17.5599996745586 860
17.5799996741116 840
17.5999996736646 878
17.6199996732175 825
17.6399996727705 818
17.6599996723235 926
17.6799996718764 829
17.6999996714294 814
17.7199996709824 817
17.7399996705353 842
17.7599996700883 837
17.7799996696413 873
17.7999996691942 909
17.8199996687472 881
17.8399996683002 872
17.8599996678531 907
17.8799996674061 869
17.899999666959 905
17.919999666512 891
17.939999666065 903
17.9599996656179 843
17.9799996651709 928
17.9999996647239 879
18.0199996642768 975
18.0399996638298 914
18.0599996633828 925
18.0799996629357 922
18.0999996624887 941
18.1199996620417 919
18.1399996615946 898
18.1599996611476 910
18.1799996607006 914
18.1999996602535 895
18.2199996598065 933
18.2399996593595 926
18.2599996589124 935
18.2799996584654 942
18.2999996580184 960
18.3199996575713 994
18.3399996571243 953
18.3599996566772 1012
18.3799996562302 1004
18.3999996557832 962
18.4199996553361 993
18.4399996548891 972
18.4599996544421 978
18.479999653995 984
18.499999653548 1006
18.519999653101 995
18.5399996526539 1003
18.5599996522069 915
18.5799996517599 921
18.5999996513128 959
18.6199996508658 1009
18.6399996504188 987
18.6599996499717 984
18.6799996495247 1004
18.6999996490777 1017
18.7199996486306 1012
18.7399996481836 1012
18.7599996477366 1047
18.7799996472895 1055
18.7999996468425 1109
18.8199996463954 1018
18.8399996459484 1054
18.8599996455014 1080
18.8799996450543 1061
18.8999996446073 1071
18.9199996441603 995
18.9399996437132 1104
18.9599996432662 1084
18.9799996428192 1069
18.9999996423721 1078
19.0199996419251 1058
19.0399996414781 1104
19.059999641031 1198
19.079999640584 1161
19.099999640137 1051
19.1199996396899 1061
19.1399996392429 1169
19.1599996387959 1134
19.1799996383488 1054
19.1999996379018 1124
19.2199996374547 1106
19.2399996370077 1130
19.2599996365607 1134
19.2799996361136 1114
19.2999996356666 1135
19.3199996352196 1166
19.3399996347725 1156
19.3599996343255 1102
19.3799996338785 1123
19.3999996334314 1203
19.4199996329844 1172
19.4399996325374 1234
19.4599996320903 1129
19.4799996316433 1176
19.4999996311963 1153
19.5199996307492 1171
19.5399996303022 1224
19.5599996298552 1149
19.5799996294081 1229
19.5999996289611 1216
19.6199996285141 1224
19.639999628067 1234
19.65999962762 1257
19.6799996271729 1276
19.6999996267259 1313
19.7199996262789 1300
19.7399996258318 1299
19.7599996253848 1333
19.7799996249378 1314
19.7999996244907 1296
19.8199996240437 1307
19.8399996235967 1264
19.8599996231496 1275
19.8799996227026 1301
19.8999996222556 1303
19.9199996218085 1328
19.9399996213615 1371
19.9599996209145 1375
19.9799996204674 1377
19.9999996200204 1349
