3 1066
3.01999999955297 1067
3.03999999910593 1030
3.0599999986589 1048
3.07999999821186 937
3.09999999776483 1011
3.11999999731779 966
3.13999999687076 951
3.15999999642372 936
3.17999999597669 946
3.19999999552965 891
3.21999999508262 908
3.23999999463558 896
3.25999999418855 895
3.27999999374151 900
3.29999999329448 955
3.31999999284744 922
3.33999999240041 863
3.35999999195337 858
3.37999999150634 883
3.3999999910593 816
3.41999999061227 877
3.43999999016523 800
3.4599999897182 814
3.47999998927116 799
3.49999998882413 808
3.51999998837709 811
3.53999998793006 794
3.55999998748302 763
3.57999998703599 788
3.59999998658895 769
3.61999998614192 761
3.63999998569489 787
3.65999998524785 803
3.67999998480082 784
3.69999998435378 723
3.71999998390675 780
3.73999998345971 717
3.75999998301268 735
3.77999998256564 750
3.79999998211861 716
3.81999998167157 673
3.83999998122454 706
3.8599999807775 708
3.87999998033047 715
3.89999997988343 701
3.9199999794364 699
3.93999997898936 757
3.95999997854233 693
3.97999997809529 690
3.99999997764826 678
4.01999997720122 678
4.03999997675419 712
4.05999997630715 649
4.07999997586012 657
4.09999997541308 682
4.11999997496605 647
4.13999997451901 624
4.15999997407198 625
4.17999997362494 673
4.19999997317791 669
4.21999997273087 615
4.23999997228384 585
4.25999997183681 580
4.27999997138977 629
4.29999997094274 623
4.3199999704957 618
4.33999997004867 602
4.35999996960163 593
4.3799999691546 649
4.39999996870756 595
4.41999996826053 592
4.43999996781349 622
4.45999996736646 581
4.47999996691942 612
4.49999996647239 603
4.51999996602535 579
4.53999996557832 625
4.55999996513128 615
4.57999996468425 607
4.59999996423721 608
4.61999996379018 603
4.63999996334314 613
4.65999996289611 621
4.67999996244907 618
4.69999996200204 643
4.719999961555 601
4.73999996110797 601
4.75999996066093 635
4.7799999602139 614
4.79999995976686 617
4.81999995931983 618
4.83999995887279 648
4.85999995842576 610
4.87999995797873 621
4.89999995753169 707
4.91999995708466 687
4.93999995663762 636
4.95999995619059 667
4.97999995574355 645
4.99999995529652 637
5.01999995484948 674
5.03999995440245 677
5.05999995395541 672
5.07999995350838 712
5.09999995306134 763
5.11999995261431 767
5.13999995216727 771
5.15999995172024 818
5.1799999512732 804
5.19999995082617 801
5.21999995037913 850
5.2399999499321 849
5.25999994948506 874
5.27999994903803 879
5.29999994859099 985
5.31999994814396 949
5.33999994769692 1030
5.35999994724989 1055
5.37999994680285 1127
5.39999994635582 1192
5.41999994590878 1238
5.43999994546175 1282
5.45999994501471 1336
5.47999994456768 1442
5.49999994412065 1500
5.51999994367361 1617
5.53999994322658 1722
5.55999994277954 1808
5.57999994233251 2008
5.59999994188547 2176
5.61999994143844 2218
5.6399999409914 2441
5.65999994054437 2612
5.67999994009733 3048
5.6999999396503 3409
5.71999993920326 4142
5.73999993875623 5090
5.75999993830919 6492
5.77999993786216 6601
5.79999993741512 4184
5.81999993696809 2020
5.83999993652105 1078
5.85999993607402 985
5.87999993562698 877
5.89999993517995 872
5.91999993473291 780
5.93999993428588 767
5.95999993383884 756
5.97999993339181 703
5.99999993294477 684
6.01999993249774 749
6.0399999320507 746
6.05999993160367 722
6.07999993115663 697
6.0999999307096 724
6.11999993026257 735
6.13999992981553 691
6.1599999293685 716
6.17999992892146 792
6.19999992847443 780
6.21999992802739 781
6.23999992758036 787
6.25999992713332 861
6.27999992668629 876
6.29999992623925 850
6.31999992579222 902
6.33999992534518 958
6.35999992489815 1009
6.37999992445111 1074
6.39999992400408 1101
6.41999992355704 1150
6.43999992311001 1284
6.45999992266297 1249
6.47999992221594 1360
6.4999999217689 1426
6.51999992132187 1588
6.53999992087483 1706
6.5599999204278 1945
6.57999991998076 2132
6.59999991953373 2465
6.61999991908669 3144
6.63999991863966 3895
6.65999991819262 3940
6.67999991774559 2656
6.69999991729855 1407
6.71999991685152 837
6.73999991640449 702
6.75999991595745 688
6.77999991551042 610
6.79999991506338 621
6.81999991461635 605
6.83999991416931 614
6.85999991372228 549
6.87999991327524 552
6.89999991282821 589
6.91999991238117 577
6.93999991193414 587
6.9599999114871 576
6.97999991104007 577
6.99999991059303 552
7.019999910146 546
7.03999990969896 564
7.05999990925193 558
7.07999990880489 559
7.09999990835786 565
7.11999990791082 561
7.13999990746379 518
7.15999990701675 545
7.17999990656972 544
7.19999990612268 558
7.21999990567565 533
7.23999990522861 518
7.25999990478158 527
7.27999990433454 530
7.29999990388751 580
7.31999990344047 548
7.33999990299344 507
7.35999990254641 576
7.37999990209937 533
7.39999990165234 530
7.4199999012053 539
7.43999990075827 556
7.45999990031123 576
7.4799998998642 514
7.49999989941716 512
7.51999989897013 549
7.53999989852309 521
7.55999989807606 511
7.57999989762902 534
7.59999989718199 535
7.61999989673495 532
7.63999989628792 529
7.65999989584088 536
7.67999989539385 529
7.69999989494681 549
7.71999989449978 498
7.73999989405274 540
7.75999989360571 540
7.77999989315867 562
7.79999989271164 502
7.8199998922646 506
7.83999989181757 519
7.85999989137053 491
7.8799998909235 513
7.89999989047646 525
7.91999989002943 524
7.9399998895824 548
7.95999988913536 544
7.97999988868833 519
7.99999988824129 518
8.01999988779426 532
8.03999988734722 521
8.05999988690019 498
8.07999988645315 547
8.09999988600612 537
8.11999988555908 515
8.13999988511205 529
8.15999988466501 511
8.17999988421798 547
8.19999988377094 551
8.21999988332391 536
8.23999988287687 550
8.25999988242984 566
8.2799998819828 525
8.29999988153577 561
8.31999988108873 532
8.3399998806417 483
8.35999988019466 486
8.37999987974763 525
8.39999987930059 507
8.41999987885356 548
8.43999987840652 519
8.45999987795949 560
8.47999987751245 569
8.49999987706542 564
8.51999987661839 539
8.53999987617135 533
8.55999987572432 550
8.57999987527728 538
8.59999987483025 561
8.61999987438321 513
8.63999987393618 516
8.65999987348914 517
8.67999987304211 536
8.69999987259507 539
8.71999987214804 566
8.739999871701 501
8.75999987125397 525
8.77999987080693 542
8.7999998703599 592
8.81999986991286 482
8.83999986946583 569
8.85999986901879 562
8.87999986857176 605
8.89999986812472 631
8.91999986767769 600
8.93999986723065 599
8.95999986678362 608
8.97999986633658 634
8.99999986588955 658
9.01999986544251 630
9.03999986499548 705
9.05999986454844 704
9.07999986410141 702
9.09999986365438 709
9.11999986320734 762
9.13999986276031 803
9.15999986231327 890
9.17999986186624 859
9.1999998614192 978
9.21999986097217 977
9.23999986052513 1070
9.2599998600781 1204
9.27999985963106 1315
9.29999985918403 1517
9.31999985873699 1786
9.33999985828996 2141
9.35999985784292 2588
9.37999985739589 2852
9.39999985694885 2481
9.41999985650182 1455
9.43999985605478 831
9.45999985560775 694
9.47999985516071 598
9.49999985471368 593
9.51999985426664 622
9.53999985381961 596
9.55999985337257 608
9.57999985292554 575
9.5999998524785 565
9.61999985203147 531
9.63999985158443 526
9.6599998511374 589
9.67999985069037 585
9.69999985024333 568
9.7199998497963 581
9.73999984934926 561
9.75999984890223 579
9.77999984845519 550
9.79999984800816 549
9.81999984756112 552
9.83999984711409 577
9.85999984666705 578
9.87999984622002 534
9.89999984577298 572
9.91999984532595 574
9.93999984487891 560
9.95999984443188 526
9.97999984398484 532
9.99999984353781 576
10.0199998430908 558
10.0399998426437 548
10.0599998421967 546
10.0799998417497 521
10.0999998413026 565
10.1199998408556 574
10.1399998404086 553
10.1599998399615 572
10.1799998395145 538
10.1999998390675 572
10.2199998386204 576
10.2399998381734 621
10.2599998377264 586
10.2799998372793 610
10.2999998368323 567
10.3199998363853 595
10.3399998359382 595
10.3599998354912 590
10.3799998350441 560
10.3999998345971 603
10.4199998341501 593
10.439999833703 641
10.459999833256 600
10.479999832809 609
10.4999998323619 579
10.5199998319149 589
10.5399998314679 645
10.5599998310208 606
10.5799998305738 620
10.5999998301268 632
10.6199998296797 630
10.6399998292327 634
10.6599998287857 701
10.6799998283386 722
10.6999998278916 734
10.7199998274446 786
10.7399998269975 761
10.7599998265505 784
10.7799998261034 902
10.7999998256564 920
10.8199998252094 921
10.8399998247623 995
10.8599998243153 1107
10.8799998238683 1290
10.8999998234212 1301
10.9199998229742 1528
10.9399998225272 1830
10.9599998220801 2172
10.9799998216331 2686
10.9999998211861 2718
11.019999820739 2010
11.039999820292 1304
11.059999819845 827
11.0799998193979 766
11.0999998189509 670
11.1199998185039 686
11.1399998180568 744
11.1599998176098 665
11.1799998171628 691
11.1999998167157 681
11.2199998162687 690
11.2399998158216 744
11.2599998153746 735
11.2799998149276 716
11.2999998144805 783
11.3199998140335 764
11.3399998135865 854
11.3599998131394 864
11.3799998126924 931
11.3999998122454 1016
11.4199998117983 1148
11.4399998113513 1373
11.4599998109043 1540
11.4799998104572 1731
11.4999998100102 1413
11.5199998095632 1020
11.5399998091161 817
11.5599998086691 717
11.5799998082221 621
11.599999807775 635
11.619999807328 675
11.639999806881 575
11.6599998064339 645
11.6799998059869 633
11.6999998055398 542
11.7199998050928 608
11.7399998046458 647
11.7599998041987 624
11.7799998037517 602
11.7999998033047 626
11.8199998028576 620
11.8399998024106 644
11.8599998019636 586
11.8799998015165 614
11.8999998010695 594
11.9199998006225 659
11.9399998001754 593
11.9599997997284 625
11.9799997992814 604
11.9999997988343 622
12.0199997983873 585
12.0399997979403 609
12.0599997974932 609
12.0799997970462 616
12.0999997965992 628
12.1199997961521 619
12.1399997957051 601
12.159999795258 602
12.179999794811 587
12.199999794364 633
12.2199997939169 584
12.2399997934699 636
12.2599997930229 611
12.2799997925758 650
12.2999997921288 662
12.3199997916818 655
12.3399997912347 621
12.3599997907877 618
12.3799997903407 633
12.3999997898936 629
12.4199997894466 644
12.4399997889996 613
12.4599997885525 619
12.4799997881055 615
12.4999997876585 641
12.5199997872114 562
12.5399997867644 625
12.5599997863173 580
12.5799997858703 629
12.5999997854233 691
12.6199997849762 664
12.6399997845292 599
12.6599997840822 635
12.6799997836351 645
12.6999997831881 660
12.7199997827411 668
12.739999782294 644
12.759999781847 678
12.7799997814 622
12.7999997809529 691
12.8199997805059 687
12.8399997800589 675
12.8599997796118 647
12.8799997791648 651
12.8999997787178 674
12.9199997782707 654
12.9399997778237 605
12.9599997773767 673
12.9799997769296 699
12.9999997764826 728
13.0199997760355 664
13.0399997755885 712
13.0599997751415 700
13.0799997746944 718
13.0999997742474 713
13.1199997738004 761
13.1399997733533 817
13.1599997729063 761
13.1799997724593 822
13.1999997720122 878
13.2199997715652 993
13.2399997711182 960
13.2599997706711 1003
13.2799997702241 895
13.2999997697771 768
13.31999976933 665
13.339999768883 730
13.359999768436 741
13.3799997679889 704
13.3999997675419 657
13.4199997670949 709
13.4399997666478 692
13.4599997662008 659
13.4799997657537 713
13.4999997653067 713
13.5199997648597 701
13.5399997644126 665
13.5599997639656 637
13.5799997635186 718
13.5999997630715 694
13.6199997626245 694
13.6399997621775 713
13.6599997617304 725
13.6799997612834 723
13.6999997608364 696
13.7199997603893 680
13.7399997599423 667
13.7599997594953 699
13.7799997590482 680
13.7999997586012 726
13.8199997581542 728
13.8399997577071 697
13.8599997572601 698
13.879999756813 684
13.899999756366 733
13.919999755919 742
13.9399997554719 741
13.9599997550249 740
13.9799997545779 772
13.9999997541308 752
14.0199997536838 694
14.0399997532368 701
14.0599997527897 694
14.0799997523427 707
14.0999997518957 714
14.1199997514486 748
14.1399997510016 702
14.1599997505546 803
14.1799997501075 755
14.1999997496605 768
14.2199997492135 817
14.2399997487664 760
14.2599997483194 759
14.2799997478724 812
14.2999997474253 827
14.3199997469783 824
14.3399997465312 797
14.3599997460842 816
14.3799997456372 850
14.3999997451901 918
14.4199997447431 1002
14.4399997442961 1067
14.459999743849 1017
14.479999743402 895
14.499999742955 804
14.5199997425079 785
14.5399997420609 828
14.5599997416139 766
14.5799997411668 808
14.5999997407198 792
14.6199997402728 777
14.6399997398257 830
14.6599997393787 802
14.6799997389317 807
14.6999997384846 809
14.7199997380376 772
14.7399997375906 816
14.7599997371435 829
14.7799997366965 860
14.7999997362494 869
14.8199997358024 856
14.8399997353554 856
14.8599997349083 838
14.8799997344613 810
14.8999997340143 792
14.9199997335672 778
14.9399997331202 804
14.9599997326732 847
14.9799997322261 790
14.9999997317791 802
15.0199997313321 806
15.039999730885 818
15.059999730438 791
15.079999729991 826
15.0999997295439 837
15.1199997290969 821
15.1399997286499 811
15.1599997282028 815
15.1799997277558 839
15.1999997273088 892
15.2199997268617 837
15.2399997264147 834
15.2599997259676 790
15.2799997255206 822
15.2999997250736 850
15.3199997246265 838
15.3399997241795 819
15.3599997237325 867
15.3799997232854 849
15.3999997228384 863
15.4199997223914 879
15.4399997219443 883
15.4599997214973 841
15.4799997210503 841
15.4999997206032 865
15.5199997201562 865
15.5399997197092 862
15.5599997192621 854
15.5799997188151 888
15.5999997183681 927
15.619999717921 898
15.639999717474 846
15.659999717027 866
15.6799997165799 852
15.6999997161329 836
15.7199997156858 891
15.7399997152388 858
15.7599997147918 887
15.7799997143447 912
15.7999997138977 930
15.8199997134507 889
15.8399997130036 857
15.8599997125566 886
15.8799997121096 842
15.8999997116625 848
15.9199997112155 900
15.9399997107685 909
15.9599997103214 914
15.9799997098744 867
15.9999997094274 970
16.0199997089803 845
16.0399997085333 905
16.0599997080863 949
16.0799997076392 956
16.0999997071922 915
16.1199997067451 953
16.1399997062981 934
16.1599997058511 916
16.179999705404 915
16.199999704957 915
16.21999970451 950
16.2399997040629 959
16.2599997036159 947
16.2799997031689 933
16.2999997027218 948
16.3199997022748 970
16.3399997018278 1030
16.3599997013807 918
16.3799997009337 972
16.3999997004867 1037
16.4199997000396 1000
16.4399996995926 999
16.4599996991456 934
16.4799996986985 1002
16.4999996982515 1039
16.5199996978045 1011
16.5399996973574 1051
16.5599996969104 977
16.5799996964633 998
16.5999996960163 1028
16.6199996955693 1001
16.6399996951222 999
16.6599996946752 1040
16.6799996942282 1031
16.6999996937811 1003
16.7199996933341 963
16.7399996928871 1039
16.75999969244 1038
16.779999691993 1045
16.799999691546 1023
16.8199996910989 1034
16.8399996906519 1066
16.8599996902049 1080
16.8799996897578 1044
16.8999996893108 1039
16.9199996888638 1069
16.9399996884167 1116
16.9599996879697 1066
16.9799996875226 1081
16.9999996870756 1095
17.0199996866286 1147
17.0399996861815 1174
17.0599996857345 1105
17.0799996852875 1090
17.0999996848404 1159
17.1199996843934 1162
17.1399996839464 1223
17.1599996834993 1215
17.1799996830523 1286
17.1999996826053 1370
17.2199996821582 1412
17.2399996817112 1285
17.2599996812642 1275
17.2799996808171 1165
17.2999996803701 1097
17.3199996799231 1106
17.339999679476 1195
17.359999679029 1188
17.379999678582 1179
17.3999996781349 1112
17.4199996776879 1137
17.4399996772408 1150
17.4599996767938 1166
17.4799996763468 1130
17.4999996758997 1189
17.5199996754527 1217
17.5399996750057 1185
17.5599996745586 1184
17.5799996741116 1198
17.5999996736646 1230
17.6199996732175 1194
17.6399996727705 1145
17.6599996723235 1129
17.6799996718764 1153
17.6999996714294 1210
17.7199996709824 1191
17.7399996705353 1210
17.7599996700883 1212
17.7799996696413 1300
17.7999996691942 1162
17.8199996687472 1210
17.8399996683002 1187
17.8599996678531 1238
17.8799996674061 1230
17.899999666959 1240
17.919999666512 1212
17.939999666065 1231
17.9599996656179 1294
17.9799996651709 1234
17.9999996647239 1204
18.0199996642768 1233
18.0399996638298 1229
18.0599996633828 1398
18.0799996629357 1260
18.0999996624887 1249
18.1199996620417 1253
18.1399996615946 1269
18.1599996611476 1281
18.1799996607006 1273
18.1999996602535 1219
18.2199996598065 1277
18.2399996593595 1285
18.2599996589124 1238
18.2799996584654 1310
18.2999996580184 1236
18.3199996575713 1257
18.3399996571243 1284
18.3599996566772 1323
18.3799996562302 1301
18.3999996557832 1346
18.4199996553361 1292
18.4399996548891 1353
18.4599996544421 1322
18.479999653995 1352
18.499999653548 1303
18.519999653101 1302
18.5399996526539 1365
18.5599996522069 1344
18.5799996517599 1298
18.5999996513128 1335
18.6199996508658 1339
18.6399996504188 1330
18.6599996499717 1323
18.6799996495247 1357
18.6999996490777 1320
18.7199996486306 1357
18.7399996481836 1347
18.7599996477366 1330
18.7799996472895 1392
18.7999996468425 1420
18.8199996463954 1294
18.8399996459484 1330
18.8599996455014 1364
18.8799996450543 1392
18.8999996446073 1375
18.9199996441603 1406
18.9399996437132 1421
18.9599996432662 1394
18.9799996428192 1359
18.9999996423721 1408
19.0199996419251 1385
19.0399996414781 1408
19.059999641031 1464
19.079999640584 1414
19.099999640137 1356
19.1199996396899 1423
19.1399996392429 1420
19.1599996387959 1406
19.1799996383488 1414
19.1999996379018 1468
19.2199996374547 1417
19.2399996370077 1409
19.2599996365607 1454
19.2799996361136 1493
19.2999996356666 1483
19.3199996352196 1478
19.3399996347725 1436
19.3599996343255 1481
19.3799996338785 1493
19.3999996334314 1528
19.4199996329844 1593
19.4399996325374 1538
19.4599996320903 1632
19.4799996316433 1670
19.4999996311963 1692
19.5199996307492 1798
19.5399996303022 1850
19.5599996298552 1900
19.5799996294081 2236
19.5999996289611 2158
19.6199996285141 2247
19.639999628067 1978
19.65999962762 1845
19.6799996271729 1761
19.6999996267259 1618
19.7199996262789 1641
19.7399996258318 1702
19.7599996253848 1728
19.7799996249378 1770
19.7999996244907 1847
19.8199996240437 2005
19.8399996235967 2154
19.8599996231496 2431
19.8799996227026 2550
19.8999996222556 2501
19.9199996218085 2251
19.9399996213615 1971
19.9599996209145 1673
19.9799996204674 1642
19.9999996200204 1527
