3 973
3.01999999955297 1066
3.03999999910593 1004
3.0599999986589 989
3.07999999821186 984
3.09999999776483 924
3.11999999731779 941
3.13999999687076 963
3.15999999642372 914
3.17999999597669 901
3.19999999552965 884
3.21999999508262 956
3.23999999463558 920
3.25999999418855 873
3.27999999374151 897
3.29999999329448 882
3.31999999284744 902
3.33999999240041 811
3.35999999195337 842
3.37999999150634 845
3.3999999910593 862
3.41999999061227 899
3.43999999016523 830
3.4599999897182 846
3.47999998927116 808
3.49999998882413 841
3.51999998837709 849
3.53999998793006 831
3.55999998748302 821
3.57999998703599 829
3.59999998658895 792
3.61999998614192 820
3.63999998569489 811
3.65999998524785 791
3.67999998480082 764
3.69999998435378 767
3.71999998390675 775
3.73999998345971 780
3.75999998301268 774
3.77999998256564 748
3.79999998211861 806
3.81999998167157 766
3.83999998122454 775
3.8599999807775 731
3.87999998033047 761
3.89999997988343 744
3.9199999794364 789
3.93999997898936 741
3.95999997854233 758
3.97999997809529 731
3.99999997764826 772
4.01999997720122 721
4.03999997675419 716
4.05999997630715 770
4.07999997586012 774
4.09999997541308 766
4.11999997496605 675
4.13999997451901 808
4.15999997407198 773
4.17999997362494 748
4.19999997317791 679
4.21999997273087 727
4.23999997228384 744
4.25999997183681 714
4.27999997138977 733
4.29999997094274 751
4.3199999704957 732
4.33999997004867 734
4.35999996960163 706
4.3799999691546 691
4.39999996870756 697
4.41999996826053 741
4.43999996781349 720
4.45999996736646 749
4.47999996691942 742
4.49999996647239 713
4.51999996602535 724
4.53999996557832 728
4.55999996513128 734
4.57999996468425 723
4.59999996423721 723
4.61999996379018 716
4.63999996334314 752
4.65999996289611 746
4.67999996244907 726
4.69999996200204 741
4.719999961555 730
4.73999996110797 745
4.75999996066093 718
4.7799999602139 711
4.79999995976686 746
4.81999995931983 682
4.83999995887279 737
4.85999995842576 757
4.87999995797873 750
4.89999995753169 744
4.91999995708466 781
4.93999995663762 738
4.95999995619059 740
4.97999995574355 738
4.99999995529652 737
5.01999995484948 733
5.03999995440245 756
5.05999995395541 765
5.07999995350838 791
5.09999995306134 778
5.11999995261431 826
5.13999995216727 779
5.15999995172024 835
5.1799999512732 788
5.19999995082617 839
5.21999995037913 847
5.2399999499321 887
5.25999994948506 864
5.27999994903803 875
5.29999994859099 895
5.31999994814396 843
5.33999994769692 867
5.35999994724989 904
5.37999994680285 928
5.39999994635582 912
5.41999994590878 894
5.43999994546175 961
5.45999994501471 963
5.47999994456768 1011
5.49999994412065 1058
5.51999994367361 1103
5.53999994322658 1141
5.55999994277954 1205
5.57999994233251 1208
5.59999994188547 1208
5.61999994143844 1338
5.6399999409914 1420
5.65999994054437 1504
5.67999994009733 1583
5.6999999396503 1736
5.71999993920326 1905
5.73999993875623 1878
5.75999993830919 2032
5.77999993786216 2024
5.79999993741512 1862
5.81999993696809 1767
5.83999993652105 1611
5.85999993607402 1389
5.87999993562698 1234
5.89999993517995 1057
5.91999993473291 894
5.93999993428588 846
5.95999993383884 824
5.97999993339181 828
5.99999993294477 787
6.01999993249774 720
6.0399999320507 749
6.05999993160367 718
6.07999993115663 747
6.0999999307096 758
6.11999993026257 732
6.13999992981553 739
6.1599999293685 691
6.17999992892146 739
6.19999992847443 761
6.21999992802739 689
6.23999992758036 703
6.25999992713332 745
6.27999992668629 732
6.29999992623925 738
6.31999992579222 771
6.33999992534518 770
6.35999992489815 791
6.37999992445111 810
6.39999992400408 794
6.41999992355704 799
6.43999992311001 850
6.45999992266297 890
6.47999992221594 899
6.4999999217689 916
6.51999992132187 966
6.53999992087483 997
6.5599999204278 1019
6.57999991998076 1092
6.59999991953373 1184
6.61999991908669 1165
6.63999991863966 1241
6.65999991819262 1251
6.67999991774559 1213
6.69999991729855 1112
6.71999991685152 1056
6.73999991640449 981
6.75999991595745 887
6.77999991551042 827
6.79999991506338 722
6.81999991461635 682
6.83999991416931 726
6.85999991372228 594
6.87999991327524 606
6.89999991282821 593
6.91999991238117 599
6.93999991193414 599
6.9599999114871 565
6.97999991104007 609
6.99999991059303 554
7.019999910146 583
7.03999990969896 627
7.05999990925193 595
7.07999990880489 649
7.09999990835786 616
7.11999990791082 579
7.13999990746379 587
7.15999990701675 585
7.17999990656972 587
7.19999990612268 551
7.21999990567565 555
7.23999990522861 588
7.25999990478158 594
7.27999990433454 611
7.29999990388751 572
7.31999990344047 564
7.33999990299344 543
7.35999990254641 579
7.37999990209937 593
7.39999990165234 593
7.4199999012053 584
7.43999990075827 559
7.45999990031123 566
7.4799998998642 620
7.49999989941716 582
7.51999989897013 602
7.53999989852309 586
7.55999989807606 559
7.57999989762902 549
7.59999989718199 572
7.61999989673495 551
7.63999989628792 549
7.65999989584088 558
7.67999989539385 573
7.69999989494681 587
7.71999989449978 587
7.73999989405274 544
7.75999989360571 605
7.77999989315867 529
7.79999989271164 587
7.8199998922646 527
7.83999989181757 610
7.85999989137053 551
7.8799998909235 585
7.89999989047646 560
7.91999989002943 568
7.9399998895824 585
7.95999988913536 554
7.97999988868833 493
7.99999988824129 558
8.01999988779426 537
8.03999988734722 545
8.05999988690019 540
8.07999988645315 552
8.09999988600612 538
8.11999988555908 569
8.13999988511205 534
8.15999988466501 557
8.17999988421798 570
8.19999988377094 554
8.21999988332391 539
8.23999988287687 570
8.25999988242984 548
8.2799998819828 559
8.29999988153577 529
8.31999988108873 560
8.3399998806417 534
8.35999988019466 556
8.37999987974763 564
8.39999987930059 561
8.41999987885356 563
8.43999987840652 548
8.45999987795949 544
8.47999987751245 549
8.49999987706542 568
8.51999987661839 566
8.53999987617135 589
8.55999987572432 549
8.57999987527728 545
8.59999987483025 538
8.61999987438321 566
8.63999987393618 564
8.65999987348914 575
8.67999987304211 539
8.69999987259507 544
8.71999987214804 530
8.739999871701 554
8.75999987125397 505
8.77999987080693 516
8.7999998703599 557
8.81999986991286 583
8.83999986946583 536
8.85999986901879 541
8.87999986857176 572
8.89999986812472 592
8.91999986767769 598
8.93999986723065 605
8.95999986678362 603
8.97999986633658 540
8.99999986588955 544
9.01999986544251 594
9.03999986499548 605
9.05999986454844 576
9.07999986410141 690
9.09999986365438 658
9.11999986320734 590
9.13999986276031 637
9.15999986231327 667
9.17999986186624 661
9.1999998614192 660
9.21999986097217 699
9.23999986052513 724
9.2599998600781 771
9.27999985963106 821
9.29999985918403 905
9.31999985873699 891
9.33999985828996 994
9.35999985784292 1012
9.37999985739589 1101
9.39999985694885 1027
9.41999985650182 976
9.43999985605478 907
9.45999985560775 852
9.47999985516071 763
9.49999985471368 720
9.51999985426664 630
9.53999985381961 612
9.55999985337257 613
9.57999985292554 579
9.5999998524785 592
9.61999985203147 555
9.63999985158443 574
9.6599998511374 608
9.67999985069037 534
9.69999985024333 569
9.7199998497963 579
9.73999984934926 557
9.75999984890223 575
9.77999984845519 552
9.79999984800816 529
9.81999984756112 555
9.83999984711409 521
9.85999984666705 564
9.87999984622002 561
9.89999984577298 572
9.91999984532595 548
9.93999984487891 580
9.95999984443188 550
9.97999984398484 595
9.99999984353781 579
10.0199998430908 562
10.0399998426437 579
10.0599998421967 588
10.0799998417497 553
10.0999998413026 557
10.1199998408556 553
10.1399998404086 592
10.1599998399615 567
10.1799998395145 542
10.1999998390675 562
10.2199998386204 598
10.2399998381734 578
10.2599998377264 571
10.2799998372793 577
10.2999998368323 564
10.3199998363853 596
10.3399998359382 568
10.3599998354912 535
10.3799998350441 529
10.3999998345971 600
10.4199998341501 580
10.439999833703 514
10.459999833256 595
10.479999832809 555
10.4999998323619 557
10.5199998319149 553
10.5399998314679 606
10.5599998310208 559
10.5799998305738 576
10.5999998301268 603
10.6199998296797 616
10.6399998292327 582
10.6599998287857 575
10.6799998283386 598
10.6999998278916 630
10.7199998274446 622
10.7399998269975 617
10.7599998265505 629
10.7799998261034 673
10.7999998256564 645
10.8199998252094 717
10.8399998247623 759
10.8599998243153 762
10.8799998238683 812
10.8999998234212 847
10.9199998229742 914
10.9399998225272 939
10.9599998220801 948
10.9799998216331 1049
10.9999998211861 1006
11.019999820739 959
11.039999820292 933
11.059999819845 826
11.0799998193979 786
11.0999998189509 736
11.1199998185039 716
11.1399998180568 671
11.1599998176098 611
11.1799998171628 612
11.1999998167157 626
11.2199998162687 583
11.2399998158216 627
11.2599998153746 588
11.2799998149276 640
11.2999998144805 627
11.3199998140335 653
11.3399998135865 664
11.3599998131394 680
11.3799998126924 704
11.3999998122454 730
11.4199998117983 750
11.4399998113513 785
11.4599998109043 807
11.4799998104572 817
11.4999998100102 794
11.5199998095632 743
11.5399998091161 726
11.5599998086691 743
11.5799998082221 672
11.599999807775 646
11.619999807328 620
11.639999806881 589
11.6599998064339 588
11.6799998059869 581
11.6999998055398 635
11.7199998050928 590
11.7399998046458 536
11.7599998041987 571
11.7799998037517 562
11.7999998033047 558
11.8199998028576 591
11.8399998024106 580
11.8599998019636 597
11.8799998015165 564
11.8999998010695 589
11.9199998006225 574
11.9399998001754 580
11.9599997997284 544
11.9799997992814 581
11.9999997988343 571
12.0199997983873 544
12.0399997979403 579
12.0599997974932 563
12.0799997970462 585
12.0999997965992 611
12.1199997961521 600
12.1399997957051 603
12.159999795258 572
12.179999794811 570
12.199999794364 559
12.2199997939169 589
12.2399997934699 579
12.2599997930229 570
12.2799997925758 617
12.2999997921288 617
12.3199997916818 613
12.3399997912347 580
12.3599997907877 554
12.3799997903407 550
12.3999997898936 555
12.4199997894466 561
12.4399997889996 588
12.4599997885525 542
12.4799997881055 558
12.4999997876585 589
12.5199997872114 573
12.5399997867644 544
12.5599997863173 626
12.5799997858703 579
12.5999997854233 595
12.6199997849762 575
12.6399997845292 612
12.6599997840822 547
12.6799997836351 621
12.6999997831881 588
12.7199997827411 608
12.739999782294 554
12.759999781847 607
12.7799997814 584
12.7999997809529 642
12.8199997805059 616
12.8399997800589 568
12.8599997796118 592
12.8799997791648 600
12.8999997787178 592
12.9199997782707 610
12.9399997778237 579
12.9599997773767 584
12.9799997769296 613
12.9999997764826 578
13.0199997760355 625
13.0399997755885 647
13.0599997751415 634
13.0799997746944 624
13.0999997742474 613
13.1199997738004 621
13.1399997733533 623
13.1599997729063 674
13.1799997724593 663
13.1999997720122 660
13.2199997715652 681
13.2399997711182 670
13.2599997706711 696
13.2799997702241 722
13.2999997697771 626
13.31999976933 625
13.339999768883 645
13.359999768436 629
13.3799997679889 613
13.3999997675419 637
13.4199997670949 651
13.4399997666478 609
13.4599997662008 620
13.4799997657537 649
13.4999997653067 639
13.5199997648597 664
13.5399997644126 635
13.5599997639656 665
13.5799997635186 645
13.5999997630715 621
13.6199997626245 623
13.6399997621775 625
13.6599997617304 561
13.6799997612834 614
13.6999997608364 698
13.7199997603893 633
13.7399997599423 617
13.7599997594953 620
13.7799997590482 617
13.7999997586012 633
13.8199997581542 666
13.8399997577071 666
13.8599997572601 659
13.879999756813 655
13.899999756366 668
13.919999755919 602
13.9399997554719 662
13.9599997550249 632
13.9799997545779 612
13.9999997541308 682
14.0199997536838 642
14.0399997532368 663
14.0599997527897 689
14.0799997523427 660
14.0999997518957 644
14.1199997514486 687
14.1399997510016 677
14.1599997505546 644
14.1799997501075 654
14.1999997496605 685
14.2199997492135 681
14.2399997487664 685
14.2599997483194 703
14.2799997478724 672
14.2999997474253 698
14.3199997469783 717
14.3399997465312 752
14.3599997460842 708
14.3799997456372 726
14.3999997451901 734
14.4199997447431 762
14.4399997442961 754
14.459999743849 770
14.479999743402 743
14.499999742955 717
14.5199997425079 722
14.5399997420609 713
14.5599997416139 724
14.5799997411668 691
14.5999997407198 749
14.6199997402728 656
14.6399997398257 760
14.6599997393787 691
14.6799997389317 733
14.6999997384846 689
14.7199997380376 707
14.7399997375906 710
14.7599997371435 704
14.7799997366965 742
14.7999997362494 685
14.8199997358024 707
14.8399997353554 764
14.8599997349083 746
14.8799997344613 780
14.8999997340143 731
14.9199997335672 751
14.9399997331202 733
14.9599997326732 727
14.9799997322261 722
14.9999997317791 728
15.0199997313321 729
15.039999730885 746
15.059999730438 734
15.079999729991 738
15.0999997295439 759
15.1199997290969 727
15.1399997286499 798
15.1599997282028 763
15.1799997277558 807
15.1999997273088 798
15.2199997268617 797
15.2399997264147 795
15.2599997259676 736
15.2799997255206 761
15.2999997250736 767
15.3199997246265 764
15.3399997241795 725
15.3599997237325 777
15.3799997232854 739
15.3999997228384 793
15.4199997223914 823
15.4399997219443 800
15.4599997214973 805
15.4799997210503 752
15.4999997206032 765
15.5199997201562 831
15.5399997197092 821
15.5599997192621 811
15.5799997188151 817
15.5999997183681 752
15.619999717921 728
15.639999717474 772
15.659999717027 794
15.6799997165799 802
15.6999997161329 826
15.7199997156858 832
15.7399997152388 834
15.7599997147918 861
15.7799997143447 785
15.7999997138977 851
15.8199997134507 790
15.8399997130036 812
15.8599997125566 869
15.8799997121096 800
15.8999997116625 876
15.9199997112155 828
15.9399997107685 831
15.9599997103214 853
15.9799997098744 854
15.9999997094274 890
16.0199997089803 832
16.0399997085333 827
16.0599997080863 852
16.0799997076392 834
16.0999997071922 819
16.1199997067451 861
16.1399997062981 796
16.1599997058511 857
16.179999705404 862
16.199999704957 870
16.21999970451 872
16.2399997040629 886
16.2599997036159 937
16.2799997031689 920
16.2999997027218 889
16.3199997022748 890
16.3399997018278 919
16.3599997013807 886
16.3799997009337 928
16.3999997004867 917
16.4199997000396 908
16.4399996995926 973
16.4599996991456 915
16.4799996986985 980
16.4999996982515 954
16.5199996978045 937
16.5399996973574 895
16.5599996969104 943
16.5799996964633 908
16.5999996960163 950
16.6199996955693 930
16.6399996951222 912
16.6599996946752 934
16.6799996942282 1024
16.6999996937811 912
16.7199996933341 890
16.7399996928871 941
16.75999969244 965
16.779999691993 952
16.799999691546 987
16.8199996910989 949
16.8399996906519 987
16.8599996902049 972
16.8799996897578 910
16.8999996893108 979
16.9199996888638 986
16.9399996884167 955
16.9599996879697 1000
16.9799996875226 1020
16.9999996870756 1042
17.0199996866286 1004
17.0399996861815 980
17.0599996857345 950
17.0799996852875 1034
17.0999996848404 1085
17.1199996843934 1023
17.1399996839464 1129
17.1599996834993 1093
17.1799996830523 1099
17.1999996826053 1077
17.2199996821582 1098
17.2399996817112 1081
17.2599996812642 1117
17.2799996808171 1145
17.2999996803701 1138
17.3199996799231 1050
17.339999679476 1102
17.359999679029 1080
17.379999678582 1060
17.3999996781349 1034
17.4199996776879 1078
17.4399996772408 1080
17.4599996767938 1104
17.4799996763468 1119
17.4999996758997 1045
17.5199996754527 1068
17.5399996750057 1102
17.5599996745586 1058
17.5799996741116 1066
17.5999996736646 1070
17.6199996732175 1159
17.6399996727705 1095
17.6599996723235 1119
17.6799996718764 1100
17.6999996714294 1144
17.7199996709824 1074
17.7399996705353 1143
17.7599996700883 1161
17.7799996696413 1106
17.7999996691942 1138
17.8199996687472 1144
17.8399996683002 1205
17.8599996678531 1149
17.8799996674061 1192
17.899999666959 1178
17.919999666512 1160
17.939999666065 1110
17.9599996656179 1168
17.9799996651709 1109
17.9999996647239 1219
18.0199996642768 1152
18.0399996638298 1118
18.0599996633828 1121
18.0799996629357 1215
18.0999996624887 1212
18.1199996620417 1219
18.1399996615946 1150
18.1599996611476 1241
18.1799996607006 1158
18.1999996602535 1154
18.2199996598065 1168
18.2399996593595 1160
18.2599996589124 1171
18.2799996584654 1168
18.2999996580184 1214
18.3199996575713 1187
18.3399996571243 1233
18.3599996566772 1212
18.3799996562302 1278
18.3999996557832 1196
18.4199996553361 1215
18.4399996548891 1231
18.4599996544421 1196
18.479999653995 1210
18.499999653548 1244
18.519999653101 1206
18.5399996526539 1266
18.5599996522069 1290
18.5799996517599 1226
18.5999996513128 1228
18.6199996508658 1200
18.6399996504188 1326
18.6599996499717 1251
18.6799996495247 1290
18.6999996490777 1244
18.7199996486306 1241
18.7399996481836 1288
18.7599996477366 1300
18.7799996472895 1244
18.7999996468425 1268
18.8199996463954 1303
18.8399996459484 1305
18.8599996455014 1327
18.8799996450543 1299
18.8999996446073 1264
18.9199996441603 1238
18.9399996437132 1284
18.9599996432662 1277
18.9799996428192 1350
18.9999996423721 1301
19.0199996419251 1297
19.0399996414781 1244
19.059999641031 1291
19.079999640584 1286
19.099999640137 1339
19.1199996396899 1351
19.1399996392429 1366
19.1599996387959 1351
19.1799996383488 1332
19.1999996379018 1296
19.2199996374547 1278
19.2399996370077 1434
19.2599996365607 1329
19.2799996361136 1314
19.2999996356666 1367
19.3199996352196 1413
19.3399996347725 1344
19.3599996343255 1400
19.3799996338785 1423
19.3999996334314 1367
19.4199996329844 1392
19.4399996325374 1399
19.4599996320903 1484
19.4799996316433 1409
19.4999996311963 1519
19.5199996307492 1554
19.5399996303022 1514
19.5599996298552 1589
19.5799996294081 1595
19.5999996289611 1655
19.6199996285141 1620
19.639999628067 1594
19.65999962762 1595
19.6799996271729 1505
19.6999996267259 1598
19.7199996262789 1552
19.7399996258318 1561
19.7599996253848 1535
19.7799996249378 1524
19.7999996244907 1615
19.8199996240437 1659
19.8399996235967 1644
19.8599996231496 1700
19.8799996227026 1746
19.8999996222556 1768
19.9199996218085 1777
19.9399996213615 1632
19.9599996209145 1638
19.9799996204674 1544
19.9999996200204 1533
