3 1359
3.01999999955297 1344
3.03999999910593 1320
3.0599999986589 1269
3.07999999821186 1272
3.09999999776483 1277
3.11999999731779 1293
3.13999999687076 1273
3.15999999642372 1284
3.17999999597669 1217
3.19999999552965 1236
3.21999999508262 1220
3.23999999463558 1227
3.25999999418855 1212
3.27999999374151 1188
3.29999999329448 1192
3.31999999284744 1212
3.33999999240041 1170
3.35999999195337 1210
3.37999999150634 1188
3.3999999910593 1177
3.41999999061227 1166
3.43999999016523 1205
3.4599999897182 1139
3.47999998927116 1203
3.49999998882413 1154
3.51999998837709 1160
3.53999998793006 1150
3.55999998748302 1114
3.57999998703599 1153
3.59999998658895 1142
3.61999998614192 1155
3.63999998569489 1114
3.65999998524785 1191
3.67999998480082 1131
3.69999998435378 1154
3.71999998390675 1161
3.73999998345971 1177
3.75999998301268 1148
3.77999998256564 1189
3.79999998211861 1154
3.81999998167157 1224
3.83999998122454 1149
3.8599999807775 1175
3.87999998033047 1161
3.89999997988343 1141
3.9199999794364 1138
3.93999997898936 1205
3.95999997854233 1173
3.97999997809529 1236
3.99999997764826 1182
4.01999997720122 1163
4.03999997675419 1263
4.05999997630715 1190
4.07999997586012 1208
4.09999997541308 1241
4.11999997496605 1243
4.13999997451901 1312
4.15999997407198 1232
4.17999997362494 1216
4.19999997317791 1194
4.21999997273087 1207
4.23999997228384 1219
4.25999997183681 1240
4.27999997138977 1223
4.29999997094274 1289
4.3199999704957 1237
4.33999997004867 1287
4.35999996960163 1271
4.3799999691546 1280
4.39999996870756 1328
4.41999996826053 1363
4.43999996781349 1346
4.45999996736646 1329
4.47999996691942 1375
4.49999996647239 1321
4.51999996602535 1367
4.53999996557832 1386
4.55999996513128 1342
4.57999996468425 1402
4.59999996423721 1378
4.61999996379018 1366
4.63999996334314 1367
4.65999996289611 1332
4.67999996244907 1370
4.69999996200204 1378
4.719999961555 1400
4.73999996110797 1407
4.75999996066093 1398
4.7799999602139 1398
4.79999995976686 1359
4.81999995931983 1384
4.83999995887279 1467
4.85999995842576 1402
4.87999995797873 1413
4.89999995753169 1409
4.91999995708466 1563
4.93999995663762 1406
4.95999995619059 1536
4.97999995574355 1490
4.99999995529652 1427
5.01999995484948 1459
5.03999995440245 1435
5.05999995395541 1497
5.07999995350838 1456
5.09999995306134 1423
5.11999995261431 1539
5.13999995216727 1525
5.15999995172024 1485
5.1799999512732 1461
5.19999995082617 1456
5.21999995037913 1529
5.2399999499321 1509
5.25999994948506 1470
5.27999994903803 1545
5.29999994859099 1551
5.31999994814396 1557
5.33999994769692 1526
5.35999994724989 1551
5.37999994680285 1645
5.39999994635582 1655
5.41999994590878 1601
5.43999994546175 1653
5.45999994501471 1658
5.47999994456768 1675
5.49999994412065 1745
5.51999994367361 1845
5.53999994322658 1833
5.55999994277954 1858
5.57999994233251 1913
5.59999994188547 1888
5.61999994143844 1986
5.6399999409914 2154
5.65999994054437 2235
5.67999994009733 2459
5.6999999396503 2796
5.71999993920326 3032
5.73999993875623 2556
5.75999993830919 2187
5.77999993786216 1694
5.79999993741512 1430
5.81999993696809 1297
5.83999993652105 1259
5.85999993607402 1328
5.87999993562698 1146
5.89999993517995 1186
5.91999993473291 1112
5.93999993428588 1201
5.95999993383884 1116
5.97999993339181 1169
5.99999993294477 1173
6.01999993249774 1217
6.0399999320507 1155
6.05999993160367 1108
6.07999993115663 1088
6.0999999307096 1070
6.11999993026257 1147
6.13999992981553 1140
6.1599999293685 1180
6.17999992892146 1114
6.19999992847443 1118
6.21999992802739 1130
6.23999992758036 1123
6.25999992713332 1093
6.27999992668629 1092
6.29999992623925 1115
6.31999992579222 1101
6.33999992534518 1113
6.35999992489815 1110
6.37999992445111 1195
6.39999992400408 1198
6.41999992355704 1223
6.43999992311001 1245
6.45999992266297 1263
6.47999992221594 1318
6.4999999217689 1351
6.51999992132187 1492
6.53999992087483 1602
6.5599999204278 1702
6.57999991998076 1847
6.59999991953373 1877
6.61999991908669 1715
6.63999991863966 1468
6.65999991819262 1151
6.67999991774559 1035
6.69999991729855 923
6.71999991685152 874
6.73999991640449 953
6.75999991595745 897
6.77999991551042 862
6.79999991506338 880
6.81999991461635 899
6.83999991416931 921
6.85999991372228 879
6.87999991327524 898
6.89999991282821 905
6.91999991238117 881
6.93999991193414 876
6.9599999114871 912
6.97999991104007 796
6.99999991059303 878
7.019999910146 898
7.03999990969896 869
7.05999990925193 853
7.07999990880489 877
7.09999990835786 845
7.11999990791082 797
7.13999990746379 800
7.15999990701675 816
7.17999990656972 824
7.19999990612268 831
7.21999990567565 843
7.23999990522861 819
7.25999990478158 803
7.27999990433454 803
7.29999990388751 811
7.31999990344047 842
7.33999990299344 839
7.35999990254641 833
7.37999990209937 805
7.39999990165234 830
7.4199999012053 800
7.43999990075827 809
7.45999990031123 788
7.4799998998642 812
7.49999989941716 748
7.51999989897013 837
7.53999989852309 815
7.55999989807606 759
7.57999989762902 809
7.59999989718199 762
7.61999989673495 775
7.63999989628792 754
7.65999989584088 804
7.67999989539385 788
7.69999989494681 799
7.71999989449978 766
7.73999989405274 796
7.75999989360571 800
7.77999989315867 768
7.79999989271164 802
7.8199998922646 754
7.83999989181757 751
7.85999989137053 774
7.8799998909235 756
7.89999989047646 779
7.91999989002943 723
7.9399998895824 782
7.95999988913536 763
7.97999988868833 763
7.99999988824129 774
8.01999988779426 752
8.03999988734722 777
8.05999988690019 769
8.07999988645315 751
8.09999988600612 748
8.11999988555908 734
8.13999988511205 810
8.15999988466501 772
8.17999988421798 758
8.19999988377094 768
8.21999988332391 735
8.23999988287687 732
8.25999988242984 733
8.2799998819828 748
8.29999988153577 791
8.31999988108873 753
8.3399998806417 782
8.35999988019466 779
8.37999987974763 767
8.39999987930059 766
8.41999987885356 745
8.43999987840652 771
8.45999987795949 773
8.47999987751245 833
8.49999987706542 780
8.51999987661839 782
8.53999987617135 758
8.55999987572432 773
8.57999987527728 775
8.59999987483025 712
8.61999987438321 761
8.63999987393618 801
8.65999987348914 790
8.67999987304211 793
8.69999987259507 778
8.71999987214804 767
8.739999871701 783
8.75999987125397 769
8.77999987080693 781
8.7999998703599 781
8.81999986991286 790
8.83999986946583 782
8.85999986901879 751
8.87999986857176 810
8.89999986812472 831
8.91999986767769 756
8.93999986723065 763
8.95999986678362 809
8.97999986633658 807
8.99999986588955 834
9.01999986544251 787
9.03999986499548 829
9.05999986454844 868
9.07999986410141 896
9.09999986365438 802
9.11999986320734 910
9.13999986276031 864
9.15999986231327 925
9.17999986186624 948
9.1999998614192 1018
9.21999986097217 1035
9.23999986052513 1140
9.2599998600781 1200
9.27999985963106 1335
9.29999985918403 1447
9.31999985873699 1448
9.33999985828996 1399
9.35999985784292 1229
9.37999985739589 1059
9.39999985694885 851
9.41999985650182 804
9.43999985605478 778
9.45999985560775 751
9.47999985516071 746
9.49999985471368 764
9.51999985426664 776
9.53999985381961 780
9.55999985337257 755
9.57999985292554 748
9.5999998524785 793
9.61999985203147 710
9.63999985158443 750
9.6599998511374 781
9.67999985069037 761
9.69999985024333 768
9.7199998497963 771
9.73999984934926 801
9.75999984890223 777
9.77999984845519 769
9.79999984800816 740
9.81999984756112 785
9.83999984711409 737
9.85999984666705 754
9.87999984622002 710
9.89999984577298 737
9.91999984532595 710
9.93999984487891 756
9.95999984443188 715
9.97999984398484 731
9.99999984353781 730
10.0199998430908 788
10.0399998426437 743
10.0599998421967 749
10.0799998417497 734
10.0999998413026 747
10.1199998408556 785
10.1399998404086 777
10.1599998399615 785
10.1799998395145 746
10.1999998390675 735
10.2199998386204 700
10.2399998381734 708
10.2599998377264 736
10.2799998372793 755
10.2999998368323 715
10.3199998363853 746
10.3399998359382 744
10.3599998354912 742
10.3799998350441 723
10.3999998345971 719
10.4199998341501 726
10.439999833703 712
10.459999833256 761
10.479999832809 775
10.4999998323619 755
10.5199998319149 713
10.5399998314679 760
10.5599998310208 783
10.5799998305738 718
10.5999998301268 771
10.6199998296797 765
10.6399998292327 767
10.6599998287857 842
10.6799998283386 843
10.6999998278916 781
10.7199998274446 816
10.7399998269975 815
10.7599998265505 867
10.7799998261034 882
10.7999998256564 922
10.8199998252094 893
10.8399998247623 1023
10.8599998243153 1072
10.8799998238683 1136
10.8999998234212 1268
10.9199998229742 1318
10.9399998225272 1291
10.9599998220801 1230
10.9799998216331 1062
10.9999998211861 910
11.019999820739 810
11.039999820292 770
11.059999819845 749
11.0799998193979 756
11.0999998189509 716
11.1199998185039 810
11.1399998180568 705
11.1599998176098 769
11.1799998171628 782
11.1999998167157 734
11.2199998162687 737
11.2399998158216 764
11.2599998153746 806
11.2799998149276 805
11.2999998144805 815
11.3199998140335 791
11.3399998135865 796
11.3599998131394 894
11.3799998126924 926
11.3999998122454 1011
11.4199998117983 1029
11.4399998113513 999
11.4599998109043 898
11.4799998104572 765
11.4999998100102 768
11.5199998095632 775
11.5399998091161 711
11.5599998086691 739
11.5799998082221 667
11.599999807775 710
11.619999807328 699
11.639999806881 731
11.6599998064339 702
11.6799998059869 718
11.6999998055398 738
11.7199998050928 716
11.7399998046458 705
11.7599998041987 664
11.7799998037517 710
11.7999998033047 707
11.8199998028576 696
11.8399998024106 691
11.8599998019636 711
11.8799998015165 714
11.8999998010695 718
11.9199998006225 727
11.9399998001754 718
11.9599997997284 723
11.9799997992814 670
11.9999997988343 712
12.0199997983873 701
12.0399997979403 660
12.0599997974932 716
12.0799997970462 732
12.0999997965992 735
12.1199997961521 705
12.1399997957051 696
12.159999795258 703
12.179999794811 698
12.199999794364 686
12.2199997939169 744
12.2399997934699 682
12.2599997930229 718
12.2799997925758 694
12.2999997921288 788
12.3199997916818 712
12.3399997912347 644
12.3599997907877 679
12.3799997903407 719
12.3999997898936 688
12.4199997894466 720
12.4399997889996 719
12.4599997885525 713
12.4799997881055 725
12.4999997876585 727
12.5199997872114 704
12.5399997867644 716
12.5599997863173 684
12.5799997858703 725
12.5999997854233 659
12.6199997849762 721
12.6399997845292 711
12.6599997840822 685
12.6799997836351 747
12.6999997831881 734
12.7199997827411 694
12.739999782294 711
12.759999781847 723
12.7799997814 689
12.7999997809529 779
12.8199997805059 739
12.8399997800589 738
12.8599997796118 741
12.8799997791648 706
12.8999997787178 722
12.9199997782707 731
12.9399997778237 700
12.9599997773767 691
12.9799997769296 722
12.9999997764826 757
13.0199997760355 706
13.0399997755885 786
13.0599997751415 725
13.0799997746944 771
13.0999997742474 803
13.1199997738004 761
13.1399997733533 809
13.1599997729063 815
13.1799997724593 832
13.1999997720122 812
13.2199997715652 815
13.2399997711182 739
13.2599997706711 740
13.2799997702241 695
13.2999997697771 733
13.31999976933 747
13.339999768883 759
13.359999768436 738
13.3799997679889 673
13.3999997675419 720
13.4199997670949 729
13.4399997666478 708
13.4599997662008 718
13.4799997657537 714
13.4999997653067 706
13.5199997648597 694
13.5399997644126 730
13.5599997639656 697
13.5799997635186 763
13.5999997630715 690
13.6199997626245 751
13.6399997621775 681
13.6599997617304 727
13.6799997612834 724
13.6999997608364 703
13.7199997603893 731
13.7399997599423 690
13.7599997594953 716
13.7799997590482 746
13.7999997586012 711
13.8199997581542 748
13.8399997577071 692
13.8599997572601 728
13.879999756813 738
13.899999756366 740
13.919999755919 739
13.9399997554719 718
13.9599997550249 715
13.9799997545779 722
13.9999997541308 719
14.0199997536838 728
14.0399997532368 734
14.0599997527897 699
14.0799997523427 735
14.0999997518957 741
14.1199997514486 758
14.1399997510016 744
14.1599997505546 693
14.1799997501075 748
14.1999997496605 758
14.2199997492135 801
14.2399997487664 788
14.2599997483194 818
14.2799997478724 785
14.2999997474253 781
14.3199997469783 766
14.3399997465312 873
14.3599997460842 814
14.3799997456372 840
14.3999997451901 801
14.4199997447431 793
14.4399997442961 746
14.459999743849 799
14.479999743402 764
14.499999742955 740
14.5199997425079 716
14.5399997420609 728
14.5599997416139 813
14.5799997411668 748
14.5999997407198 786
14.6199997402728 758
14.6399997398257 815
14.6599997393787 792
14.6799997389317 755
14.6999997384846 793
14.7199997380376 802
14.7399997375906 689
14.7599997371435 829
14.7799997366965 766
14.7999997362494 773
14.8199997358024 753
14.8399997353554 813
14.8599997349083 781
14.8799997344613 773
14.8999997340143 773
14.9199997335672 778
14.9399997331202 790
14.9599997326732 806
14.9799997322261 778
14.9999997317791 791
15.0199997313321 770
15.039999730885 771
15.059999730438 802
15.079999729991 789
15.0999997295439 771
15.1199997290969 761
15.1399997286499 790
15.1599997282028 810
15.1799997277558 801
15.1999997273088 794
15.2199997268617 815
15.2399997264147 794
15.2599997259676 797
15.2799997255206 819
15.2999997250736 809
15.3199997246265 717
15.3399997241795 815
15.3599997237325 794
15.3799997232854 835
15.3999997228384 800
15.4199997223914 795
15.4399997219443 765
15.4599997214973 821
15.4799997210503 842
15.4999997206032 770
15.5199997201562 839
15.5399997197092 850
15.5599997192621 844
15.5799997188151 830
15.5999997183681 798
15.619999717921 800
15.639999717474 813
15.659999717027 795
15.6799997165799 832
15.6999997161329 781
15.7199997156858 825
15.7399997152388 821
15.7599997147918 807
15.7799997143447 793
15.7999997138977 790
15.8199997134507 854
15.8399997130036 869
15.8599997125566 871
15.8799997121096 873
15.8999997116625 865
15.9199997112155 850
15.9399997107685 857
15.9599997103214 878
15.9799997098744 807
15.9999997094274 824
16.0199997089803 838
16.0399997085333 811
16.0599997080863 851
16.0799997076392 857
16.0999997071922 820
16.1199997067451 830
16.1399997062981 847
16.1599997058511 863
16.179999705404 869
16.199999704957 856
16.21999970451 824
16.2399997040629 835
16.2599997036159 872
16.2799997031689 847
16.2999997027218 847
16.3199997022748 884
16.3399997018278 864
16.3599997013807 869
16.3799997009337 896
16.3999997004867 857
16.4199997000396 892
16.4399996995926 846
16.4599996991456 866
16.4799996986985 873
16.4999996982515 932
16.5199996978045 869
16.5399996973574 910
16.5599996969104 854
16.5799996964633 881
16.5999996960163 840
16.6199996955693 934
16.6399996951222 917
16.6599996946752 865
16.6799996942282 896
16.6999996937811 876
16.7199996933341 872
16.7399996928871 873
16.75999969244 890
16.779999691993 898
16.799999691546 911
16.8199996910989 892
16.8399996906519 930
16.8599996902049 928
16.8799996897578 904
16.8999996893108 903
16.9199996888638 872
16.9399996884167 966
16.9599996879697 982
16.9799996875226 938
16.9999996870756 893
17.0199996866286 977
17.0399996861815 943
17.0599996857345 936
17.0799996852875 955
17.0999996848404 967
17.1199996843934 998
17.1399996839464 980
17.1599996834993 1009
17.1799996830523 1019
17.1999996826053 957
17.2199996821582 950
17.2399996817112 924
17.2599996812642 933
17.2799996808171 951
17.2999996803701 913
17.3199996799231 939
17.339999679476 915
17.359999679029 935
17.379999678582 1001
17.3999996781349 938
17.4199996776879 952
17.4399996772408 954
17.4599996767938 948
17.4799996763468 982
17.4999996758997 932
17.5199996754527 916
17.5399996750057 967
17.5599996745586 940
17.5799996741116 941
17.5999996736646 998
17.6199996732175 936
17.6399996727705 944
17.6599996723235 962
17.6799996718764 986
17.6999996714294 998
17.7199996709824 978
17.7399996705353 1018
17.7599996700883 962
17.7799996696413 981
17.7999996691942 1005
17.8199996687472 988
17.8399996683002 990
17.8599996678531 981
17.8799996674061 1025
17.899999666959 1015
17.919999666512 975
17.939999666065 932
17.9599996656179 1033
17.9799996651709 986
17.9999996647239 1005
18.0199996642768 981
18.0399996638298 1030
18.0599996633828 1042
18.0799996629357 1028
18.0999996624887 1055
18.1199996620417 1053
18.1399996615946 1050
18.1599996611476 1032
18.1799996607006 998
18.1999996602535 1055
18.2199996598065 1045
18.2399996593595 1047
18.2599996589124 1053
18.2799996584654 1017
18.2999996580184 1061
18.3199996575713 1041
18.3399996571243 1048
18.3599996566772 1007
18.3799996562302 1034
18.3999996557832 1044
18.4199996553361 1105
18.4399996548891 1105
18.4599996544421 1089
18.479999653995 1057
18.499999653548 1041
18.519999653101 1013
18.5399996526539 1075
18.5599996522069 1035
18.5799996517599 1017
18.5999996513128 1048
18.6199996508658 996
18.6399996504188 1056
18.6599996499717 1051
18.6799996495247 1128
18.6999996490777 1076
18.7199996486306 1051
18.7399996481836 1022
18.7599996477366 1067
18.7799996472895 1088
18.7999996468425 1064
18.8199996463954 1075
18.8399996459484 1067
18.8599996455014 1066
18.8799996450543 1056
18.8999996446073 1168
18.9199996441603 1129
18.9399996437132 1097
18.9599996432662 1112
18.9799996428192 1115
18.9999996423721 1045
19.0199996419251 1113
19.0399996414781 1095
19.059999641031 1085
19.079999640584 1085
19.099999640137 1077
19.1199996396899 1149
19.1399996392429 1071
19.1599996387959 1146
19.1799996383488 1156
19.1999996379018 1157
19.2199996374547 1079
19.2399996370077 1138
19.2599996365607 1115
19.2799996361136 1202
19.2999996356666 1216
19.3199996352196 1177
19.3399996347725 1162
19.3599996343255 1192
19.3799996338785 1105
19.3999996334314 1160
19.4199996329844 1195
19.4399996325374 1253
19.4599996320903 1124
19.4799996316433 1221
19.4999996311963 1239
19.5199996307492 1344
19.5399996303022 1325
19.5599996298552 1304
19.5799996294081 1276
19.5999996289611 1281
19.6199996285141 1233
19.639999628067 1203
19.65999962762 1187
19.6799996271729 1237
19.6999996267259 1214
19.7199996262789 1253
19.7399996258318 1274
19.7599996253848 1284
19.7799996249378 1402
19.7999996244907 1486
19.8199996240437 1462
19.8399996235967 1418
19.8599996231496 1433
19.8799996227026 1362
19.8999996222556 1319
19.9199996218085 1240
19.9399996213615 1182
19.9599996209145 1193
19.9799996204674 1147
19.9999996200204 1146
