3 986
3.01999999955297 960
3.03999999910593 825
3.0599999986589 768
3.07999999821186 734
3.09999999776483 651
3.11999999731779 677
3.13999999687076 602
3.15999999642372 629
3.17999999597669 577
3.19999999552965 582
3.21999999508262 581
3.23999999463558 542
3.25999999418855 567
3.27999999374151 548
3.29999999329448 567
3.31999999284744 528
3.33999999240041 565
3.35999999195337 513
3.37999999150634 490
3.3999999910593 494
3.41999999061227 535
3.43999999016523 541
3.4599999897182 468
3.47999998927116 475
3.49999998882413 473
3.51999998837709 507
3.53999998793006 493
3.55999998748302 482
3.57999998703599 471
3.59999998658895 456
3.61999998614192 467
3.63999998569489 464
3.65999998524785 470
3.67999998480082 470
3.69999998435378 446
3.71999998390675 472
3.73999998345971 468
3.75999998301268 416
3.77999998256564 397
3.79999998211861 410
3.81999998167157 396
3.83999998122454 453
3.8599999807775 436
3.87999998033047 447
3.89999997988343 420
3.9199999794364 392
3.93999997898936 432
3.95999997854233 452
3.97999997809529 386
3.99999997764826 421
4.01999997720122 425
4.03999997675419 420
4.05999997630715 412
4.07999997586012 388
4.09999997541308 437
4.11999997496605 444
4.13999997451901 437
4.15999997407198 413
4.17999997362494 427
4.19999997317791 416
4.21999997273087 420
4.23999997228384 404
4.25999997183681 396
4.27999997138977 379
4.29999997094274 406
4.3199999704957 356
4.33999997004867 391
4.35999996960163 403
4.3799999691546 378
4.39999996870756 404
4.41999996826053 440
4.43999996781349 373
4.45999996736646 393
4.47999996691942 426
4.49999996647239 401
4.51999996602535 404
4.53999996557832 448
4.55999996513128 399
4.57999996468425 410
4.59999996423721 379
4.61999996379018 416
4.63999996334314 399
4.65999996289611 450
4.67999996244907 404
4.69999996200204 404
4.719999961555 388
4.73999996110797 417
4.75999996066093 378
4.7799999602139 368
4.79999995976686 419
4.81999995931983 379
4.83999995887279 399
4.85999995842576 392
4.87999995797873 420
4.89999995753169 364
4.91999995708466 396
4.93999995663762 416
4.95999995619059 406
4.97999995574355 427
4.99999995529652 394
5.01999995484948 395
5.03999995440245 410
5.05999995395541 412
5.07999995350838 397
5.09999995306134 411
5.11999995261431 413
5.13999995216727 442
5.15999995172024 417
5.1799999512732 411
5.19999995082617 407
5.21999995037913 412
5.2399999499321 392
5.25999994948506 398
5.27999994903803 416
5.29999994859099 453
5.31999994814396 402
5.33999994769692 413
5.35999994724989 421
5.37999994680285 393
5.39999994635582 396
5.41999994590878 389
5.43999994546175 347
5.45999994501471 377
5.47999994456768 401
5.49999994412065 418
5.51999994367361 395
5.53999994322658 368
5.55999994277954 373
5.57999994233251 393
5.59999994188547 444
5.61999994143844 433
5.6399999409914 377
5.65999994054437 374
5.67999994009733 396
5.6999999396503 406
5.71999993920326 389
5.73999993875623 395
5.75999993830919 430
5.77999993786216 438
5.79999993741512 386
5.81999993696809 404
5.83999993652105 384
5.85999993607402 405
5.87999993562698 372
5.89999993517995 389
5.91999993473291 397
5.93999993428588 373
5.95999993383884 392
5.97999993339181 395
5.99999993294477 440
6.01999993249774 393
6.0399999320507 409
6.05999993160367 400
6.07999993115663 368
6.0999999307096 398
6.11999993026257 403
6.13999992981553 368
6.1599999293685 414
6.17999992892146 411
6.19999992847443 392
6.21999992802739 379
6.23999992758036 388
6.25999992713332 418
6.27999992668629 402
6.29999992623925 392
6.31999992579222 381
6.33999992534518 345
6.35999992489815 372
6.37999992445111 362
6.39999992400408 418
6.41999992355704 410
6.43999992311001 397
6.45999992266297 360
6.47999992221594 332
6.4999999217689 390
6.51999992132187 424
6.53999992087483 381
6.5599999204278 384
6.57999991998076 360
6.59999991953373 391
6.61999991908669 410
6.63999991863966 396
6.65999991819262 385
6.67999991774559 376
6.69999991729855 414
6.71999991685152 380
6.73999991640449 419
6.75999991595745 403
6.77999991551042 398
6.79999991506338 394
6.81999991461635 365
6.83999991416931 360
6.85999991372228 397
6.87999991327524 396
6.89999991282821 387
6.91999991238117 408
6.93999991193414 398
6.9599999114871 424
6.97999991104007 396
6.99999991059303 376
7.019999910146 400
7.03999990969896 393
7.05999990925193 390
7.07999990880489 389
7.09999990835786 383
7.11999990791082 374
7.13999990746379 381
7.15999990701675 390
7.17999990656972 384
7.19999990612268 368
7.21999990567565 388
7.23999990522861 371
7.25999990478158 351
7.27999990433454 376
7.29999990388751 412
7.31999990344047 394
7.33999990299344 418
7.35999990254641 394
7.37999990209937 400
7.39999990165234 402
7.4199999012053 414
7.43999990075827 380
7.45999990031123 377
7.4799998998642 385
7.49999989941716 355
7.51999989897013 399
7.53999989852309 420
7.55999989807606 364
7.57999989762902 392
7.59999989718199 395
7.61999989673495 411
7.63999989628792 383
7.65999989584088 398
7.67999989539385 380
7.69999989494681 390
7.71999989449978 357
7.73999989405274 430
7.75999989360571 407
7.77999989315867 366
7.79999989271164 371
7.8199998922646 383
7.83999989181757 404
7.85999989137053 361
7.8799998909235 384
7.89999989047646 415
7.91999989002943 379
7.9399998895824 402
7.95999988913536 379
7.97999988868833 358
7.99999988824129 434
8.01999988779426 398
8.03999988734722 402
8.05999988690019 391
8.07999988645315 414
8.09999988600612 387
8.11999988555908 380
8.13999988511205 385
8.15999988466501 383
8.17999988421798 401
8.19999988377094 386
8.21999988332391 374
8.23999988287687 367
8.25999988242984 381
8.2799998819828 382
8.29999988153577 367
8.31999988108873 395
8.3399998806417 395
8.35999988019466 382
8.37999987974763 381
8.39999987930059 373
8.41999987885356 427
8.43999987840652 365
8.45999987795949 379
8.47999987751245 385
8.49999987706542 389
8.51999987661839 408
8.53999987617135 394
8.55999987572432 397
8.57999987527728 369
8.59999987483025 394
8.61999987438321 397
8.63999987393618 407
8.65999987348914 409
8.67999987304211 426
8.69999987259507 384
8.71999987214804 387
8.739999871701 378
8.75999987125397 391
8.77999987080693 400
8.7999998703599 382
8.81999986991286 387
8.83999986946583 380
8.85999986901879 398
8.87999986857176 390
8.89999986812472 395
8.91999986767769 429
8.93999986723065 399
8.95999986678362 402
8.97999986633658 411
8.99999986588955 372
9.01999986544251 405
9.03999986499548 392
9.05999986454844 370
9.07999986410141 392
9.09999986365438 405
9.11999986320734 413
9.13999986276031 370
9.15999986231327 397
9.17999986186624 370
9.1999998614192 392
9.21999986097217 384
9.23999986052513 420
9.2599998600781 361
9.27999985963106 401
9.29999985918403 415
9.31999985873699 411
9.33999985828996 410
9.35999985784292 463
9.37999985739589 417
9.39999985694885 396
9.41999985650182 380
9.43999985605478 381
9.45999985560775 394
9.47999985516071 417
9.49999985471368 402
9.51999985426664 419
9.53999985381961 394
9.55999985337257 413
9.57999985292554 396
9.5999998524785 413
9.61999985203147 407
9.63999985158443 384
9.6599998511374 434
9.67999985069037 415
9.69999985024333 378
9.7199998497963 374
9.73999984934926 397
9.75999984890223 446
9.77999984845519 383
9.79999984800816 416
9.81999984756112 439
9.83999984711409 403
9.85999984666705 412
9.87999984622002 406
9.89999984577298 414
9.91999984532595 377
9.93999984487891 412
9.95999984443188 392
9.97999984398484 408
9.99999984353781 404
10.0199998430908 359
10.0399998426437 431
10.0599998421967 420
10.0799998417497 375
10.0999998413026 404
10.1199998408556 443
10.1399998404086 411
10.1599998399615 402
10.1799998395145 405
10.1999998390675 372
10.2199998386204 414
10.2399998381734 387
10.2599998377264 421
10.2799998372793 404
10.2999998368323 413
10.3199998363853 383
10.3399998359382 385
10.3599998354912 419
10.3799998350441 412
10.3999998345971 402
10.4199998341501 427
10.439999833703 401
10.459999833256 405
10.479999832809 376
10.4999998323619 392
10.5199998319149 425
10.5399998314679 432
10.5599998310208 437
10.5799998305738 435
10.5999998301268 388
10.6199998296797 421
10.6399998292327 412
10.6599998287857 414
10.6799998283386 419
10.6999998278916 421
10.7199998274446 390
10.7399998269975 414
10.7599998265505 442
10.7799998261034 404
10.7999998256564 431
10.8199998252094 364
10.8399998247623 422
10.8599998243153 414
10.8799998238683 406
10.8999998234212 401
10.9199998229742 411
10.9399998225272 425
10.9599998220801 420
10.9799998216331 382
10.9999998211861 398
11.019999820739 427
11.039999820292 407
11.059999819845 407
11.0799998193979 414
11.0999998189509 420
11.1199998185039 425
11.1399998180568 405
11.1599998176098 378
11.1799998171628 413
11.1999998167157 415
11.2199998162687 422
11.2399998158216 429
11.2599998153746 399
11.2799998149276 370
11.2999998144805 407
11.3199998140335 393
11.3399998135865 400
11.3599998131394 427
11.3799998126924 415
11.3999998122454 393
11.4199998117983 429
11.4399998113513 421
11.4599998109043 397
11.4799998104572 401
11.4999998100102 391
11.5199998095632 422
11.5399998091161 420
11.5599998086691 420
11.5799998082221 419
11.599999807775 441
11.619999807328 422
11.639999806881 407
11.6599998064339 432
11.6799998059869 408
11.6999998055398 444
11.7199998050928 437
11.7399998046458 449
11.7599998041987 434
11.7799998037517 384
11.7999998033047 446
11.8199998028576 402
11.8399998024106 417
11.8599998019636 426
11.8799998015165 453
11.8999998010695 416
11.9199998006225 398
11.9399998001754 407
11.9599997997284 396
11.9799997992814 388
11.9999997988343 436
12.0199997983873 396
12.0399997979403 395
12.0599997974932 426
12.0799997970462 419
12.0999997965992 404
12.1199997961521 404
12.1399997957051 426
12.159999795258 437
12.179999794811 434
12.199999794364 426
12.2199997939169 424
12.2399997934699 420
12.2599997930229 438
12.2799997925758 459
12.2999997921288 406
12.3199997916818 380
12.3399997912347 441
12.3599997907877 442
12.3799997903407 430
12.3999997898936 429
12.4199997894466 444
12.4399997889996 430
12.4599997885525 431
12.4799997881055 457
12.4999997876585 437
12.5199997872114 417
12.5399997867644 436
12.5599997863173 452
12.5799997858703 434
12.5999997854233 422
12.6199997849762 435
12.6399997845292 436
12.6599997840822 437
12.6799997836351 415
12.6999997831881 409
12.7199997827411 421
12.739999782294 419
12.759999781847 404
12.7799997814 408
12.7999997809529 463
12.8199997805059 445
12.8399997800589 427
12.8599997796118 481
12.8799997791648 438
12.8999997787178 439
12.9199997782707 432
12.9399997778237 426
12.9599997773767 438
12.9799997769296 445
12.9999997764826 471
13.0199997760355 456
13.0399997755885 427
13.0599997751415 448
13.0799997746944 426
13.0999997742474 464
13.1199997738004 436
13.1399997733533 437
13.1599997729063 441
13.1799997724593 454
13.1999997720122 473
13.2199997715652 420
13.2399997711182 453
13.2599997706711 442
13.2799997702241 431
13.2999997697771 452
13.31999976933 462
13.339999768883 468
13.359999768436 459
13.3799997679889 474
13.3999997675419 473
13.4199997670949 486
13.4399997666478 458
13.4599997662008 429
13.4799997657537 442
13.4999997653067 446
13.5199997648597 469
13.5399997644126 429
13.5599997639656 472
13.5799997635186 469
13.5999997630715 482
13.6199997626245 504
13.6399997621775 467
13.6599997617304 452
13.6799997612834 428
13.6999997608364 431
13.7199997603893 446
13.7399997599423 457
13.7599997594953 504
13.7799997590482 450
13.7999997586012 506
13.8199997581542 462
13.8399997577071 463
13.8599997572601 516
13.879999756813 448
13.899999756366 440
13.919999755919 473
13.9399997554719 478
13.9599997550249 447
13.9799997545779 477
13.9999997541308 478
14.0199997536838 489
14.0399997532368 525
14.0599997527897 512
14.0799997523427 502
14.0999997518957 447
14.1199997514486 477
14.1399997510016 481
14.1599997505546 500
14.1799997501075 473
14.1999997496605 457
14.2199997492135 503
14.2399997487664 484
14.2599997483194 496
14.2799997478724 452
14.2999997474253 471
14.3199997469783 487
14.3399997465312 453
14.3599997460842 515
14.3799997456372 543
14.3999997451901 530
14.4199997447431 515
14.4399997442961 503
14.459999743849 533
14.479999743402 512
14.499999742955 496
14.5199997425079 518
14.5399997420609 508
14.5599997416139 456
14.5799997411668 517
14.5999997407198 505
14.6199997402728 477
14.6399997398257 538
14.6599997393787 509
14.6799997389317 500
14.6999997384846 494
14.7199997380376 499
14.7399997375906 483
14.7599997371435 525
14.7799997366965 470
14.7999997362494 499
14.8199997358024 577
14.8399997353554 527
14.8599997349083 518
14.8799997344613 530
14.8999997340143 519
14.9199997335672 548
14.9399997331202 510
14.9599997326732 509
14.9799997322261 529
14.9999997317791 540
15.0199997313321 516
15.039999730885 544
15.059999730438 502
15.079999729991 510
15.0999997295439 541
15.1199997290969 481
15.1399997286499 541
15.1599997282028 524
15.1799997277558 529
15.1999997273088 571
15.2199997268617 531
15.2399997264147 515
15.2599997259676 511
15.2799997255206 582
15.2999997250736 551
15.3199997246265 523
15.3399997241795 531
15.3599997237325 527
15.3799997232854 594
15.3999997228384 547
15.4199997223914 562
15.4399997219443 567
15.4599997214973 562
15.4799997210503 567
15.4999997206032 560
15.5199997201562 560
15.5399997197092 548
15.5599997192621 578
15.5799997188151 582
15.5999997183681 570
15.619999717921 605
15.639999717474 610
15.659999717027 592
15.6799997165799 593
15.6999997161329 596
15.7199997156858 583
15.7399997152388 616
15.7599997147918 593
15.7799997143447 587
15.7999997138977 571
15.8199997134507 593
15.8399997130036 605
15.8599997125566 576
15.8799997121096 623
15.8999997116625 583
15.9199997112155 622
15.9399997107685 624
15.9599997103214 584
15.9799997098744 583
15.9999997094274 593
16.0199997089803 646
16.0399997085333 629
16.0599997080863 610
16.0799997076392 607
16.0999997071922 666
16.1199997067451 635
16.1399997062981 631
16.1599997058511 607
16.179999705404 664
16.199999704957 627
16.21999970451 640
16.2399997040629 677
16.2599997036159 658
16.2799997031689 635
16.2999997027218 663
16.3199997022748 630
16.3399997018278 623
16.3599997013807 665
16.3799997009337 611
16.3999997004867 616
16.4199997000396 640
16.4399996995926 631
16.4599996991456 721
16.4799996986985 662
16.4999996982515 682
16.5199996978045 686
16.5399996973574 647
16.5599996969104 704
16.5799996964633 690
16.5999996960163 685
16.6199996955693 683
16.6399996951222 656
16.6599996946752 680
16.6799996942282 619
16.6999996937811 685
16.7199996933341 691
16.7399996928871 673
16.75999969244 672
16.779999691993 734
16.799999691546 694
16.8199996910989 685
16.8399996906519 701
16.8599996902049 710
16.8799996897578 700
16.8999996893108 654
16.9199996888638 657
16.9399996884167 684
16.9599996879697 714
16.9799996875226 772
16.9999996870756 695
17.0199996866286 684
17.0399996861815 742
17.0599996857345 749
17.0799996852875 756
17.0999996848404 714
17.1199996843934 680
17.1399996839464 729
17.1599996834993 741
17.1799996830523 718
17.1999996826053 738
17.2199996821582 725
17.2399996817112 797
17.2599996812642 741
17.2799996808171 756
17.2999996803701 776
17.3199996799231 771
17.339999679476 790
17.359999679029 802
17.379999678582 773
17.3999996781349 768
17.4199996776879 753
17.4399996772408 783
17.4599996767938 748
17.4799996763468 787
17.4999996758997 826
17.5199996754527 769
17.5399996750057 776
17.5599996745586 840
17.5799996741116 770
17.5999996736646 811
17.6199996732175 826
17.6399996727705 810
17.6599996723235 778
17.6799996718764 846
17.6999996714294 840
17.7199996709824 883
17.7399996705353 847
17.7599996700883 879
17.7799996696413 820
17.7999996691942 803
17.8199996687472 804
17.8399996683002 801
17.8599996678531 860
17.8799996674061 879
17.899999666959 820
17.919999666512 918
17.939999666065 857
17.9599996656179 831
17.9799996651709 907
17.9999996647239 885
18.0199996642768 882
18.0399996638298 867
18.0599996633828 872
18.0799996629357 851
18.0999996624887 837
18.1199996620417 866
18.1399996615946 859
18.1599996611476 952
18.1799996607006 859
18.1999996602535 874
18.2199996598065 829
18.2399996593595 879
18.2599996589124 887
18.2799996584654 918
18.2999996580184 899
18.3199996575713 983
18.3399996571243 878
18.3599996566772 891
18.3799996562302 938
18.3999996557832 913
18.4199996553361 886
18.4399996548891 921
18.4599996544421 877
18.479999653995 945
18.499999653548 970
18.519999653101 946
18.5399996526539 946
18.5599996522069 892
18.5799996517599 963
18.5999996513128 929
18.6199996508658 893
18.6399996504188 975
18.6599996499717 998
18.6799996495247 1040
18.6999996490777 928
18.7199996486306 980
18.7399996481836 920
18.7599996477366 908
18.7799996472895 985
18.7999996468425 996
18.8199996463954 973
18.8399996459484 1005
18.8599996455014 997
18.8799996450543 1027
18.8999996446073 1005
18.9199996441603 976
18.9399996437132 993
18.9599996432662 1042
18.9799996428192 980
18.9999996423721 967
19.0199996419251 984
19.0399996414781 981
19.059999641031 993
19.079999640584 1019
19.099999640137 1000
19.1199996396899 927
19.1399996392429 1039
19.1599996387959 978
19.1799996383488 1009
19.1999996379018 1003
19.2199996374547 1036
19.2399996370077 1065
19.2599996365607 1055
19.2799996361136 1033
19.2999996356666 1074
19.3199996352196 1093
19.3399996347725 1039
19.3599996343255 1038
19.3799996338785 1043
19.3999996334314 1082
19.4199996329844 1064
19.4399996325374 1068
19.4599996320903 1057
19.4799996316433 979
19.4999996311963 1073
19.5199996307492 1130
19.5399996303022 1055
19.5599996298552 1091
19.5799996294081 1091
19.5999996289611 1125
19.6199996285141 1081
19.639999628067 1095
19.65999962762 1066
19.6799996271729 1118
19.6999996267259 1049
19.7199996262789 1130
19.7399996258318 1082
19.7599996253848 1083
19.7799996249378 1146
19.7999996244907 1113
19.8199996240437 1112
19.8399996235967 1140
19.8599996231496 1061
19.8799996227026 1078
19.8999996222556 1076
19.9199996218085 1087
19.9399996213615 1148
19.9599996209145 1112
19.9799996204674 1101
19.9999996200204 1106
