3 1211
3.01999999955297 1188
3.03999999910593 1181
3.0599999986589 1201
3.07999999821186 1168
3.09999999776483 1176
3.11999999731779 1215
3.13999999687076 1117
3.15999999642372 1130
3.17999999597669 1145
3.19999999552965 1075
3.21999999508262 1105
3.23999999463558 1091
3.25999999418855 1081
3.27999999374151 1097
3.29999999329448 1061
3.31999999284744 1088
3.33999999240041 1043
3.35999999195337 1040
3.37999999150634 1059
3.3999999910593 1012
3.41999999061227 974
3.43999999016523 974
3.4599999897182 967
3.47999998927116 1030
3.49999998882413 1006
3.51999998837709 987
3.53999998793006 963
3.55999998748302 961
3.57999998703599 933
3.59999998658895 921
3.61999998614192 933
3.63999998569489 926
3.65999998524785 1020
3.67999998480082 917
3.69999998435378 928
3.71999998390675 903
3.73999998345971 865
3.75999998301268 922
3.77999998256564 883
3.79999998211861 834
3.81999998167157 901
3.83999998122454 885
3.8599999807775 849
3.87999998033047 827
3.89999997988343 852
3.9199999794364 805
3.93999997898936 876
3.95999997854233 910
3.97999997809529 789
3.99999997764826 830
4.01999997720122 771
4.03999997675419 778
4.05999997630715 788
4.07999997586012 800
4.09999997541308 789
4.11999997496605 791
4.13999997451901 837
4.15999997407198 797
4.17999997362494 772
4.19999997317791 783
4.21999997273087 851
4.23999997228384 818
4.25999997183681 837
4.27999997138977 813
4.29999997094274 752
4.3199999704957 757
4.33999997004867 781
4.35999996960163 767
4.3799999691546 738
4.39999996870756 770
4.41999996826053 747
4.43999996781349 733
4.45999996736646 714
4.47999996691942 773
4.49999996647239 724
4.51999996602535 748
4.53999996557832 769
4.55999996513128 762
4.57999996468425 730
4.59999996423721 751
4.61999996379018 695
4.63999996334314 722
4.65999996289611 696
4.67999996244907 724
4.69999996200204 703
4.719999961555 729
4.73999996110797 759
4.75999996066093 704
4.7799999602139 752
4.79999995976686 727
4.81999995931983 734
4.83999995887279 732
4.85999995842576 671
4.87999995797873 756
4.89999995753169 744
4.91999995708466 742
4.93999995663762 770
4.95999995619059 718
4.97999995574355 748
4.99999995529652 705
5.01999995484948 696
5.03999995440245 739
5.05999995395541 809
5.07999995350838 738
5.09999995306134 809
5.11999995261431 777
5.13999995216727 731
5.15999995172024 814
5.1799999512732 797
5.19999995082617 795
5.21999995037913 808
5.2399999499321 796
5.25999994948506 786
5.27999994903803 828
5.29999994859099 850
5.31999994814396 902
5.33999994769692 854
5.35999994724989 868
5.37999994680285 913
5.39999994635582 899
5.41999994590878 955
5.43999994546175 948
5.45999994501471 1012
5.47999994456768 1019
5.49999994412065 1074
5.51999994367361 1177
5.53999994322658 1141
5.55999994277954 1220
5.57999994233251 1326
5.59999994188547 1411
5.61999994143844 1484
5.6399999409914 1594
5.65999994054437 1697
5.67999994009733 2030
5.6999999396503 2339
5.71999993920326 3019
5.73999993875623 3085
5.75999993830919 2281
5.77999993786216 1283
5.79999993741512 919
5.81999993696809 812
5.83999993652105 818
5.85999993607402 686
5.87999993562698 711
5.89999993517995 761
5.91999993473291 732
5.93999993428588 688
5.95999993383884 705
5.97999993339181 712
5.99999993294477 738
6.01999993249774 653
6.0399999320507 679
6.05999993160367 703
6.07999993115663 709
6.0999999307096 701
6.11999993026257 645
6.13999992981553 682
6.1599999293685 737
6.17999992892146 680
6.19999992847443 743
6.21999992802739 797
6.23999992758036 742
6.25999992713332 753
6.27999992668629 800
6.29999992623925 733
6.31999992579222 748
6.33999992534518 792
6.35999992489815 786
6.37999992445111 873
6.39999992400408 857
6.41999992355704 873
6.43999992311001 891
6.45999992266297 927
6.47999992221594 989
6.4999999217689 1001
6.51999992132187 1109
6.53999992087483 1199
6.5599999204278 1292
6.57999991998076 1539
6.59999991953373 1586
6.61999991908669 1742
6.63999991863966 1308
6.65999991819262 944
6.67999991774559 711
6.69999991729855 672
6.71999991685152 670
6.73999991640449 626
6.75999991595745 634
6.77999991551042 657
6.79999991506338 593
6.81999991461635 633
6.83999991416931 665
6.85999991372228 637
6.87999991327524 618
6.89999991282821 647
6.91999991238117 632
6.93999991193414 630
6.9599999114871 581
6.97999991104007 631
6.99999991059303 636
7.019999910146 557
7.03999990969896 622
7.05999990925193 551
7.07999990880489 608
7.09999990835786 596
7.11999990791082 592
7.13999990746379 572
7.15999990701675 604
7.17999990656972 588
7.19999990612268 605
7.21999990567565 571
7.23999990522861 554
7.25999990478158 594
7.27999990433454 565
7.29999990388751 586
7.31999990344047 551
7.33999990299344 576
7.35999990254641 565
7.37999990209937 590
7.39999990165234 583
7.4199999012053 575
7.43999990075827 594
7.45999990031123 606
7.4799998998642 546
7.49999989941716 551
7.51999989897013 573
7.53999989852309 544
7.55999989807606 596
7.57999989762902 568
7.59999989718199 577
7.61999989673495 594
7.63999989628792 590
7.65999989584088 558
7.67999989539385 589
7.69999989494681 547
7.71999989449978 558
7.73999989405274 586
7.75999989360571 586
7.77999989315867 582
7.79999989271164 571
7.8199998922646 585
7.83999989181757 540
7.85999989137053 541
7.8799998909235 558
7.89999989047646 569
7.91999989002943 552
7.9399998895824 569
7.95999988913536 574
7.97999988868833 581
7.99999988824129 566
8.01999988779426 515
8.03999988734722 602
8.05999988690019 535
8.07999988645315 552
8.09999988600612 539
8.11999988555908 581
8.13999988511205 552
8.15999988466501 584
8.17999988421798 561
8.19999988377094 573
8.21999988332391 522
8.23999988287687 585
8.25999988242984 567
8.2799998819828 506
8.29999988153577 561
8.31999988108873 545
8.3399998806417 532
8.35999988019466 550
8.37999987974763 528
8.39999987930059 588
8.41999987885356 539
8.43999987840652 544
8.45999987795949 533
8.47999987751245 551
8.49999987706542 524
8.51999987661839 544
8.53999987617135 527
8.55999987572432 559
8.57999987527728 569
8.59999987483025 568
8.61999987438321 535
8.63999987393618 570
8.65999987348914 546
8.67999987304211 517
8.69999987259507 583
8.71999987214804 566
8.739999871701 535
8.75999987125397 528
8.77999987080693 522
8.7999998703599 538
8.81999986991286 529
8.83999986946583 572
8.85999986901879 571
8.87999986857176 541
8.89999986812472 548
8.91999986767769 556
8.93999986723065 562
8.95999986678362 584
8.97999986633658 592
8.99999986588955 617
9.01999986544251 645
9.03999986499548 648
9.05999986454844 590
9.07999986410141 626
9.09999986365438 625
9.11999986320734 651
9.13999986276031 745
9.15999986231327 709
9.17999986186624 729
9.1999998614192 739
9.21999986097217 792
9.23999986052513 841
9.2599998600781 964
9.27999985963106 1067
9.29999985918403 1140
9.31999985873699 1140
9.33999985828996 1235
9.35999985784292 1118
9.37999985739589 875
9.39999985694885 666
9.41999985650182 606
9.43999985605478 533
9.45999985560775 574
9.47999985516071 567
9.49999985471368 564
9.51999985426664 562
9.53999985381961 553
9.55999985337257 543
9.57999985292554 570
9.5999998524785 563
9.61999985203147 524
9.63999985158443 525
9.6599998511374 550
9.67999985069037 543
9.69999985024333 537
9.7199998497963 515
9.73999984934926 492
9.75999984890223 549
9.77999984845519 549
9.79999984800816 544
9.81999984756112 524
9.83999984711409 520
9.85999984666705 513
9.87999984622002 537
9.89999984577298 507
9.91999984532595 516
9.93999984487891 551
9.95999984443188 482
9.97999984398484 468
9.99999984353781 508
10.0199998430908 513
10.0399998426437 522
10.0599998421967 523
10.0799998417497 522
10.0999998413026 508
10.1199998408556 520
10.1399998404086 541
10.1599998399615 514
10.1799998395145 553
10.1999998390675 488
10.2199998386204 489
10.2399998381734 480
10.2599998377264 555
10.2799998372793 563
10.2999998368323 543
10.3199998363853 520
10.3399998359382 551
10.3599998354912 511
10.3799998350441 509
10.3999998345971 552
10.4199998341501 540
10.439999833703 549
10.459999833256 514
10.479999832809 523
10.4999998323619 531
10.5199998319149 578
10.5399998314679 504
10.5599998310208 538
10.5799998305738 517
10.5999998301268 551
10.6199998296797 587
10.6399998292327 549
10.6599998287857 634
10.6799998283386 581
10.6999998278916 571
10.7199998274446 632
10.7399998269975 659
10.7599998265505 626
10.7799998261034 704
10.7999998256564 739
10.8199998252094 762
10.8399998247623 834
10.8599998243153 875
10.8799998238683 1036
10.8999998234212 1106
10.9199998229742 1088
10.9399998225272 1098
10.9599998220801 1047
10.9799998216331 933
10.9999998211861 745
11.019999820739 649
11.039999820292 535
11.059999819845 574
11.0799998193979 572
11.0999998189509 575
11.1199998185039 554
11.1399998180568 535
11.1599998176098 547
11.1799998171628 567
11.1999998167157 589
11.2199998162687 588
11.2399998158216 565
11.2599998153746 580
11.2799998149276 606
11.2999998144805 597
11.3199998140335 671
11.3399998135865 683
11.3599998131394 702
11.3799998126924 847
11.3999998122454 863
11.4199998117983 831
11.4399998113513 872
11.4599998109043 822
11.4799998104572 687
11.4999998100102 583
11.5199998095632 509
11.5399998091161 511
11.5599998086691 516
11.5799998082221 515
11.599999807775 541
11.619999807328 475
11.639999806881 524
11.6599998064339 519
11.6799998059869 505
11.6999998055398 511
11.7199998050928 561
11.7399998046458 522
11.7599998041987 480
11.7799998037517 529
11.7999998033047 503
11.8199998028576 546
11.8399998024106 519
11.8599998019636 557
11.8799998015165 516
11.8999998010695 518
11.9199998006225 510
11.9399998001754 523
11.9599997997284 502
11.9799997992814 513
11.9999997988343 502
12.0199997983873 476
12.0399997979403 535
12.0599997974932 500
12.0799997970462 471
12.0999997965992 477
12.1199997961521 525
12.1399997957051 489
12.159999795258 513
12.179999794811 528
12.199999794364 487
12.2199997939169 480
12.2399997934699 528
12.2599997930229 509
12.2799997925758 503
12.2999997921288 564
12.3199997916818 522
12.3399997912347 513
12.3599997907877 528
12.3799997903407 542
12.3999997898936 508
12.4199997894466 535
12.4399997889996 491
12.4599997885525 487
12.4799997881055 511
12.4999997876585 488
12.5199997872114 473
12.5399997867644 507
12.5599997863173 566
12.5799997858703 538
12.5999997854233 477
12.6199997849762 512
12.6399997845292 544
12.6599997840822 552
12.6799997836351 499
12.6999997831881 518
12.7199997827411 528
12.739999782294 557
12.759999781847 512
12.7799997814 513
12.7999997809529 497
12.8199997805059 534
12.8399997800589 520
12.8599997796118 580
12.8799997791648 549
12.8999997787178 504
12.9199997782707 503
12.9399997778237 503
12.9599997773767 507
12.9799997769296 527
12.9999997764826 531
13.0199997760355 548
13.0399997755885 580
13.0599997751415 504
13.0799997746944 561
13.0999997742474 619
13.1199997738004 631
13.1399997733533 628
13.1599997729063 631
13.1799997724593 602
13.1999997720122 573
13.2199997715652 585
13.2399997711182 567
13.2599997706711 529
13.2799997702241 581
13.2999997697771 535
13.31999976933 541
13.339999768883 525
13.359999768436 528
13.3799997679889 525
13.3999997675419 582
13.4199997670949 524
13.4399997666478 555
13.4599997662008 504
13.4799997657537 542
13.4999997653067 526
13.5199997648597 526
13.5399997644126 528
13.5599997639656 543
13.5799997635186 583
13.5999997630715 560
13.6199997626245 556
13.6399997621775 561
13.6599997617304 551
13.6799997612834 527
13.6999997608364 535
13.7199997603893 545
13.7399997599423 554
13.7599997594953 514
13.7799997590482 564
13.7999997586012 519
13.8199997581542 577
13.8399997577071 542
13.8599997572601 534
13.879999756813 571
13.899999756366 565
13.919999755919 574
13.9399997554719 555
13.9599997550249 602
13.9799997545779 591
13.9999997541308 561
14.0199997536838 561
14.0399997532368 556
14.0599997527897 511
14.0799997523427 564
14.0999997518957 564
14.1199997514486 555
14.1399997510016 574
14.1599997505546 537
14.1799997501075 575
14.1999997496605 610
14.2199997492135 551
14.2399997487664 608
14.2599997483194 579
14.2799997478724 626
14.2999997474253 619
14.3199997469783 632
14.3399997465312 635
14.3599997460842 644
14.3799997456372 643
14.3999997451901 677
14.4199997447431 637
14.4399997442961 620
14.459999743849 599
14.479999743402 565
14.499999742955 607
14.5199997425079 563
14.5399997420609 581
14.5599997416139 570
14.5799997411668 592
14.5999997407198 616
14.6199997402728 573
14.6399997398257 609
14.6599997393787 589
14.6799997389317 601
14.6999997384846 584
14.7199997380376 572
14.7399997375906 643
14.7599997371435 621
14.7799997366965 608
14.7999997362494 577
14.8199997358024 623
14.8399997353554 584
14.8599997349083 571
14.8799997344613 595
14.8999997340143 552
14.9199997335672 612
14.9399997331202 654
14.9599997326732 611
14.9799997322261 613
14.9999997317791 620
15.0199997313321 582
15.039999730885 616
15.059999730438 633
15.079999729991 655
15.0999997295439 617
15.1199997290969 593
15.1399997286499 575
15.1599997282028 587
15.1799997277558 581
15.1999997273088 594
15.2199997268617 613
15.2399997264147 610
15.2599997259676 598
15.2799997255206 620
15.2999997250736 600
15.3199997246265 610
15.3399997241795 632
15.3599997237325 617
15.3799997232854 610
15.3999997228384 627
15.4199997223914 637
15.4399997219443 636
15.4599997214973 663
15.4799997210503 676
15.4999997206032 638
15.5199997201562 644
15.5399997197092 657
15.5599997192621 655
15.5799997188151 641
15.5999997183681 668
15.619999717921 653
15.639999717474 638
15.659999717027 640
15.6799997165799 680
15.6999997161329 658
15.7199997156858 670
15.7399997152388 624
15.7599997147918 670
15.7799997143447 634
15.7999997138977 640
15.8199997134507 642
15.8399997130036 693
15.8599997125566 677
15.8799997121096 640
15.8999997116625 646
15.9199997112155 690
15.9399997107685 649
15.9599997103214 659
15.9799997098744 654
15.9999997094274 629
16.0199997089803 663
16.0399997085333 665
16.0599997080863 666
16.0799997076392 625
16.0999997071922 670
16.1199997067451 663
16.1399997062981 734
16.1599997058511 678
16.179999705404 673
16.199999704957 659
16.21999970451 658
16.2399997040629 654
16.2599997036159 681
16.2799997031689 713
16.2999997027218 712
16.3199997022748 695
16.3399997018278 663
16.3599997013807 729
16.3799997009337 707
16.3999997004867 712
16.4199997000396 725
16.4399996995926 735
16.4599996991456 706
16.4799996986985 734
16.4999996982515 659
16.5199996978045 711
16.5399996973574 689
16.5599996969104 762
16.5799996964633 748
16.5999996960163 729
16.6199996955693 732
16.6399996951222 773
16.6599996946752 742
16.6799996942282 707
16.6999996937811 756
16.7199996933341 724
16.7399996928871 705
16.75999969244 749
16.779999691993 726
16.799999691546 705
16.8199996910989 756
16.8399996906519 708
16.8599996902049 717
16.8799996897578 733
16.8999996893108 782
16.9199996888638 742
16.9399996884167 804
16.9599996879697 760
16.9799996875226 814
16.9999996870756 774
17.0199996866286 715
17.0399996861815 772
17.0599996857345 844
17.0799996852875 823
17.0999996848404 874
17.1199996843934 825
17.1399996839464 837
17.1599996834993 875
17.1799996830523 859
17.1999996826053 814
17.2199996821582 817
17.2399996817112 776
17.2599996812642 803
17.2799996808171 813
17.2999996803701 808
17.3199996799231 761
17.339999679476 815
17.359999679029 796
17.379999678582 758
17.3999996781349 772
17.4199996776879 802
17.4399996772408 802
17.4599996767938 812
17.4799996763468 821
17.4999996758997 790
17.5199996754527 819
17.5399996750057 794
17.5599996745586 783
17.5799996741116 790
17.5999996736646 850
17.6199996732175 814
17.6399996727705 815
17.6599996723235 821
17.6799996718764 800
17.6999996714294 871
17.7199996709824 829
17.7399996705353 853
17.7599996700883 817
17.7799996696413 837
17.7999996691942 824
17.8199996687472 813
17.8399996683002 812
17.8599996678531 814
17.8799996674061 836
17.899999666959 842
17.919999666512 815
17.939999666065 873
17.9599996656179 839
17.9799996651709 847
17.9999996647239 804
18.0199996642768 871
18.0399996638298 862
18.0599996633828 837
18.0799996629357 784
18.0999996624887 840
18.1199996620417 816
18.1399996615946 812
18.1599996611476 896
18.1799996607006 887
18.1999996602535 863
18.2199996598065 917
18.2399996593595 801
18.2599996589124 869
18.2799996584654 865
18.2999996580184 853
18.3199996575713 826
18.3399996571243 842
18.3599996566772 839
18.3799996562302 895
18.3999996557832 922
18.4199996553361 865
18.4399996548891 880
18.4599996544421 885
18.479999653995 852
18.499999653548 848
18.519999653101 907
18.5399996526539 868
18.5599996522069 900
18.5799996517599 894
18.5999996513128 901
18.6199996508658 901
18.6399996504188 893
18.6599996499717 874
18.6799996495247 891
18.6999996490777 904
18.7199996486306 887
18.7399996481836 928
18.7599996477366 894
18.7799996472895 897
18.7999996468425 896
18.8199996463954 914
18.8399996459484 938
18.8599996455014 910
18.8799996450543 927
18.8999996446073 961
18.9199996441603 915
18.9399996437132 909
18.9599996432662 926
18.9799996428192 928
18.9999996423721 955
19.0199996419251 940
19.0399996414781 940
19.059999641031 896
19.079999640584 920
19.099999640137 902
19.1199996396899 923
19.1399996392429 972
19.1599996387959 910
19.1799996383488 946
19.1999996379018 933
19.2199996374547 1000
19.2399996370077 994
19.2599996365607 949
19.2799996361136 978
19.2999996356666 1003
19.3199996352196 960
19.3399996347725 985
19.3599996343255 973
19.3799996338785 992
19.3999996334314 1056
19.4199996329844 950
19.4399996325374 1066
19.4599996320903 1090
19.4799996316433 1168
19.4999996311963 1307
19.5199996307492 1353
19.5399996303022 1290
19.5599996298552 1245
19.5799996294081 1198
19.5999996289611 1126
19.6199996285141 1116
19.639999628067 1083
19.65999962762 1054
19.6799996271729 1060
19.6999996267259 1038
19.7199996262789 1164
19.7399996258318 1190
19.7599996253848 1325
19.7799996249378 1516
19.7999996244907 1482
19.8199996240437 1359
19.8399996235967 1404
19.8599996231496 1393
19.8799996227026 1185
19.8999996222556 1041
19.9199996218085 1032
19.9399996213615 1056
19.9599996209145 1004
19.9799996204674 1010
19.9999996200204 1014
