3 1220
3.01999999955297 1140
3.03999999910593 1192
3.0599999986589 1122
3.07999999821186 1132
3.09999999776483 1151
3.11999999731779 1125
3.13999999687076 1116
3.15999999642372 1056
3.17999999597669 1050
3.19999999552965 1040
3.21999999508262 1026
3.23999999463558 1061
3.25999999418855 1073
3.27999999374151 998
3.29999999329448 961
3.31999999284744 962
3.33999999240041 1007
3.35999999195337 982
3.37999999150634 1014
3.3999999910593 958
3.41999999061227 935
3.43999999016523 971
3.4599999897182 950
3.47999998927116 935
3.49999998882413 926
3.51999998837709 986
3.53999998793006 954
3.55999998748302 908
3.57999998703599 912
3.59999998658895 853
3.61999998614192 940
3.63999998569489 954
3.65999998524785 893
3.67999998480082 865
3.69999998435378 901
3.71999998390675 855
3.73999998345971 934
3.75999998301268 823
3.77999998256564 888
3.79999998211861 847
3.81999998167157 828
3.83999998122454 854
3.8599999807775 914
3.87999998033047 863
3.89999997988343 844
3.9199999794364 891
3.93999997898936 875
3.95999997854233 882
3.97999997809529 831
3.99999997764826 885
4.01999997720122 863
4.03999997675419 881
4.05999997630715 869
4.07999997586012 876
4.09999997541308 872
4.11999997496605 774
4.13999997451901 806
4.15999997407198 867
4.17999997362494 828
4.19999997317791 794
4.21999997273087 747
4.23999997228384 756
4.25999997183681 721
4.27999997138977 744
4.29999997094274 762
4.3199999704957 744
4.33999997004867 724
4.35999996960163 728
4.3799999691546 672
4.39999996870756 765
4.41999996826053 707
4.43999996781349 761
4.45999996736646 698
4.47999996691942 708
4.49999996647239 741
4.51999996602535 726
4.53999996557832 747
4.55999996513128 724
4.57999996468425 759
4.59999996423721 715
4.61999996379018 754
4.63999996334314 710
4.65999996289611 713
4.67999996244907 742
4.69999996200204 771
4.719999961555 761
4.73999996110797 785
4.75999996066093 769
4.7799999602139 771
4.79999995976686 763
4.81999995931983 756
4.83999995887279 830
4.85999995842576 778
4.87999995797873 778
4.89999995753169 742
4.91999995708466 796
4.93999995663762 781
4.95999995619059 867
4.97999995574355 827
4.99999995529652 816
5.01999995484948 860
5.03999995440245 935
5.05999995395541 894
5.07999995350838 972
5.09999995306134 945
5.11999995261431 1033
5.13999995216727 1042
5.15999995172024 1033
5.1799999512732 1075
5.19999995082617 1148
5.21999995037913 1233
5.2399999499321 1213
5.25999994948506 1233
5.27999994903803 1312
5.29999994859099 1390
5.31999994814396 1464
5.33999994769692 1483
5.35999994724989 1551
5.37999994680285 1665
5.39999994635582 1743
5.41999994590878 1826
5.43999994546175 1761
5.45999994501471 1800
5.47999994456768 1910
5.49999994412065 2096
5.51999994367361 2213
5.53999994322658 2308
5.55999994277954 2479
5.57999994233251 2666
5.59999994188547 2998
5.61999994143844 3376
5.6399999409914 3627
5.65999994054437 4308
5.67999994009733 5272
5.6999999396503 6334
5.71999993920326 6570
5.73999993875623 5188
5.75999993830919 3596
5.77999993786216 2346
5.79999993741512 1786
5.81999993696809 1316
5.83999993652105 1176
5.85999993607402 1074
5.87999993562698 971
5.89999993517995 924
5.91999993473291 896
5.93999993428588 875
5.95999993383884 801
5.97999993339181 851
5.99999993294477 881
6.01999993249774 808
6.0399999320507 868
6.05999993160367 847
6.07999993115663 880
6.0999999307096 836
6.11999993026257 837
6.13999992981553 880
6.1599999293685 882
6.17999992892146 893
6.19999992847443 938
6.21999992802739 958
6.23999992758036 940
6.25999992713332 964
6.27999992668629 1053
6.29999992623925 1078
6.31999992579222 1062
6.33999992534518 1142
6.35999992489815 1209
6.37999992445111 1231
6.39999992400408 1393
6.41999992355704 1479
6.43999992311001 1485
6.45999992266297 1619
6.47999992221594 1666
6.4999999217689 1899
6.51999992132187 2062
6.53999992087483 2393
6.5599999204278 2882
6.57999991998076 3490
6.59999991953373 3491
6.61999991908669 2726
6.63999991863966 1769
6.65999991819262 1272
6.67999991774559 993
6.69999991729855 950
6.71999991685152 882
6.73999991640449 856
6.75999991595745 825
6.77999991551042 789
6.79999991506338 673
6.81999991461635 673
6.83999991416931 658
6.85999991372228 672
6.87999991327524 668
6.89999991282821 670
6.91999991238117 662
6.93999991193414 652
6.9599999114871 617
6.97999991104007 624
6.99999991059303 594
7.019999910146 637
7.03999990969896 621
7.05999990925193 626
7.07999990880489 624
7.09999990835786 658
7.11999990791082 618
7.13999990746379 616
7.15999990701675 623
7.17999990656972 665
7.19999990612268 652
7.21999990567565 672
7.23999990522861 637
7.25999990478158 648
7.27999990433454 655
7.29999990388751 656
7.31999990344047 621
7.33999990299344 597
7.35999990254641 640
7.37999990209937 632
7.39999990165234 624
7.4199999012053 633
7.43999990075827 621
7.45999990031123 656
7.4799998998642 615
7.49999989941716 593
7.51999989897013 647
7.53999989852309 610
7.55999989807606 644
7.57999989762902 637
7.59999989718199 653
7.61999989673495 632
7.63999989628792 621
7.65999989584088 627
7.67999989539385 624
7.69999989494681 595
7.71999989449978 627
7.73999989405274 628
7.75999989360571 591
7.77999989315867 622
7.79999989271164 602
7.8199998922646 628
7.83999989181757 589
7.85999989137053 604
7.8799998909235 592
7.89999989047646 616
7.91999989002943 603
7.9399998895824 587
7.95999988913536 641
7.97999988868833 601
7.99999988824129 602
8.01999988779426 628
8.03999988734722 644
8.05999988690019 634
8.07999988645315 647
8.09999988600612 603
8.11999988555908 646
8.13999988511205 623
8.15999988466501 600
8.17999988421798 611
8.19999988377094 598
8.21999988332391 647
8.23999988287687 635
8.25999988242984 576
8.2799998819828 563
8.29999988153577 585
8.31999988108873 590
8.3399998806417 634
8.35999988019466 632
8.37999987974763 629
8.39999987930059 635
8.41999987885356 651
8.43999987840652 631
8.45999987795949 596
8.47999987751245 596
8.49999987706542 594
8.51999987661839 603
8.53999987617135 607
8.55999987572432 615
8.57999987527728 602
8.59999987483025 605
8.61999987438321 641
8.63999987393618 620
8.65999987348914 606
8.67999987304211 639
8.69999987259507 612
8.71999987214804 624
8.739999871701 661
8.75999987125397 677
8.77999987080693 653
8.7999998703599 677
8.81999986991286 659
8.83999986946583 623
8.85999986901879 681
8.87999986857176 672
8.89999986812472 674
8.91999986767769 739
8.93999986723065 724
8.95999986678362 733
8.97999986633658 753
8.99999986588955 769
9.01999986544251 808
9.03999986499548 896
9.05999986454844 885
9.07999986410141 896
9.09999986365438 958
9.11999986320734 1031
9.13999986276031 1055
9.15999986231327 1131
9.17999986186624 1226
9.1999998614192 1322
9.21999986097217 1438
9.23999986052513 1606
9.2599998600781 1838
9.27999985963106 2310
9.29999985918403 2647
9.31999985873699 2805
9.33999985828996 2465
9.35999985784292 1675
9.37999985739589 1143
9.39999985694885 907
9.41999985650182 808
9.43999985605478 702
9.45999985560775 658
9.47999985516071 655
9.49999985471368 600
9.51999985426664 671
9.53999985381961 630
9.55999985337257 630
9.57999985292554 582
9.5999998524785 637
9.61999985203147 638
9.63999985158443 586
9.6599998511374 589
9.67999985069037 616
9.69999985024333 637
9.7199998497963 605
9.73999984934926 633
9.75999984890223 649
9.77999984845519 635
9.79999984800816 611
9.81999984756112 613
9.83999984711409 657
9.85999984666705 620
9.87999984622002 672
9.89999984577298 593
9.91999984532595 656
9.93999984487891 597
9.95999984443188 603
9.97999984398484 600
9.99999984353781 635
10.0199998430908 650
10.0399998426437 643
10.0599998421967 641
10.0799998417497 649
10.0999998413026 690
10.1199998408556 668
10.1399998404086 678
10.1599998399615 683
10.1799998395145 666
10.1999998390675 646
10.2199998386204 649
10.2399998381734 592
10.2599998377264 647
10.2799998372793 614
10.2999998368323 661
10.3199998363853 612
10.3399998359382 622
10.3599998354912 620
10.3799998350441 579
10.3999998345971 631
10.4199998341501 627
10.439999833703 651
10.459999833256 631
10.479999832809 643
10.4999998323619 661
10.5199998319149 644
10.5399998314679 697
10.5599998310208 751
10.5799998305738 758
10.5999998301268 801
10.6199998296797 762
10.6399998292327 806
10.6599998287857 810
10.6799998283386 900
10.6999998278916 946
10.7199998274446 1009
10.7399998269975 1066
10.7599998265505 1041
10.7799998261034 1104
10.7999998256564 1154
10.8199998252094 1292
10.8399998247623 1388
10.8599998243153 1651
10.8799998238683 1900
10.8999998234212 2300
10.9199998229742 2511
10.9399998225272 2445
10.9599998220801 1990
10.9799998216331 1447
10.9999998211861 1061
11.019999820739 864
11.039999820292 810
11.059999819845 742
11.0799998193979 756
11.0999998189509 718
11.1199998185039 716
11.1399998180568 729
11.1599998176098 713
11.1799998171628 760
11.1999998167157 771
11.2199998162687 820
11.2399998158216 732
11.2599998153746 828
11.2799998149276 888
11.2999998144805 905
11.3199998140335 899
11.3399998135865 1069
11.3599998131394 1117
11.3799998126924 1362
11.3999998122454 1545
11.4199998117983 1518
11.4399998113513 1375
11.4599998109043 1077
11.4799998104572 918
11.4999998100102 807
11.5199998095632 760
11.5399998091161 739
11.5599998086691 639
11.5799998082221 657
11.599999807775 624
11.619999807328 597
11.639999806881 593
11.6599998064339 629
11.6799998059869 605
11.6999998055398 645
11.7199998050928 610
11.7399998046458 642
11.7599998041987 611
11.7799998037517 646
11.7999998033047 611
11.8199998028576 638
11.8399998024106 684
11.8599998019636 612
11.8799998015165 649
11.8999998010695 618
11.9199998006225 622
11.9399998001754 618
11.9599997997284 588
11.9799997992814 611
11.9999997988343 601
12.0199997983873 638
12.0399997979403 659
12.0599997974932 646
12.0799997970462 640
12.0999997965992 698
12.1199997961521 680
12.1399997957051 660
12.159999795258 681
12.179999794811 670
12.199999794364 635
12.2199997939169 619
12.2399997934699 636
12.2599997930229 676
12.2799997925758 635
12.2999997921288 638
12.3199997916818 662
12.3399997912347 653
12.3599997907877 638
12.3799997903407 646
12.3999997898936 632
12.4199997894466 653
12.4399997889996 632
12.4599997885525 634
12.4799997881055 637
12.4999997876585 612
12.5199997872114 648
12.5399997867644 629
12.5599997863173 592
12.5799997858703 609
12.5999997854233 653
12.6199997849762 635
12.6399997845292 630
12.6599997840822 618
12.6799997836351 623
12.6999997831881 616
12.7199997827411 645
12.739999782294 594
12.759999781847 632
12.7799997814 640
12.7999997809529 643
12.8199997805059 628
12.8399997800589 669
12.8599997796118 667
12.8799997791648 652
12.8999997787178 682
12.9199997782707 688
12.9399997778237 660
12.9599997773767 638
12.9799997769296 716
12.9999997764826 695
13.0199997760355 731
13.0399997755885 711
13.0599997751415 704
13.0799997746944 730
13.0999997742474 772
13.1199997738004 742
13.1399997733533 818
13.1599997729063 881
13.1799997724593 957
13.1999997720122 914
13.2199997715652 841
13.2399997711182 787
13.2599997706711 776
13.2799997702241 649
13.2999997697771 713
13.31999976933 663
13.339999768883 641
13.359999768436 691
13.3799997679889 668
13.3999997675419 667
13.4199997670949 685
13.4399997666478 676
13.4599997662008 637
13.4799997657537 675
13.4999997653067 656
13.5199997648597 666
13.5399997644126 663
13.5599997639656 685
13.5799997635186 630
13.5999997630715 636
13.6199997626245 668
13.6399997621775 636
13.6599997617304 638
13.6799997612834 664
13.6999997608364 605
13.7199997603893 678
13.7399997599423 689
13.7599997594953 613
13.7799997590482 658
13.7999997586012 656
13.8199997581542 678
13.8399997577071 668
13.8599997572601 658
13.879999756813 692
13.899999756366 707
13.919999755919 677
13.9399997554719 660
13.9599997550249 654
13.9799997545779 683
13.9999997541308 679
14.0199997536838 699
14.0399997532368 671
14.0599997527897 695
14.0799997523427 691
14.0999997518957 673
14.1199997514486 686
14.1399997510016 692
14.1599997505546 684
14.1799997501075 695
14.1999997496605 711
14.2199997492135 742
14.2399997487664 782
14.2599997483194 769
14.2799997478724 766
14.2999997474253 793
14.3199997469783 823
14.3399997465312 898
14.3599997460842 959
14.3799997456372 957
14.3999997451901 917
14.4199997447431 884
14.4399997442961 782
14.459999743849 752
14.479999743402 723
14.499999742955 692
14.5199997425079 679
14.5399997420609 710
14.5599997416139 737
14.5799997411668 731
14.5999997407198 752
14.6199997402728 683
14.6399997398257 707
14.6599997393787 719
14.6799997389317 743
14.6999997384846 787
14.7199997380376 757
14.7399997375906 822
14.7599997371435 735
14.7799997366965 796
14.7999997362494 773
14.8199997358024 756
14.8399997353554 714
14.8599997349083 747
14.8799997344613 725
14.8999997340143 702
14.9199997335672 703
14.9399997331202 717
14.9599997326732 729
14.9799997322261 703
14.9999997317791 727
15.0199997313321 704
15.039999730885 723
15.059999730438 749
15.079999729991 775
15.0999997295439 750
15.1199997290969 715
15.1399997286499 708
15.1599997282028 765
15.1799997277558 700
15.1999997273088 759
15.2199997268617 752
15.2399997264147 766
15.2599997259676 746
15.2799997255206 719
15.2999997250736 733
15.3199997246265 692
15.3399997241795 743
15.3599997237325 720
15.3799997232854 796
15.3999997228384 758
15.4199997223914 747
15.4399997219443 754
15.4599997214973 737
15.4799997210503 764
15.4999997206032 731
15.5199997201562 752
15.5399997197092 769
15.5599997192621 730
15.5799997188151 782
15.5999997183681 734
15.619999717921 741
15.639999717474 731
15.659999717027 777
15.6799997165799 792
15.6999997161329 759
15.7199997156858 774
15.7399997152388 789
15.7599997147918 772
15.7799997143447 720
15.7999997138977 802
15.8199997134507 806
15.8399997130036 758
15.8599997125566 820
15.8799997121096 770
15.8999997116625 735
15.9199997112155 834
15.9399997107685 809
15.9599997103214 811
15.9799997098744 780
15.9999997094274 778
16.0199997089803 858
16.0399997085333 771
16.0599997080863 759
16.0799997076392 818
16.0999997071922 833
16.1199997067451 794
16.1399997062981 829
16.1599997058511 809
16.179999705404 807
16.199999704957 797
16.21999970451 831
16.2399997040629 846
16.2599997036159 855
16.2799997031689 833
16.2999997027218 854
16.3199997022748 824
16.3399997018278 818
16.3599997013807 826
16.3799997009337 836
16.3999997004867 807
16.4199997000396 818
16.4399996995926 817
16.4599996991456 843
16.4799996986985 820
16.4999996982515 866
16.5199996978045 818
16.5399996973574 881
16.5599996969104 885
16.5799996964633 855
16.5999996960163 847
16.6199996955693 860
16.6399996951222 879
16.6599996946752 856
16.6799996942282 811
16.6999996937811 856
16.7199996933341 857
16.7399996928871 816
16.75999969244 847
16.779999691993 822
16.799999691546 838
16.8199996910989 889
16.8399996906519 872
16.8599996902049 929
16.8799996897578 942
16.8999996893108 826
16.9199996888638 945
16.9399996884167 929
16.9599996879697 908
16.9799996875226 858
16.9999996870756 881
17.0199996866286 942
17.0399996861815 990
17.0599996857345 995
17.0799996852875 1048
17.0999996848404 1113
17.1199996843934 1116
17.1399996839464 1150
17.1599996834993 1124
17.1799996830523 1133
17.1999996826053 1083
17.2199996821582 1040
17.2399996817112 995
17.2599996812642 1001
17.2799996808171 946
17.2999996803701 914
17.3199996799231 919
17.339999679476 892
17.359999679029 931
17.379999678582 931
17.3999996781349 920
17.4199996776879 900
17.4399996772408 936
17.4599996767938 934
17.4799996763468 956
17.4999996758997 944
17.5199996754527 914
17.5399996750057 945
17.5599996745586 969
17.5799996741116 920
17.5999996736646 938
17.6199996732175 991
17.6399996727705 996
17.6599996723235 971
17.6799996718764 985
17.6999996714294 1015
17.7199996709824 959
17.7399996705353 966
17.7599996700883 981
17.7799996696413 1014
17.7999996691942 972
17.8199996687472 1001
17.8399996683002 985
17.8599996678531 981
17.8799996674061 975
17.899999666959 975
17.919999666512 982
17.939999666065 995
17.9599996656179 953
17.9799996651709 969
17.9999996647239 1000
18.0199996642768 1005
18.0399996638298 1023
18.0599996633828 979
18.0799996629357 1050
18.0999996624887 1011
18.1199996620417 975
18.1399996615946 967
18.1599996611476 931
18.1799996607006 962
18.1999996602535 997
18.2199996598065 979
18.2399996593595 980
18.2599996589124 993
18.2799996584654 1025
18.2999996580184 1019
18.3199996575713 1059
18.3399996571243 988
18.3599996566772 990
18.3799996562302 1074
18.3999996557832 1007
18.4199996553361 1082
18.4399996548891 1060
18.4599996544421 1058
18.479999653995 1053
18.499999653548 1081
18.519999653101 1088
18.5399996526539 1053
18.5599996522069 1013
18.5799996517599 1088
18.5999996513128 1121
18.6199996508658 1025
18.6399996504188 1116
18.6599996499717 1101
18.6799996495247 1088
18.6999996490777 1069
18.7199996486306 1116
18.7399996481836 1109
18.7599996477366 1090
18.7799996472895 1098
18.7999996468425 1066
18.8199996463954 1055
18.8399996459484 1063
18.8599996455014 1120
18.8799996450543 1089
18.8999996446073 1142
18.9199996441603 1084
18.9399996437132 1147
18.9599996432662 1145
18.9799996428192 1172
18.9999996423721 1232
19.0199996419251 1241
19.0399996414781 1199
19.059999641031 1185
19.079999640584 1135
19.099999640137 1115
19.1199996396899 1155
19.1399996392429 1164
19.1599996387959 1211
19.1799996383488 1162
19.1999996379018 1147
19.2199996374547 1176
19.2399996370077 1164
19.2599996365607 1150
19.2799996361136 1144
19.2999996356666 1194
19.3199996352196 1268
19.3399996347725 1192
19.3599996343255 1185
19.3799996338785 1298
19.3999996334314 1234
19.4199996329844 1309
19.4399996325374 1389
19.4599996320903 1439
19.4799996316433 1500
19.4999996311963 1633
19.5199996307492 1752
19.5399996303022 1830
19.5599996298552 1893
19.5799996294081 1840
19.5999996289611 1612
19.6199996285141 1491
19.639999628067 1460
19.65999962762 1327
19.6799996271729 1387
19.6999996267259 1421
19.7199996262789 1447
19.7399996258318 1515
19.7599996253848 1674
19.7799996249378 1833
19.7999996244907 2044
19.8199996240437 2249
19.8399996235967 2177
19.8599996231496 2003
19.8799996227026 1880
19.8999996222556 1590
19.9199996218085 1468
19.9399996213615 1275
19.9599996209145 1274
19.9799996204674 1238
19.9999996200204 1215
