3 2315
3.01999999955297 2207
3.03999999910593 2054
3.0599999986589 1851
3.07999999821186 1868
3.09999999776483 1753
3.11999999731779 1671
3.13999999687076 1691
3.15999999642372 1667
3.17999999597669 1619
3.19999999552965 1543
3.21999999508262 1588
3.23999999463558 1484
3.25999999418855 1552
3.27999999374151 1549
3.29999999329448 1416
3.31999999284744 1395
3.33999999240041 1455
3.35999999195337 1416
3.37999999150634 1439
3.3999999910593 1355
3.41999999061227 1379
3.43999999016523 1390
3.4599999897182 1373
3.47999998927116 1371
3.49999998882413 1308
3.51999998837709 1349
3.53999998793006 1300
3.55999998748302 1258
3.57999998703599 1288
3.59999998658895 1258
3.61999998614192 1245
3.63999998569489 1237
3.65999998524785 1241
3.67999998480082 1173
3.69999998435378 1175
3.71999998390675 1241
3.73999998345971 1184
3.75999998301268 1182
3.77999998256564 1228
3.79999998211861 1175
3.81999998167157 1123
3.83999998122454 1107
3.8599999807775 1163
3.87999998033047 1101
3.89999997988343 1132
3.9199999794364 1104
3.93999997898936 1088
3.95999997854233 1114
3.97999997809529 1066
3.99999997764826 1096
4.01999997720122 1052
4.03999997675419 1050
4.05999997630715 1008
4.07999997586012 1028
4.09999997541308 1041
4.11999997496605 1050
4.13999997451901 1035
4.15999997407198 979
4.17999997362494 993
4.19999997317791 1032
4.21999997273087 971
4.23999997228384 983
4.25999997183681 974
4.27999997138977 992
4.29999997094274 942
4.3199999704957 986
4.33999997004867 934
4.35999996960163 969
4.3799999691546 993
4.39999996870756 933
4.41999996826053 859
4.43999996781349 927
4.45999996736646 882
4.47999996691942 922
4.49999996647239 901
4.51999996602535 925
4.53999996557832 868
4.55999996513128 900
4.57999996468425 873
4.59999996423721 842
4.61999996379018 867
4.63999996334314 886
4.65999996289611 869
4.67999996244907 898
4.69999996200204 874
4.719999961555 872
4.73999996110797 844
4.75999996066093 882
4.7799999602139 841
4.79999995976686 821
4.81999995931983 820
4.83999995887279 871
4.85999995842576 857
4.87999995797873 789
4.89999995753169 837
4.91999995708466 849
4.93999995663762 794
4.95999995619059 832
4.97999995574355 793
4.99999995529652 779
5.01999995484948 825
5.03999995440245 818
5.05999995395541 753
5.07999995350838 794
5.09999995306134 809
5.11999995261431 779
5.13999995216727 822
5.15999995172024 831
5.1799999512732 777
5.19999995082617 790
5.21999995037913 782
5.2399999499321 777
5.25999994948506 773
5.27999994903803 806
5.29999994859099 739
5.31999994814396 803
5.33999994769692 730
5.35999994724989 788
5.37999994680285 785
5.39999994635582 764
5.41999994590878 793
5.43999994546175 790
5.45999994501471 798
5.47999994456768 759
5.49999994412065 749
5.51999994367361 796
5.53999994322658 754
5.55999994277954 739
5.57999994233251 787
5.59999994188547 707
5.61999994143844 788
5.6399999409914 762
5.65999994054437 785
5.67999994009733 758
5.6999999396503 763
5.71999993920326 793
5.73999993875623 771
5.75999993830919 750
5.77999993786216 784
5.79999993741512 759
5.81999993696809 785
5.83999993652105 785
5.85999993607402 771
5.87999993562698 764
5.89999993517995 737
5.91999993473291 736
5.93999993428588 723
5.95999993383884 727
5.97999993339181 758
5.99999993294477 740
6.01999993249774 721
6.0399999320507 734
6.05999993160367 738
6.07999993115663 761
6.0999999307096 705
6.11999993026257 766
6.13999992981553 748
6.1599999293685 726
6.17999992892146 743
6.19999992847443 718
6.21999992802739 697
6.23999992758036 698
6.25999992713332 759
6.27999992668629 690
6.29999992623925 696
6.31999992579222 719
6.33999992534518 693
6.35999992489815 742
6.37999992445111 707
6.39999992400408 701
6.41999992355704 718
6.43999992311001 716
6.45999992266297 754
6.47999992221594 727
6.4999999217689 756
6.51999992132187 730
6.53999992087483 757
6.5599999204278 669
6.57999991998076 750
6.59999991953373 701
6.61999991908669 727
6.63999991863966 778
6.65999991819262 795
6.67999991774559 730
6.69999991729855 743
6.71999991685152 779
6.73999991640449 711
6.75999991595745 744
6.77999991551042 742
6.79999991506338 749
6.81999991461635 722
6.83999991416931 688
6.85999991372228 706
6.87999991327524 672
6.89999991282821 695
6.91999991238117 770
6.93999991193414 761
6.9599999114871 729
6.97999991104007 778
6.99999991059303 718
7.019999910146 732
7.03999990969896 717
7.05999990925193 735
7.07999990880489 729
7.09999990835786 691
7.11999990791082 699
7.13999990746379 735
7.15999990701675 729
7.17999990656972 707
7.19999990612268 759
7.21999990567565 717
7.23999990522861 657
7.25999990478158 676
7.27999990433454 760
7.29999990388751 722
7.31999990344047 690
7.33999990299344 671
7.35999990254641 679
7.37999990209937 723
7.39999990165234 681
7.4199999012053 739
7.43999990075827 681
7.45999990031123 716
7.4799998998642 689
7.49999989941716 702
7.51999989897013 683
7.53999989852309 691
7.55999989807606 707
7.57999989762902 684
7.59999989718199 688
7.61999989673495 663
7.63999989628792 748
7.65999989584088 696
7.67999989539385 640
7.69999989494681 677
7.71999989449978 694
7.73999989405274 676
7.75999989360571 679
7.77999989315867 666
7.79999989271164 702
7.8199998922646 697
7.83999989181757 653
7.85999989137053 699
7.8799998909235 677
7.89999989047646 713
7.91999989002943 718
7.9399998895824 655
7.95999988913536 660
7.97999988868833 630
7.99999988824129 691
8.01999988779426 667
8.03999988734722 732
8.05999988690019 686
8.07999988645315 638
8.09999988600612 643
8.11999988555908 683
8.13999988511205 698
8.15999988466501 673
8.17999988421798 680
8.19999988377094 687
8.21999988332391 662
8.23999988287687 653
8.25999988242984 651
8.2799998819828 690
8.29999988153577 659
8.31999988108873 688
8.3399998806417 692
8.35999988019466 664
8.37999987974763 670
8.39999987930059 649
8.41999987885356 682
8.43999987840652 711
8.45999987795949 667
8.47999987751245 654
8.49999987706542 627
8.51999987661839 656
8.53999987617135 661
8.55999987572432 656
8.57999987527728 715
8.59999987483025 703
8.61999987438321 612
8.63999987393618 679
8.65999987348914 682
8.67999987304211 676
8.69999987259507 642
8.71999987214804 689
8.739999871701 677
8.75999987125397 662
8.77999987080693 674
8.7999998703599 666
8.81999986991286 660
8.83999986946583 667
8.85999986901879 669
8.87999986857176 644
8.89999986812472 665
8.91999986767769 704
8.93999986723065 643
8.95999986678362 660
8.97999986633658 694
8.99999986588955 624
9.01999986544251 694
9.03999986499548 658
9.05999986454844 638
9.07999986410141 639
9.09999986365438 653
9.11999986320734 659
9.13999986276031 685
9.15999986231327 670
9.17999986186624 652
9.1999998614192 700
9.21999986097217 705
9.23999986052513 669
9.2599998600781 657
9.27999985963106 664
9.29999985918403 652
9.31999985873699 654
9.33999985828996 628
9.35999985784292 625
9.37999985739589 627
9.39999985694885 663
9.41999985650182 624
9.43999985605478 625
9.45999985560775 648
9.47999985516071 667
9.49999985471368 631
9.51999985426664 668
9.53999985381961 684
9.55999985337257 648
9.57999985292554 628
9.5999998524785 622
9.61999985203147 623
9.63999985158443 651
9.6599998511374 672
9.67999985069037 613
9.69999985024333 674
9.7199998497963 668
9.73999984934926 660
9.75999984890223 673
9.77999984845519 616
9.79999984800816 642
9.81999984756112 656
9.83999984711409 632
9.85999984666705 679
9.87999984622002 618
9.89999984577298 594
9.91999984532595 633
9.93999984487891 644
9.95999984443188 599
9.97999984398484 661
9.99999984353781 658
10.0199998430908 642
10.0399998426437 627
10.0599998421967 631
10.0799998417497 619
10.0999998413026 663
10.1199998408556 601
10.1399998404086 607
10.1599998399615 628
10.1799998395145 616
10.1999998390675 642
10.2199998386204 615
10.2399998381734 643
10.2599998377264 597
10.2799998372793 615
10.2999998368323 617
10.3199998363853 635
10.3399998359382 579
10.3599998354912 614
10.3799998350441 638
10.3999998345971 617
10.4199998341501 640
10.439999833703 614
10.459999833256 610
10.479999832809 601
10.4999998323619 630
10.5199998319149 583
10.5399998314679 616
10.5599998310208 600
10.5799998305738 612
10.5999998301268 666
10.6199998296797 596
10.6399998292327 615
10.6599998287857 591
10.6799998283386 629
10.6999998278916 630
10.7199998274446 577
10.7399998269975 672
10.7599998265505 643
10.7799998261034 562
10.7999998256564 624
10.8199998252094 603
10.8399998247623 633
10.8599998243153 573
10.8799998238683 605
10.8999998234212 605
10.9199998229742 602
10.9399998225272 578
10.9599998220801 576
10.9799998216331 585
10.9999998211861 622
11.019999820739 598
11.039999820292 601
11.059999819845 619
11.0799998193979 625
11.0999998189509 597
11.1199998185039 581
11.1399998180568 611
11.1599998176098 594
11.1799998171628 572
11.1999998167157 595
11.2199998162687 575
11.2399998158216 630
11.2599998153746 631
11.2799998149276 594
11.2999998144805 596
11.3199998140335 611
11.3399998135865 593
11.3599998131394 538
11.3799998126924 613
11.3999998122454 640
11.4199998117983 615
11.4399998113513 608
11.4599998109043 637
11.4799998104572 620
11.4999998100102 625
11.5199998095632 628
11.5399998091161 612
11.5599998086691 585
11.5799998082221 589
11.599999807775 577
11.619999807328 607
11.639999806881 513
11.6599998064339 555
11.6799998059869 652
11.6999998055398 555
11.7199998050928 596
11.7399998046458 598
11.7599998041987 593
11.7799998037517 588
11.7999998033047 615
11.8199998028576 649
11.8399998024106 576
11.8599998019636 571
11.8799998015165 567
11.8999998010695 550
11.9199998006225 611
11.9399998001754 594
11.9599997997284 604
11.9799997992814 607
11.9999997988343 637
12.0199997983873 618
12.0399997979403 573
12.0599997974932 611
12.0799997970462 588
12.0999997965992 573
12.1199997961521 592
12.1399997957051 558
12.159999795258 619
12.179999794811 640
12.199999794364 565
12.2199997939169 611
12.2399997934699 556
12.2599997930229 599
12.2799997925758 592
12.2999997921288 599
12.3199997916818 572
12.3399997912347 566
12.3599997907877 586
12.3799997903407 585
12.3999997898936 645
12.4199997894466 588
12.4399997889996 593
12.4599997885525 578
12.4799997881055 578
12.4999997876585 574
12.5199997872114 590
12.5399997867644 623
12.5599997863173 572
12.5799997858703 568
12.5999997854233 587
12.6199997849762 574
12.6399997845292 597
12.6599997840822 580
12.6799997836351 632
12.6999997831881 623
12.7199997827411 533
12.739999782294 561
12.759999781847 523
12.7799997814 610
12.7999997809529 599
12.8199997805059 622
12.8399997800589 592
12.8599997796118 576
12.8799997791648 582
12.8999997787178 603
12.9199997782707 562
12.9399997778237 597
12.9599997773767 567
12.9799997769296 569
12.9999997764826 552
13.0199997760355 584
13.0399997755885 640
13.0599997751415 651
13.0799997746944 559
13.0999997742474 616
13.1199997738004 580
13.1399997733533 583
13.1599997729063 583
13.1799997724593 624
13.1999997720122 638
13.2199997715652 616
13.2399997711182 678
13.2599997706711 647
13.2799997702241 670
13.2999997697771 629
13.31999976933 621
13.339999768883 636
13.359999768436 601
13.3799997679889 584
13.3999997675419 637
13.4199997670949 603
13.4399997666478 617
13.4599997662008 599
13.4799997657537 629
13.4999997653067 625
13.5199997648597 621
13.5399997644126 637
13.5599997639656 626
13.5799997635186 595
13.5999997630715 627
13.6199997626245 616
13.6399997621775 618
13.6599997617304 629
13.6799997612834 624
13.6999997608364 596
13.7199997603893 595
13.7399997599423 635
13.7599997594953 578
13.7799997590482 600
13.7999997586012 645
13.8199997581542 601
13.8399997577071 593
13.8599997572601 599
13.879999756813 607
13.899999756366 614
13.919999755919 592
13.9399997554719 614
13.9599997550249 628
13.9799997545779 601
13.9999997541308 601
14.0199997536838 612
14.0399997532368 651
14.0599997527897 628
14.0799997523427 600
14.0999997518957 632
14.1199997514486 586
14.1399997510016 612
14.1599997505546 673
14.1799997501075 628
14.1999997496605 638
14.2199997492135 643
14.2399997487664 651
14.2599997483194 642
14.2799997478724 638
14.2999997474253 623
14.3199997469783 640
14.3399997465312 616
14.3599997460842 595
14.3799997456372 655
14.3999997451901 610
14.4199997447431 635
14.4399997442961 653
14.459999743849 653
14.479999743402 668
14.499999742955 661
14.5199997425079 599
14.5399997420609 644
14.5599997416139 664
14.5799997411668 638
14.5999997407198 609
14.6199997402728 588
14.6399997398257 581
14.6599997393787 651
14.6799997389317 629
14.6999997384846 647
14.7199997380376 667
14.7399997375906 635
14.7599997371435 591
14.7799997366965 599
14.7999997362494 618
14.8199997358024 619
14.8399997353554 635
14.8599997349083 655
14.8799997344613 635
14.8999997340143 679
14.9199997335672 680
14.9399997331202 667
14.9599997326732 645
14.9799997322261 656
14.9999997317791 678
15.0199997313321 655
15.039999730885 644
15.059999730438 648
15.079999729991 634
15.0999997295439 666
15.1199997290969 652
15.1399997286499 623
15.1599997282028 659
15.1799997277558 648
15.1999997273088 671
15.2199997268617 672
15.2399997264147 722
15.2599997259676 642
15.2799997255206 718
15.2999997250736 669
15.3199997246265 649
15.3399997241795 696
15.3599997237325 665
15.3799997232854 649
15.3999997228384 721
15.4199997223914 662
15.4399997219443 693
15.4599997214973 657
15.4799997210503 708
15.4999997206032 695
15.5199997201562 691
15.5399997197092 669
15.5599997192621 657
15.5799997188151 658
15.5999997183681 690
15.619999717921 707
15.639999717474 703
15.659999717027 691
15.6799997165799 722
15.6999997161329 711
15.7199997156858 723
15.7399997152388 704
15.7599997147918 672
15.7799997143447 703
15.7999997138977 742
15.8199997134507 709
15.8399997130036 750
15.8599997125566 739
15.8799997121096 742
15.8999997116625 735
15.9199997112155 757
15.9399997107685 733
15.9599997103214 748
15.9799997098744 687
15.9999997094274 715
16.0199997089803 706
16.0399997085333 758
16.0599997080863 715
16.0799997076392 743
16.0999997071922 750
16.1199997067451 766
16.1399997062981 714
16.1599997058511 724
16.179999705404 731
16.199999704957 717
16.21999970451 773
16.2399997040629 728
16.2599997036159 778
16.2799997031689 770
16.2999997027218 776
16.3199997022748 738
16.3399997018278 789
16.3599997013807 769
16.3799997009337 748
16.3999997004867 771
16.4199997000396 802
16.4399996995926 746
16.4599996991456 762
16.4799996986985 769
16.4999996982515 766
16.5199996978045 746
16.5399996973574 769
16.5599996969104 743
16.5799996964633 843
16.5999996960163 783
16.6199996955693 805
16.6399996951222 871
16.6599996946752 917
16.6799996942282 862
16.6999996937811 928
16.7199996933341 936
16.7399996928871 939
16.75999969244 995
16.779999691993 1109
16.799999691546 1130
16.8199996910989 1262
16.8399996906519 1430
16.8599996902049 1674
16.8799996897578 1775
16.8999996893108 1933
16.9199996888638 2019
16.9399996884167 2126
16.9599996879697 2156
16.9799996875226 2072
16.9999996870756 2204
17.0199996866286 2098
17.0399996861815 2077
17.0599996857345 1963
17.0799996852875 1775
17.0999996848404 1730
17.1199996843934 1567
17.1399996839464 1493
17.1599996834993 1416
17.1799996830523 1322
17.1999996826053 1267
17.2199996821582 1211
17.2399996817112 1079
17.2599996812642 960
17.2799996808171 953
17.2999996803701 959
17.3199996799231 895
17.339999679476 889
17.359999679029 889
17.379999678582 866
17.3999996781349 834
17.4199996776879 923
17.4399996772408 879
17.4599996767938 873
17.4799996763468 840
17.4999996758997 893
17.5199996754527 902
17.5399996750057 849
17.5599996745586 833
17.5799996741116 896
17.5999996736646 869
17.6199996732175 916
17.6399996727705 899
17.6599996723235 855
17.6799996718764 882
17.6999996714294 811
17.7199996709824 860
17.7399996705353 874
17.7599996700883 878
17.7799996696413 914
17.7999996691942 945
17.8199996687472 884
17.8399996683002 891
17.8599996678531 873
17.8799996674061 881
17.899999666959 931
17.919999666512 878
17.939999666065 954
17.9599996656179 924
17.9799996651709 900
17.9999996647239 921
18.0199996642768 899
18.0399996638298 934
18.0599996633828 944
18.0799996629357 940
18.0999996624887 971
18.1199996620417 951
18.1399996615946 960
18.1599996611476 928
18.1799996607006 949
18.1999996602535 881
18.2199996598065 944
18.2399996593595 1003
18.2599996589124 954
18.2799996584654 974
18.2999996580184 1023
18.3199996575713 944
18.3399996571243 912
18.3599996566772 962
18.3799996562302 957
18.3999996557832 1007
18.4199996553361 963
18.4399996548891 992
18.4599996544421 1001
18.479999653995 957
18.499999653548 1007
18.519999653101 930
18.5399996526539 1000
18.5599996522069 1022
18.5799996517599 969
18.5999996513128 1012
18.6199996508658 970
18.6399996504188 1038
18.6599996499717 995
18.6799996495247 979
18.6999996490777 947
18.7199996486306 1008
18.7399996481836 1029
18.7599996477366 980
18.7799996472895 1061
18.7999996468425 1047
18.8199996463954 1067
18.8399996459484 1031
18.8599996455014 948
18.8799996450543 1012
18.8999996446073 1021
18.9199996441603 1017
18.9399996437132 1059
18.9599996432662 1025
18.9799996428192 1035
18.9999996423721 1090
19.0199996419251 1027
19.0399996414781 1007
19.059999641031 1016
19.079999640584 1056
19.099999640137 1072
19.1199996396899 1073
19.1399996392429 1032
19.1599996387959 1021
19.1799996383488 1038
19.1999996379018 1038
19.2199996374547 1026
19.2399996370077 1018
19.2599996365607 1063
19.2799996361136 1014
19.2999996356666 1053
19.3199996352196 1069
19.3399996347725 1135
19.3599996343255 1080
19.3799996338785 1093
19.3999996334314 1102
19.4199996329844 1098
19.4399996325374 1028
19.4599996320903 1089
19.4799996316433 1084
19.4999996311963 1056
19.5199996307492 1128
19.5399996303022 1137
19.5599996298552 1064
19.5799996294081 1132
19.5999996289611 1095
19.6199996285141 1099
19.639999628067 1112
19.65999962762 1083
19.6799996271729 1109
19.6999996267259 1111
19.7199996262789 1087
19.7399996258318 1112
19.7599996253848 1113
19.7799996249378 1089
19.7999996244907 1082
19.8199996240437 1185
19.8399996235967 1142
19.8599996231496 1089
19.8799996227026 1087
19.8999996222556 1161
19.9199996218085 1131
19.9399996213615 1215
19.9599996209145 1102
19.9799996204674 1155
19.9999996200204 1175
