3 2256
3.01999999955297 2180
3.03999999910593 2058
3.0599999986589 1847
3.07999999821186 1824
3.09999999776483 1648
3.11999999731779 1606
3.13999999687076 1598
3.15999999642372 1573
3.17999999597669 1535
3.19999999552965 1564
3.21999999508262 1481
3.23999999463558 1389
3.25999999418855 1492
3.27999999374151 1416
3.29999999329448 1342
3.31999999284744 1371
3.33999999240041 1358
3.35999999195337 1316
3.37999999150634 1293
3.3999999910593 1307
3.41999999061227 1279
3.43999999016523 1352
3.4599999897182 1249
3.47999998927116 1231
3.49999998882413 1238
3.51999998837709 1153
3.53999998793006 1252
3.55999998748302 1220
3.57999998703599 1133
3.59999998658895 1170
3.61999998614192 1159
3.63999998569489 1123
3.65999998524785 1072
3.67999998480082 1087
3.69999998435378 1087
3.71999998390675 1118
3.73999998345971 1117
3.75999998301268 1111
3.77999998256564 1046
3.79999998211861 1053
3.81999998167157 1063
3.83999998122454 1063
3.8599999807775 985
3.87999998033047 1010
3.89999997988343 1056
3.9199999794364 994
3.93999997898936 929
3.95999997854233 927
3.97999997809529 1018
3.99999997764826 911
4.01999997720122 950
4.03999997675419 978
4.05999997630715 963
4.07999997586012 898
4.09999997541308 918
4.11999997496605 854
4.13999997451901 924
4.15999997407198 927
4.17999997362494 835
4.19999997317791 837
4.21999997273087 840
4.23999997228384 831
4.25999997183681 848
4.27999997138977 862
4.29999997094274 869
4.3199999704957 822
4.33999997004867 839
4.35999996960163 830
4.3799999691546 787
4.39999996870756 783
4.41999996826053 830
4.43999996781349 827
4.45999996736646 766
4.47999996691942 807
4.49999996647239 772
4.51999996602535 749
4.53999996557832 749
4.55999996513128 789
4.57999996468425 760
4.59999996423721 759
4.61999996379018 767
4.63999996334314 781
4.65999996289611 769
4.67999996244907 716
4.69999996200204 771
4.719999961555 742
4.73999996110797 752
4.75999996066093 742
4.7799999602139 743
4.79999995976686 678
4.81999995931983 738
4.83999995887279 726
4.85999995842576 728
4.87999995797873 712
4.89999995753169 653
4.91999995708466 694
4.93999995663762 686
4.95999995619059 729
4.97999995574355 768
4.99999995529652 708
5.01999995484948 717
5.03999995440245 685
5.05999995395541 686
5.07999995350838 703
5.09999995306134 696
5.11999995261431 643
5.13999995216727 659
5.15999995172024 682
5.1799999512732 662
5.19999995082617 656
5.21999995037913 663
5.2399999499321 671
5.25999994948506 624
5.27999994903803 670
5.29999994859099 688
5.31999994814396 679
5.33999994769692 666
5.35999994724989 696
5.37999994680285 656
5.39999994635582 610
5.41999994590878 646
5.43999994546175 632
5.45999994501471 675
5.47999994456768 642
5.49999994412065 660
5.51999994367361 681
5.53999994322658 642
5.55999994277954 676
5.57999994233251 651
5.59999994188547 680
5.61999994143844 647
5.6399999409914 670
5.65999994054437 640
5.67999994009733 632
5.6999999396503 632
5.71999993920326 650
5.73999993875623 634
5.75999993830919 683
5.77999993786216 675
5.79999993741512 625
5.81999993696809 599
5.83999993652105 661
5.85999993607402 657
5.87999993562698 652
5.89999993517995 673
5.91999993473291 623
5.93999993428588 627
5.95999993383884 593
5.97999993339181 628
5.99999993294477 638
6.01999993249774 663
6.0399999320507 631
6.05999993160367 623
6.07999993115663 644
6.0999999307096 625
6.11999993026257 630
6.13999992981553 632
6.1599999293685 633
6.17999992892146 632
6.19999992847443 617
6.21999992802739 599
6.23999992758036 642
6.25999992713332 625
6.27999992668629 581
6.29999992623925 597
6.31999992579222 633
6.33999992534518 607
6.35999992489815 621
6.37999992445111 634
6.39999992400408 588
6.41999992355704 625
6.43999992311001 583
6.45999992266297 618
6.47999992221594 615
6.4999999217689 650
6.51999992132187 607
6.53999992087483 631
6.5599999204278 610
6.57999991998076 580
6.59999991953373 638
6.61999991908669 583
6.63999991863966 621
6.65999991819262 652
6.67999991774559 579
6.69999991729855 633
6.71999991685152 558
6.73999991640449 678
6.75999991595745 620
6.77999991551042 616
6.79999991506338 602
6.81999991461635 594
6.83999991416931 609
6.85999991372228 628
6.87999991327524 575
6.89999991282821 601
6.91999991238117 607
6.93999991193414 637
6.9599999114871 615
6.97999991104007 594
6.99999991059303 661
7.019999910146 593
7.03999990969896 633
7.05999990925193 624
7.07999990880489 596
7.09999990835786 598
7.11999990791082 605
7.13999990746379 628
7.15999990701675 596
7.17999990656972 601
7.19999990612268 647
7.21999990567565 632
7.23999990522861 590
7.25999990478158 617
7.27999990433454 622
7.29999990388751 589
7.31999990344047 584
7.33999990299344 585
7.35999990254641 590
7.37999990209937 617
7.39999990165234 574
7.4199999012053 589
7.43999990075827 637
7.45999990031123 579
7.4799998998642 623
7.49999989941716 591
7.51999989897013 631
7.53999989852309 580
7.55999989807606 628
7.57999989762902 586
7.59999989718199 620
7.61999989673495 612
7.63999989628792 564
7.65999989584088 627
7.67999989539385 603
7.69999989494681 630
7.71999989449978 602
7.73999989405274 612
7.75999989360571 594
7.77999989315867 586
7.79999989271164 617
7.8199998922646 626
7.83999989181757 651
7.85999989137053 638
7.8799998909235 602
7.89999989047646 616
7.91999989002943 638
7.9399998895824 682
7.95999988913536 628
7.97999988868833 645
7.99999988824129 645
8.01999988779426 646
8.03999988734722 637
8.05999988690019 611
8.07999988645315 648
8.09999988600612 642
8.11999988555908 624
8.13999988511205 652
8.15999988466501 616
8.17999988421798 670
8.19999988377094 694
8.21999988332391 666
8.23999988287687 655
8.25999988242984 650
8.2799998819828 629
8.29999988153577 672
8.31999988108873 685
8.3399998806417 680
8.35999988019466 647
8.37999987974763 654
8.39999987930059 698
8.41999987885356 712
8.43999987840652 674
8.45999987795949 714
8.47999987751245 770
8.49999987706542 770
8.51999987661839 851
8.53999987617135 780
8.55999987572432 838
8.57999987527728 873
8.59999987483025 912
8.61999987438321 884
8.63999987393618 1043
8.65999987348914 1062
8.67999987304211 1103
8.69999987259507 1219
8.71999987214804 1342
8.739999871701 1348
8.75999987125397 1517
8.77999987080693 1739
8.7999998703599 1950
8.81999986991286 2217
8.83999986946583 2487
8.85999986901879 2612
8.87999986857176 2829
8.89999986812472 2561
8.91999986767769 2207
8.93999986723065 1963
8.95999986678362 1748
8.97999986633658 1787
8.99999986588955 1977
9.01999986544251 2139
9.03999986499548 2221
9.05999986454844 2257
9.07999986410141 1680
9.09999986365438 1108
9.11999986320734 767
9.13999986276031 771
9.15999986231327 729
9.17999986186624 719
9.1999998614192 728
9.21999986097217 724
9.23999986052513 676
9.2599998600781 689
9.27999985963106 668
9.29999985918403 643
9.31999985873699 705
9.33999985828996 673
9.35999985784292 704
9.37999985739589 669
9.39999985694885 715
9.41999985650182 693
9.43999985605478 693
9.45999985560775 705
9.47999985516071 688
9.49999985471368 660
9.51999985426664 756
9.53999985381961 704
9.55999985337257 740
9.57999985292554 792
9.5999998524785 789
9.61999985203147 742
9.63999985158443 823
9.6599998511374 881
9.67999985069037 870
9.69999985024333 874
9.7199998497963 917
9.73999984934926 1001
9.75999984890223 1067
9.77999984845519 1112
9.79999984800816 1213
9.81999984756112 1285
9.83999984711409 1472
9.85999984666705 1611
9.87999984622002 1828
9.89999984577298 2150
9.91999984532595 2292
9.93999984487891 2700
9.95999984443188 2725
9.97999984398484 2393
9.99999984353781 1600
10.0199998430908 1088
10.0399998426437 892
10.0599998421967 825
10.0799998417497 761
10.0999998413026 772
10.1199998408556 723
10.1399998404086 709
10.1599998399615 666
10.1799998395145 677
10.1999998390675 683
10.2199998386204 688
10.2399998381734 647
10.2599998377264 647
10.2799998372793 572
10.2999998368323 600
10.3199998363853 653
10.3399998359382 633
10.3599998354912 605
10.3799998350441 615
10.3999998345971 611
10.4199998341501 572
10.439999833703 618
10.459999833256 617
10.479999832809 585
10.4999998323619 590
10.5199998319149 586
10.5399998314679 588
10.5599998310208 572
10.5799998305738 584
10.5999998301268 583
10.6199998296797 630
10.6399998292327 615
10.6599998287857 630
10.6799998283386 589
10.6999998278916 594
10.7199998274446 611
10.7399998269975 553
10.7599998265505 551
10.7799998261034 576
10.7999998256564 580
10.8199998252094 600
10.8399998247623 584
10.8599998243153 562
10.8799998238683 584
10.8999998234212 603
10.9199998229742 558
10.9399998225272 581
10.9599998220801 584
10.9799998216331 582
10.9999998211861 597
11.019999820739 571
11.039999820292 602
11.059999819845 654
11.0799998193979 576
11.0999998189509 559
11.1199998185039 540
11.1399998180568 574
11.1599998176098 549
11.1799998171628 572
11.1999998167157 560
11.2199998162687 607
11.2399998158216 565
11.2599998153746 558
11.2799998149276 548
11.2999998144805 572
11.3199998140335 578
11.3399998135865 569
11.3599998131394 581
11.3799998126924 581
11.3999998122454 555
11.4199998117983 572
11.4399998113513 567
11.4599998109043 546
11.4799998104572 567
11.4999998100102 537
11.5199998095632 625
11.5399998091161 583
11.5599998086691 546
11.5799998082221 560
11.599999807775 583
11.619999807328 540
11.639999806881 577
11.6599998064339 598
11.6799998059869 569
11.6999998055398 534
11.7199998050928 577
11.7399998046458 577
11.7599998041987 560
11.7799998037517 555
11.7999998033047 570
11.8199998028576 561
11.8399998024106 570
11.8599998019636 539
11.8799998015165 583
11.8999998010695 573
11.9199998006225 537
11.9399998001754 584
11.9599997997284 575
11.9799997992814 548
11.9999997988343 569
12.0199997983873 569
12.0399997979403 587
12.0599997974932 601
12.0799997970462 581
12.0999997965992 568
12.1199997961521 556
12.1399997957051 545
12.159999795258 591
12.179999794811 598
12.199999794364 588
12.2199997939169 563
12.2399997934699 566
12.2599997930229 549
12.2799997925758 592
12.2999997921288 648
12.3199997916818 619
12.3399997912347 582
12.3599997907877 650
12.3799997903407 655
12.3999997898936 601
12.4199997894466 643
12.4399997889996 678
12.4599997885525 641
12.4799997881055 700
12.4999997876585 701
12.5199997872114 817
12.5399997867644 794
12.5599997863173 932
12.5799997858703 978
12.5999997854233 993
12.6199997849762 999
12.6399997845292 1050
12.6599997840822 1042
12.6799997836351 952
12.6999997831881 800
12.7199997827411 763
12.739999782294 747
12.759999781847 625
12.7799997814 673
12.7999997809529 640
12.8199997805059 666
12.8399997800589 590
12.8599997796118 587
12.8799997791648 602
12.8999997787178 601
12.9199997782707 643
12.9399997778237 619
12.9599997773767 605
12.9799997769296 597
12.9999997764826 596
13.0199997760355 617
13.0399997755885 629
13.0599997751415 655
13.0799997746944 663
13.0999997742474 671
13.1199997738004 663
13.1399997733533 640
13.1599997729063 663
13.1799997724593 708
13.1999997720122 705
13.2199997715652 785
13.2399997711182 816
13.2599997706711 866
13.2799997702241 916
13.2999997697771 1002
13.31999976933 1152
13.339999768883 1258
13.359999768436 1394
13.3799997679889 1561
13.3999997675419 1617
13.4199997670949 1673
13.4399997666478 1529
13.4599997662008 1258
13.4799997657537 982
13.4999997653067 731
13.5199997648597 707
13.5399997644126 637
13.5599997639656 631
13.5799997635186 628
13.5999997630715 597
13.6199997626245 577
13.6399997621775 613
13.6599997617304 587
13.6799997612834 594
13.6999997608364 625
13.7199997603893 586
13.7399997599423 563
13.7599997594953 638
13.7799997590482 580
13.7999997586012 611
13.8199997581542 590
13.8399997577071 613
13.8599997572601 625
13.879999756813 631
13.899999756366 634
13.919999755919 637
13.9399997554719 592
13.9599997550249 615
13.9799997545779 583
13.9999997541308 627
14.0199997536838 608
14.0399997532368 614
14.0599997527897 611
14.0799997523427 613
14.0999997518957 610
14.1199997514486 613
14.1399997510016 622
14.1599997505546 653
14.1799997501075 610
14.1999997496605 619
14.2199997492135 581
14.2399997487664 571
14.2599997483194 585
14.2799997478724 644
14.2999997474253 616
14.3199997469783 613
14.3399997465312 602
14.3599997460842 643
14.3799997456372 637
14.3999997451901 614
14.4199997447431 618
14.4399997442961 642
14.459999743849 621
14.479999743402 604
14.499999742955 595
14.5199997425079 614
14.5399997420609 634
14.5599997416139 624
14.5799997411668 611
14.5999997407198 615
14.6199997402728 624
14.6399997398257 627
14.6599997393787 628
14.6799997389317 615
14.6999997384846 612
14.7199997380376 642
14.7399997375906 614
14.7599997371435 620
14.7799997366965 655
14.7999997362494 646
14.8199997358024 637
14.8399997353554 622
14.8599997349083 655
14.8799997344613 642
14.8999997340143 630
14.9199997335672 638
14.9399997331202 636
14.9599997326732 632
14.9799997322261 627
14.9999997317791 624
15.0199997313321 643
15.039999730885 661
15.059999730438 697
15.079999729991 664
15.0999997295439 639
15.1199997290969 698
15.1399997286499 645
15.1599997282028 651
15.1799997277558 725
15.1999997273088 694
15.2199997268617 640
15.2399997264147 671
15.2599997259676 670
15.2799997255206 666
15.2999997250736 650
15.3199997246265 651
15.3399997241795 680
15.3599997237325 711
15.3799997232854 700
15.3999997228384 684
15.4199997223914 660
15.4399997219443 694
15.4599997214973 655
15.4799997210503 724
15.4999997206032 632
15.5199997201562 634
15.5399997197092 694
15.5599997192621 696
15.5799997188151 655
15.5999997183681 715
15.619999717921 672
15.639999717474 675
15.659999717027 677
15.6799997165799 622
15.6999997161329 643
15.7199997156858 719
15.7399997152388 695
15.7599997147918 703
15.7799997143447 690
15.7999997138977 710
15.8199997134507 669
15.8399997130036 654
15.8599997125566 702
15.8799997121096 659
15.8999997116625 733
15.9199997112155 728
15.9399997107685 690
15.9599997103214 709
15.9799997098744 695
15.9999997094274 661
16.0199997089803 716
16.0399997085333 728
16.0599997080863 696
16.0799997076392 676
16.0999997071922 695
16.1199997067451 693
16.1399997062981 682
16.1599997058511 719
16.179999705404 684
16.199999704957 693
16.21999970451 770
16.2399997040629 670
16.2599997036159 744
16.2799997031689 721
16.2999997027218 756
16.3199997022748 749
16.3399997018278 743
16.3599997013807 714
16.3799997009337 701
16.3999997004867 714
16.4199997000396 729
16.4399996995926 761
16.4599996991456 739
16.4799996986985 766
16.4999996982515 712
16.5199996978045 701
16.5399996973574 760
16.5599996969104 759
16.5799996964633 750
16.5999996960163 745
16.6199996955693 707
16.6399996951222 774
16.6599996946752 718
16.6799996942282 761
16.6999996937811 786
16.7199996933341 811
16.7399996928871 783
16.75999969244 829
16.779999691993 865
16.799999691546 783
16.8199996910989 821
16.8399996906519 842
16.8599996902049 899
16.8799996897578 888
16.8999996893108 906
16.9199996888638 1041
16.9399996884167 997
16.9599996879697 1052
16.9799996875226 1166
16.9999996870756 1298
17.0199996866286 1383
17.0399996861815 1449
17.0599996857345 1416
17.0799996852875 1294
17.0999996848404 1085
17.1199996843934 988
17.1399996839464 912
17.1599996834993 892
17.1799996830523 819
17.1999996826053 813
17.2199996821582 861
17.2399996817112 765
17.2599996812642 754
17.2799996808171 780
17.2999996803701 802
17.3199996799231 807
17.339999679476 838
17.359999679029 844
17.379999678582 845
17.3999996781349 822
17.4199996776879 827
17.4399996772408 804
17.4599996767938 805
17.4799996763468 839
17.4999996758997 831
17.5199996754527 849
17.5399996750057 916
17.5599996745586 873
17.5799996741116 886
17.5999996736646 854
17.6199996732175 908
17.6399996727705 906
17.6599996723235 914
17.6799996718764 924
17.6999996714294 947
17.7199996709824 934
17.7399996705353 931
17.7599996700883 936
17.7799996696413 916
17.7999996691942 954
17.8199996687472 885
17.8399996683002 893
17.8599996678531 903
17.8799996674061 849
17.899999666959 882
17.919999666512 938
17.939999666065 908
17.9599996656179 925
17.9799996651709 936
17.9999996647239 941
18.0199996642768 868
18.0399996638298 937
18.0599996633828 948
18.0799996629357 928
18.0999996624887 894
18.1199996620417 878
18.1399996615946 918
18.1599996611476 887
18.1799996607006 954
18.1999996602535 910
18.2199996598065 953
18.2399996593595 1011
18.2599996589124 922
18.2799996584654 990
18.2999996580184 994
18.3199996575713 935
18.3399996571243 1012
18.3599996566772 947
18.3799996562302 1026
18.3999996557832 966
18.4199996553361 958
18.4399996548891 978
18.4599996544421 952
18.479999653995 975
18.499999653548 957
18.519999653101 931
18.5399996526539 938
18.5599996522069 929
18.5799996517599 923
18.5999996513128 978
18.6199996508658 966
18.6399996504188 980
18.6599996499717 975
18.6799996495247 921
18.6999996490777 920
18.7199996486306 953
18.7399996481836 950
18.7599996477366 948
18.7799996472895 973
18.7999996468425 974
18.8199996463954 988
18.8399996459484 951
18.8599996455014 988
18.8799996450543 990
18.8999996446073 940
18.9199996441603 974
18.9399996437132 1025
18.9599996432662 972
18.9799996428192 1012
18.9999996423721 984
19.0199996419251 1049
19.0399996414781 1025
19.059999641031 944
19.079999640584 990
19.099999640137 969
19.1199996396899 1000
19.1399996392429 1008
19.1599996387959 966
19.1799996383488 1002
19.1999996379018 991
19.2199996374547 1009
19.2399996370077 1026
19.2599996365607 1000
19.2799996361136 1004
19.2999996356666 1062
19.3199996352196 999
19.3399996347725 1007
19.3599996343255 1018
19.3799996338785 1008
19.3999996334314 1020
19.4199996329844 1025
19.4399996325374 1024
19.4599996320903 1055
19.4799996316433 1059
19.4999996311963 1016
19.5199996307492 1023
19.5399996303022 1048
19.5599996298552 1052
19.5799996294081 1024
19.5999996289611 1100
19.6199996285141 1112
19.639999628067 1096
19.65999962762 1153
19.6799996271729 1125
19.6999996267259 1108
19.7199996262789 1192
19.7399996258318 1172
19.7599996253848 1260
19.7799996249378 1364
19.7999996244907 1371
19.8199996240437 1452
19.8399996235967 1609
19.8599996231496 1733
19.8799996227026 1618
19.8999996222556 1592
19.9199996218085 1463
19.9399996213615 1466
19.9599996209145 1394
19.9799996204674 1416
19.9999996200204 1372
