3 2606
3.01999999955297 2325
3.03999999910593 2320
3.0599999986589 2158
3.07999999821186 2117
3.09999999776483 1868
3.11999999731779 2013
3.13999999687076 1907
3.15999999642372 1895
3.17999999597669 1855
3.19999999552965 1724
3.21999999508262 1803
3.23999999463558 1762
3.25999999418855 1733
3.27999999374151 1646
3.29999999329448 1627
3.31999999284744 1578
3.33999999240041 1555
3.35999999195337 1502
3.37999999150634 1510
3.3999999910593 1562
3.41999999061227 1534
3.43999999016523 1426
3.4599999897182 1404
3.47999998927116 1492
3.49999998882413 1509
3.51999998837709 1347
3.53999998793006 1351
3.55999998748302 1384
3.57999998703599 1340
3.59999998658895 1268
3.61999998614192 1280
3.63999998569489 1265
3.65999998524785 1240
3.67999998480082 1256
3.69999998435378 1174
3.71999998390675 1236
3.73999998345971 1170
3.75999998301268 1210
3.77999998256564 1113
3.79999998211861 1111
3.81999998167157 1102
3.83999998122454 1138
3.8599999807775 1167
3.87999998033047 1212
3.89999997988343 1052
3.9199999794364 1128
3.93999997898936 1076
3.95999997854233 1089
3.97999997809529 1136
3.99999997764826 1066
4.01999997720122 1120
4.03999997675419 1018
4.05999997630715 1062
4.07999997586012 1011
4.09999997541308 995
4.11999997496605 1003
4.13999997451901 1022
4.15999997407198 950
4.17999997362494 962
4.19999997317791 960
4.21999997273087 968
4.23999997228384 902
4.25999997183681 965
4.27999997138977 909
4.29999997094274 881
4.3199999704957 925
4.33999997004867 947
4.35999996960163 920
4.3799999691546 950
4.39999996870756 899
4.41999996826053 912
4.43999996781349 872
4.45999996736646 888
4.47999996691942 896
4.49999996647239 797
4.51999996602535 878
4.53999996557832 921
4.55999996513128 832
4.57999996468425 834
4.59999996423721 880
4.61999996379018 808
4.63999996334314 841
4.65999996289611 801
4.67999996244907 829
4.69999996200204 846
4.719999961555 834
4.73999996110797 795
4.75999996066093 794
4.7799999602139 834
4.79999995976686 795
4.81999995931983 804
4.83999995887279 765
4.85999995842576 804
4.87999995797873 737
4.89999995753169 774
4.91999995708466 802
4.93999995663762 766
4.95999995619059 739
4.97999995574355 756
4.99999995529652 737
5.01999995484948 740
5.03999995440245 762
5.05999995395541 769
5.07999995350838 765
5.09999995306134 750
5.11999995261431 747
5.13999995216727 743
5.15999995172024 739
5.1799999512732 725
5.19999995082617 766
5.21999995037913 730
5.2399999499321 764
5.25999994948506 739
5.27999994903803 664
5.29999994859099 726
5.31999994814396 693
5.33999994769692 744
5.35999994724989 742
5.37999994680285 687
5.39999994635582 716
5.41999994590878 749
5.43999994546175 693
5.45999994501471 729
5.47999994456768 709
5.49999994412065 688
5.51999994367361 701
5.53999994322658 731
5.55999994277954 733
5.57999994233251 684
5.59999994188547 689
5.61999994143844 666
5.6399999409914 696
5.65999994054437 707
5.67999994009733 699
5.6999999396503 739
5.71999993920326 711
5.73999993875623 722
5.75999993830919 728
5.77999993786216 744
5.79999993741512 696
5.81999993696809 684
5.83999993652105 725
5.85999993607402 689
5.87999993562698 698
5.89999993517995 668
5.91999993473291 705
5.93999993428588 735
5.95999993383884 628
5.97999993339181 737
5.99999993294477 694
6.01999993249774 678
6.0399999320507 681
6.05999993160367 660
6.07999993115663 681
6.0999999307096 675
6.11999993026257 709
6.13999992981553 723
6.1599999293685 727
6.17999992892146 737
6.19999992847443 692
6.21999992802739 663
6.23999992758036 710
6.25999992713332 722
6.27999992668629 728
6.29999992623925 659
6.31999992579222 698
6.33999992534518 612
6.35999992489815 659
6.37999992445111 690
6.39999992400408 676
6.41999992355704 677
6.43999992311001 715
6.45999992266297 715
6.47999992221594 678
6.4999999217689 659
6.51999992132187 668
6.53999992087483 691
6.5599999204278 689
6.57999991998076 660
6.59999991953373 694
6.61999991908669 756
6.63999991863966 653
6.65999991819262 686
6.67999991774559 735
6.69999991729855 690
6.71999991685152 721
6.73999991640449 681
6.75999991595745 653
6.77999991551042 658
6.79999991506338 678
6.81999991461635 728
6.83999991416931 696
6.85999991372228 657
6.87999991327524 637
6.89999991282821 666
6.91999991238117 673
6.93999991193414 662
6.9599999114871 674
6.97999991104007 666
6.99999991059303 712
7.019999910146 684
7.03999990969896 672
7.05999990925193 669
7.07999990880489 694
7.09999990835786 667
7.11999990791082 699
7.13999990746379 699
7.15999990701675 686
7.17999990656972 716
7.19999990612268 664
7.21999990567565 658
7.23999990522861 667
7.25999990478158 714
7.27999990433454 717
7.29999990388751 622
7.31999990344047 653
7.33999990299344 720
7.35999990254641 657
7.37999990209937 689
7.39999990165234 701
7.4199999012053 697
7.43999990075827 705
7.45999990031123 691
7.4799998998642 686
7.49999989941716 679
7.51999989897013 642
7.53999989852309 649
7.55999989807606 631
7.57999989762902 654
7.59999989718199 694
7.61999989673495 652
7.63999989628792 626
7.65999989584088 671
7.67999989539385 668
7.69999989494681 663
7.71999989449978 675
7.73999989405274 670
7.75999989360571 651
7.77999989315867 697
7.79999989271164 657
7.8199998922646 671
7.83999989181757 671
7.85999989137053 645
7.8799998909235 757
7.89999989047646 722
7.91999989002943 669
7.9399998895824 669
7.95999988913536 640
7.97999988868833 706
7.99999988824129 681
8.01999988779426 710
8.03999988734722 720
8.05999988690019 726
8.07999988645315 673
8.09999988600612 705
8.11999988555908 713
8.13999988511205 681
8.15999988466501 722
8.17999988421798 692
8.19999988377094 739
8.21999988332391 703
8.23999988287687 770
8.25999988242984 765
8.2799998819828 735
8.29999988153577 801
8.31999988108873 769
8.3399998806417 775
8.35999988019466 792
8.37999987974763 810
8.39999987930059 847
8.41999987885356 887
8.43999987840652 887
8.45999987795949 921
8.47999987751245 986
8.49999987706542 1053
8.51999987661839 966
8.53999987617135 1127
8.55999987572432 1124
8.57999987527728 1211
8.59999987483025 1228
8.61999987438321 1341
8.63999987393618 1305
8.65999987348914 1490
8.67999987304211 1582
8.69999987259507 1790
8.71999987214804 1924
8.739999871701 2079
8.75999987125397 2357
8.77999987080693 2773
8.7999998703599 2947
8.81999986991286 2895
8.83999986946583 2467
8.85999986901879 2057
8.87999986857176 2025
8.89999986812472 1969
8.91999986767769 2224
8.93999986723065 2314
8.95999986678362 2564
8.97999986633658 2556
8.99999986588955 2167
9.01999986544251 1628
9.03999986499548 1203
9.05999986454844 1017
9.07999986410141 972
9.09999986365438 913
9.11999986320734 903
9.13999986276031 892
9.15999986231327 883
9.17999986186624 907
9.1999998614192 867
9.21999986097217 857
9.23999986052513 909
9.2599998600781 830
9.27999985963106 933
9.29999985918403 894
9.31999985873699 875
9.33999985828996 861
9.35999985784292 831
9.37999985739589 865
9.39999985694885 873
9.41999985650182 810
9.43999985605478 870
9.45999985560775 881
9.47999985516071 864
9.49999985471368 890
9.51999985426664 886
9.53999985381961 902
9.55999985337257 923
9.57999985292554 955
9.5999998524785 965
9.61999985203147 1030
9.63999985158443 1090
9.6599998511374 1140
9.67999985069037 1240
9.69999985024333 1207
9.7199998497963 1361
9.73999984934926 1469
9.75999984890223 1549
9.77999984845519 1720
9.79999984800816 1898
9.81999984756112 2148
9.83999984711409 2502
9.85999984666705 2721
9.87999984622002 3040
9.89999984577298 2812
9.91999984532595 2212
9.93999984487891 1755
9.95999984443188 1405
9.97999984398484 1158
9.99999984353781 1040
10.0199998430908 920
10.0399998426437 884
10.0599998421967 857
10.0799998417497 810
10.0999998413026 729
10.1199998408556 732
10.1399998404086 731
10.1599998399615 742
10.1799998395145 717
10.1999998390675 742
10.2199998386204 693
10.2399998381734 709
10.2599998377264 701
10.2799998372793 701
10.2999998368323 659
10.3199998363853 679
10.3399998359382 650
10.3599998354912 661
10.3799998350441 641
10.3999998345971 672
10.4199998341501 667
10.439999833703 631
10.459999833256 692
10.479999832809 704
10.4999998323619 665
10.5199998319149 661
10.5399998314679 650
10.5599998310208 641
10.5799998305738 647
10.5999998301268 663
10.6199998296797 638
10.6399998292327 664
10.6599998287857 698
10.6799998283386 673
10.6999998278916 688
10.7199998274446 666
10.7399998269975 639
10.7599998265505 669
10.7799998261034 632
10.7999998256564 649
10.8199998252094 645
10.8399998247623 719
10.8599998243153 701
10.8799998238683 617
10.8999998234212 650
10.9199998229742 620
10.9399998225272 639
10.9599998220801 673
10.9799998216331 594
10.9999998211861 644
11.019999820739 643
11.039999820292 668
11.059999819845 652
11.0799998193979 649
11.0999998189509 611
11.1199998185039 585
11.1399998180568 573
11.1599998176098 610
11.1799998171628 610
11.1999998167157 607
11.2199998162687 611
11.2399998158216 617
11.2599998153746 651
11.2799998149276 608
11.2999998144805 629
11.3199998140335 633
11.3399998135865 611
11.3599998131394 638
11.3799998126924 636
11.3999998122454 614
11.4199998117983 616
11.4399998113513 605
11.4599998109043 621
11.4799998104572 619
11.4999998100102 634
11.5199998095632 596
11.5399998091161 593
11.5599998086691 601
11.5799998082221 564
11.599999807775 664
11.619999807328 591
11.639999806881 570
11.6599998064339 628
11.6799998059869 596
11.6999998055398 633
11.7199998050928 591
11.7399998046458 632
11.7599998041987 572
11.7799998037517 560
11.7999998033047 590
11.8199998028576 607
11.8399998024106 617
11.8599998019636 623
11.8799998015165 621
11.8999998010695 589
11.9199998006225 574
11.9399998001754 653
11.9599997997284 593
11.9799997992814 622
11.9999997988343 652
12.0199997983873 627
12.0399997979403 586
12.0599997974932 658
12.0799997970462 582
12.0999997965992 575
12.1199997961521 590
12.1399997957051 652
12.159999795258 631
12.179999794811 689
12.199999794364 629
12.2199997939169 652
12.2399997934699 627
12.2599997930229 648
12.2799997925758 678
12.2999997921288 677
12.3199997916818 720
12.3399997912347 660
12.3599997907877 678
12.3799997903407 721
12.3999997898936 759
12.4199997894466 729
12.4399997889996 753
12.4599997885525 827
12.4799997881055 875
12.4999997876585 850
12.5199997872114 933
12.5399997867644 1040
12.5599997863173 1051
12.5799997858703 1062
12.5999997854233 933
12.6199997849762 878
12.6399997845292 820
12.6599997840822 820
12.6799997836351 801
12.6999997831881 736
12.7199997827411 763
12.739999782294 771
12.759999781847 656
12.7799997814 675
12.7999997809529 661
12.8199997805059 641
12.8399997800589 671
12.8599997796118 680
12.8799997791648 666
12.8999997787178 686
12.9199997782707 654
12.9399997778237 673
12.9599997773767 682
12.9799997769296 678
12.9999997764826 657
13.0199997760355 662
13.0399997755885 702
13.0599997751415 683
13.0799997746944 762
13.0999997742474 734
13.1199997738004 751
13.1399997733533 777
13.1599997729063 798
13.1799997724593 830
13.1999997720122 914
13.2199997715652 936
13.2399997711182 1015
13.2599997706711 1027
13.2799997702241 1188
13.2999997697771 1300
13.31999976933 1422
13.339999768883 1495
13.359999768436 1416
13.3799997679889 1268
13.3999997675419 1027
13.4199997670949 803
13.4399997666478 748
13.4599997662008 714
13.4799997657537 688
13.4999997653067 678
13.5199997648597 652
13.5399997644126 676
13.5599997639656 643
13.5799997635186 677
13.5999997630715 617
13.6199997626245 616
13.6399997621775 638
13.6599997617304 598
13.6799997612834 625
13.6999997608364 674
13.7199997603893 577
13.7399997599423 652
13.7599997594953 636
13.7799997590482 668
13.7999997586012 658
13.8199997581542 621
13.8399997577071 651
13.8599997572601 654
13.879999756813 678
13.899999756366 638
13.919999755919 679
13.9399997554719 617
13.9599997550249 636
13.9799997545779 642
13.9999997541308 644
14.0199997536838 629
14.0399997532368 605
14.0599997527897 613
14.0799997523427 636
14.0999997518957 639
14.1199997514486 617
14.1399997510016 653
14.1599997505546 617
14.1799997501075 645
14.1999997496605 671
14.2199997492135 622
14.2399997487664 636
14.2599997483194 632
14.2799997478724 674
14.2999997474253 644
14.3199997469783 678
14.3399997465312 666
14.3599997460842 627
14.3799997456372 616
14.3999997451901 653
14.4199997447431 705
14.4399997442961 683
14.459999743849 700
14.479999743402 684
14.499999742955 646
14.5199997425079 654
14.5399997420609 684
14.5599997416139 629
14.5799997411668 649
14.5999997407198 668
14.6199997402728 662
14.6399997398257 669
14.6599997393787 638
14.6799997389317 646
14.6999997384846 704
14.7199997380376 633
14.7399997375906 637
14.7599997371435 632
14.7799997366965 666
14.7999997362494 681
14.8199997358024 659
14.8399997353554 660
14.8599997349083 656
14.8799997344613 689
14.8999997340143 663
14.9199997335672 644
14.9399997331202 638
14.9599997326732 675
14.9799997322261 703
14.9999997317791 668
15.0199997313321 699
15.039999730885 662
15.059999730438 647
15.079999729991 648
15.0999997295439 650
15.1199997290969 665
15.1399997286499 666
15.1599997282028 659
15.1799997277558 703
15.1999997273088 670
15.2199997268617 671
15.2399997264147 709
15.2599997259676 729
15.2799997255206 696
15.2999997250736 729
15.3199997246265 708
15.3399997241795 649
15.3599997237325 726
15.3799997232854 675
15.3999997228384 676
15.4199997223914 731
15.4399997219443 729
15.4599997214973 666
15.4799997210503 696
15.4999997206032 713
15.5199997201562 709
15.5399997197092 700
15.5599997192621 712
15.5799997188151 695
15.5999997183681 699
15.619999717921 694
15.639999717474 662
15.659999717027 692
15.6799997165799 698
15.6999997161329 712
15.7199997156858 734
15.7399997152388 726
15.7599997147918 703
15.7799997143447 741
15.7999997138977 682
15.8199997134507 716
15.8399997130036 721
15.8599997125566 732
15.8799997121096 758
15.8999997116625 668
15.9199997112155 758
15.9399997107685 738
15.9599997103214 712
15.9799997098744 731
15.9999997094274 686
16.0199997089803 658
16.0399997085333 743
16.0599997080863 773
16.0799997076392 740
16.0999997071922 732
16.1199997067451 735
16.1399997062981 747
16.1599997058511 723
16.179999705404 737
16.199999704957 747
16.21999970451 712
16.2399997040629 735
16.2599997036159 756
16.2799997031689 760
16.2999997027218 784
16.3199997022748 746
16.3399997018278 754
16.3599997013807 770
16.3799997009337 772
16.3999997004867 763
16.4199997000396 754
16.4399996995926 801
16.4599996991456 758
16.4799996986985 801
16.4999996982515 771
16.5199996978045 754
16.5399996973574 766
16.5599996969104 758
16.5799996964633 781
16.5999996960163 796
16.6199996955693 773
16.6399996951222 743
16.6599996946752 788
16.6799996942282 835
16.6999996937811 794
16.7199996933341 816
16.7399996928871 923
16.75999969244 849
16.779999691993 872
16.799999691546 873
16.8199996910989 969
16.8399996906519 920
16.8599996902049 989
16.8799996897578 1083
16.8999996893108 1165
16.9199996888638 1337
16.9399996884167 1466
16.9599996879697 1571
16.9799996875226 1614
16.9999996870756 1565
17.0199996866286 1345
17.0399996861815 1138
17.0599996857345 981
17.0799996852875 883
17.0999996848404 815
17.1199996843934 897
17.1399996839464 797
17.1599996834993 876
17.1799996830523 807
17.1999996826053 820
17.2199996821582 833
17.2399996817112 870
17.2599996812642 800
17.2799996808171 791
17.2999996803701 828
17.3199996799231 840
17.339999679476 840
17.359999679029 895
17.379999678582 890
17.3999996781349 806
17.4199996776879 884
17.4399996772408 851
17.4599996767938 830
17.4799996763468 889
17.4999996758997 855
17.5199996754527 845
17.5399996750057 880
17.5599996745586 931
17.5799996741116 882
17.5999996736646 942
17.6199996732175 891
17.6399996727705 948
17.6599996723235 907
17.6799996718764 938
17.6999996714294 927
17.7199996709824 932
17.7399996705353 916
17.7599996700883 913
17.7799996696413 896
17.7999996691942 949
17.8199996687472 921
17.8399996683002 896
17.8599996678531 921
17.8799996674061 945
17.899999666959 938
17.919999666512 1002
17.939999666065 976
17.9599996656179 910
17.9799996651709 971
17.9999996647239 972
18.0199996642768 933
18.0399996638298 894
18.0599996633828 939
18.0799996629357 955
18.0999996624887 939
18.1199996620417 967
18.1399996615946 981
18.1599996611476 1013
18.1799996607006 958
18.1999996602535 986
18.2199996598065 972
18.2399996593595 1053
18.2599996589124 992
18.2799996584654 978
18.2999996580184 936
18.3199996575713 998
18.3399996571243 978
18.3599996566772 967
18.3799996562302 984
18.3999996557832 1030
18.4199996553361 991
18.4399996548891 919
18.4599996544421 985
18.479999653995 965
18.499999653548 944
18.519999653101 999
18.5399996526539 935
18.5599996522069 978
18.5799996517599 1066
18.5999996513128 974
18.6199996508658 955
18.6399996504188 954
18.6599996499717 1032
18.6799996495247 979
18.6999996490777 968
18.7199996486306 995
18.7399996481836 970
18.7599996477366 1005
18.7799996472895 957
18.7999996468425 986
18.8199996463954 1012
18.8399996459484 969
18.8599996455014 988
18.8799996450543 997
18.8999996446073 1017
18.9199996441603 1041
18.9399996437132 987
18.9599996432662 1022
18.9799996428192 992
18.9999996423721 1012
19.0199996419251 977
19.0399996414781 1054
19.059999641031 991
19.079999640584 1007
19.099999640137 1007
19.1199996396899 1000
19.1399996392429 1040
19.1599996387959 1040
19.1799996383488 1093
19.1999996379018 1033
19.2199996374547 1041
19.2399996370077 1055
19.2599996365607 1013
19.2799996361136 1022
19.2999996356666 1038
19.3199996352196 1107
19.3399996347725 1077
19.3599996343255 1053
19.3799996338785 1057
19.3999996334314 1018
19.4199996329844 968
19.4399996325374 1094
19.4599996320903 1009
19.4799996316433 1045
19.4999996311963 1072
19.5199996307492 1116
19.5399996303022 1103
19.5599996298552 1134
19.5799996294081 1087
19.5999996289611 1063
19.6199996285141 1211
19.639999628067 1129
19.65999962762 1154
19.6799996271729 1193
19.6999996267259 1233
19.7199996262789 1333
19.7399996258318 1456
19.7599996253848 1483
19.7799996249378 1502
19.7999996244907 1500
19.8199996240437 1538
19.8399996235967 1470
19.8599996231496 1398
19.8799996227026 1443
19.8999996222556 1440
19.9199996218085 1331
19.9399996213615 1393
19.9599996209145 1442
19.9799996204674 1446
19.9999996200204 1402
