3 2244
3.01999999955297 2170
3.03999999910593 2004
3.0599999986589 1949
3.07999999821186 1825
3.09999999776483 1783
3.11999999731779 1667
3.13999999687076 1682
3.15999999642372 1684
3.17999999597669 1628
3.19999999552965 1645
3.21999999508262 1548
3.23999999463558 1610
3.25999999418855 1609
3.27999999374151 1572
3.29999999329448 1560
3.31999999284744 1510
3.33999999240041 1537
3.35999999195337 1527
3.37999999150634 1474
3.3999999910593 1492
3.41999999061227 1540
3.43999999016523 1364
3.4599999897182 1443
3.47999998927116 1483
3.49999998882413 1475
3.51999998837709 1420
3.53999998793006 1442
3.55999998748302 1367
3.57999998703599 1343
3.59999998658895 1362
3.61999998614192 1349
3.63999998569489 1335
3.65999998524785 1281
3.67999998480082 1277
3.69999998435378 1306
3.71999998390675 1312
3.73999998345971 1260
3.75999998301268 1262
3.77999998256564 1261
3.79999998211861 1232
3.81999998167157 1232
3.83999998122454 1222
3.8599999807775 1233
3.87999998033047 1256
3.89999997988343 1316
3.9199999794364 1250
3.93999997898936 1230
3.95999997854233 1232
3.97999997809529 1215
3.99999997764826 1140
4.01999997720122 1222
4.03999997675419 1178
4.05999997630715 1217
4.07999997586012 1140
4.09999997541308 1238
4.11999997496605 1201
4.13999997451901 1147
4.15999997407198 1120
4.17999997362494 1189
4.19999997317791 1158
4.21999997273087 1107
4.23999997228384 1130
4.25999997183681 1163
4.27999997138977 1136
4.29999997094274 1155
4.3199999704957 1123
4.33999997004867 1147
4.35999996960163 1099
4.3799999691546 1132
4.39999996870756 1110
4.41999996826053 1034
4.43999996781349 1079
4.45999996736646 1129
4.47999996691942 1068
4.49999996647239 1090
4.51999996602535 1084
4.53999996557832 1028
4.55999996513128 1092
4.57999996468425 1115
4.59999996423721 1011
4.61999996379018 1097
4.63999996334314 1078
4.65999996289611 1078
4.67999996244907 1069
4.69999996200204 1039
4.719999961555 1040
4.73999996110797 1082
4.75999996066093 1057
4.7799999602139 1102
4.79999995976686 1038
4.81999995931983 1013
4.83999995887279 1038
4.85999995842576 1067
4.87999995797873 1068
4.89999995753169 980
4.91999995708466 1092
4.93999995663762 1065
4.95999995619059 1021
4.97999995574355 1066
4.99999995529652 1069
5.01999995484948 1055
5.03999995440245 1081
5.05999995395541 977
5.07999995350838 1015
5.09999995306134 1007
5.11999995261431 1012
5.13999995216727 1008
5.15999995172024 1034
5.1799999512732 1053
5.19999995082617 964
5.21999995037913 1040
5.2399999499321 1090
5.25999994948506 1010
5.27999994903803 1099
5.29999994859099 1131
5.31999994814396 1053
5.33999994769692 991
5.35999994724989 1028
5.37999994680285 1009
5.39999994635582 1011
5.41999994590878 1015
5.43999994546175 1065
5.45999994501471 1035
5.47999994456768 1059
5.49999994412065 1031
5.51999994367361 957
5.53999994322658 1103
5.55999994277954 1035
5.57999994233251 1030
5.59999994188547 1091
5.61999994143844 979
5.6399999409914 1037
5.65999994054437 1091
5.67999994009733 1004
5.6999999396503 1027
5.71999993920326 1028
5.73999993875623 1009
5.75999993830919 1072
5.77999993786216 1001
5.79999993741512 1105
5.81999993696809 1116
5.83999993652105 1043
5.85999993607402 1030
5.87999993562698 1011
5.89999993517995 1085
5.91999993473291 1045
5.93999993428588 1019
5.95999993383884 1072
5.97999993339181 975
5.99999993294477 1087
6.01999993249774 1053
6.0399999320507 1091
6.05999993160367 1024
6.07999993115663 1005
6.0999999307096 1020
6.11999993026257 1069
6.13999992981553 1021
6.1599999293685 995
6.17999992892146 1002
6.19999992847443 995
6.21999992802739 1023
6.23999992758036 1066
6.25999992713332 1064
6.27999992668629 1049
6.29999992623925 1019
6.31999992579222 1011
6.33999992534518 998
6.35999992489815 1066
6.37999992445111 1036
6.39999992400408 1098
6.41999992355704 1050
6.43999992311001 1051
6.45999992266297 1008
6.47999992221594 1081
6.4999999217689 1031
6.51999992132187 1032
6.53999992087483 1043
6.5599999204278 1093
6.57999991998076 1072
6.59999991953373 1015
6.61999991908669 1044
6.63999991863966 1053
6.65999991819262 1056
6.67999991774559 1015
6.69999991729855 1088
6.71999991685152 1059
6.73999991640449 1060
6.75999991595745 1055
6.77999991551042 1042
6.79999991506338 1020
6.81999991461635 1066
6.83999991416931 1052
6.85999991372228 1039
6.87999991327524 1074
6.89999991282821 1056
6.91999991238117 1005
6.93999991193414 968
6.9599999114871 1029
6.97999991104007 1052
6.99999991059303 1007
7.019999910146 1054
7.03999990969896 1023
7.05999990925193 1091
7.07999990880489 1057
7.09999990835786 1075
7.11999990791082 1076
7.13999990746379 989
7.15999990701675 958
7.17999990656972 1034
7.19999990612268 998
7.21999990567565 1036
7.23999990522861 1030
7.25999990478158 1051
7.27999990433454 1030
7.29999990388751 1044
7.31999990344047 1019
7.33999990299344 1028
7.35999990254641 1048
7.37999990209937 1052
7.39999990165234 1055
7.4199999012053 1036
7.43999990075827 998
7.45999990031123 988
7.4799998998642 1069
7.49999989941716 1039
7.51999989897013 1056
7.53999989852309 1043
7.55999989807606 1059
7.57999989762902 980
7.59999989718199 1106
7.61999989673495 1048
7.63999989628792 1041
7.65999989584088 1061
7.67999989539385 1054
7.69999989494681 1035
7.71999989449978 1029
7.73999989405274 1002
7.75999989360571 998
7.77999989315867 1079
7.79999989271164 1036
7.8199998922646 1023
7.83999989181757 1048
7.85999989137053 1030
7.8799998909235 1036
7.89999989047646 987
7.91999989002943 1036
7.9399998895824 1028
7.95999988913536 1012
7.97999988868833 978
7.99999988824129 985
8.01999988779426 1013
8.03999988734722 1043
8.05999988690019 993
8.07999988645315 1023
8.09999988600612 1019
8.11999988555908 1021
8.13999988511205 992
8.15999988466501 1049
8.17999988421798 985
8.19999988377094 1026
8.21999988332391 992
8.23999988287687 939
8.25999988242984 984
8.2799998819828 990
8.29999988153577 981
8.31999988108873 984
8.3399998806417 965
8.35999988019466 1036
8.37999987974763 983
8.39999987930059 993
8.41999987885356 1000
8.43999987840652 951
8.45999987795949 974
8.47999987751245 973
8.49999987706542 933
8.51999987661839 979
8.53999987617135 1042
8.55999987572432 946
8.57999987527728 994
8.59999987483025 980
8.61999987438321 1005
8.63999987393618 950
8.65999987348914 966
8.67999987304211 918
8.69999987259507 961
8.71999987214804 1019
8.739999871701 920
8.75999987125397 964
8.77999987080693 899
8.7999998703599 967
8.81999986991286 938
8.83999986946583 956
8.85999986901879 943
8.87999986857176 976
8.89999986812472 959
8.91999986767769 965
8.93999986723065 998
8.95999986678362 929
8.97999986633658 1011
8.99999986588955 948
9.01999986544251 959
9.03999986499548 945
9.05999986454844 946
9.07999986410141 923
9.09999986365438 895
9.11999986320734 923
9.13999986276031 915
9.15999986231327 909
9.17999986186624 956
9.1999998614192 942
9.21999986097217 891
9.23999986052513 966
9.2599998600781 951
9.27999985963106 942
9.29999985918403 904
9.31999985873699 905
9.33999985828996 901
9.35999985784292 944
9.37999985739589 924
9.39999985694885 905
9.41999985650182 929
9.43999985605478 886
9.45999985560775 879
9.47999985516071 910
9.49999985471368 854
9.51999985426664 870
9.53999985381961 843
9.55999985337257 917
9.57999985292554 856
9.5999998524785 886
9.61999985203147 877
9.63999985158443 862
9.6599998511374 872
9.67999985069037 895
9.69999985024333 885
9.7199998497963 892
9.73999984934926 816
9.75999984890223 861
9.77999984845519 863
9.79999984800816 890
9.81999984756112 842
9.83999984711409 849
9.85999984666705 863
9.87999984622002 834
9.89999984577298 889
9.91999984532595 845
9.93999984487891 863
9.95999984443188 860
9.97999984398484 840
9.99999984353781 846
10.0199998430908 849
10.0399998426437 859
10.0599998421967 818
10.0799998417497 892
10.0999998413026 853
10.1199998408556 861
10.1399998404086 832
10.1599998399615 810
10.1799998395145 801
10.1999998390675 856
10.2199998386204 831
10.2399998381734 875
10.2599998377264 831
10.2799998372793 847
10.2999998368323 771
10.3199998363853 843
10.3399998359382 857
10.3599998354912 861
10.3799998350441 874
10.3999998345971 827
10.4199998341501 814
10.439999833703 802
10.459999833256 809
10.479999832809 801
10.4999998323619 828
10.5199998319149 823
10.5399998314679 816
10.5599998310208 780
10.5799998305738 799
10.5999998301268 832
10.6199998296797 844
10.6399998292327 827
10.6599998287857 807
10.6799998283386 772
10.6999998278916 778
10.7199998274446 845
10.7399998269975 865
10.7599998265505 816
10.7799998261034 755
10.7999998256564 824
10.8199998252094 774
10.8399998247623 740
10.8599998243153 806
10.8799998238683 780
10.8999998234212 845
10.9199998229742 825
10.9399998225272 843
10.9599998220801 769
10.9799998216331 803
10.9999998211861 791
11.019999820739 792
11.039999820292 738
11.059999819845 794
11.0799998193979 774
11.0999998189509 722
11.1199998185039 759
11.1399998180568 732
11.1599998176098 776
11.1799998171628 822
11.1999998167157 792
11.2199998162687 773
11.2399998158216 747
11.2599998153746 766
11.2799998149276 793
11.2999998144805 784
11.3199998140335 760
11.3399998135865 766
11.3599998131394 749
11.3799998126924 775
11.3999998122454 764
11.4199998117983 735
11.4399998113513 752
11.4599998109043 725
11.4799998104572 717
11.4999998100102 774
11.5199998095632 728
11.5399998091161 751
11.5599998086691 789
11.5799998082221 766
11.599999807775 781
11.619999807328 743
11.639999806881 784
11.6599998064339 817
11.6799998059869 763
11.6999998055398 798
11.7199998050928 722
11.7399998046458 776
11.7599998041987 685
11.7799998037517 731
11.7999998033047 752
11.8199998028576 705
11.8399998024106 771
11.8599998019636 755
11.8799998015165 741
11.8999998010695 762
11.9199998006225 763
11.9399998001754 743
11.9599997997284 761
11.9799997992814 752
11.9999997988343 721
12.0199997983873 751
12.0399997979403 773
12.0599997974932 775
12.0799997970462 783
12.0999997965992 735
12.1199997961521 757
12.1399997957051 755
12.159999795258 731
12.179999794811 738
12.199999794364 764
12.2199997939169 728
12.2399997934699 729
12.2599997930229 726
12.2799997925758 768
12.2999997921288 703
12.3199997916818 723
12.3399997912347 756
12.3599997907877 794
12.3799997903407 745
12.3999997898936 739
12.4199997894466 781
12.4399997889996 760
12.4599997885525 763
12.4799997881055 753
12.4999997876585 817
12.5199997872114 731
12.5399997867644 785
12.5599997863173 787
12.5799997858703 745
12.5999997854233 755
12.6199997849762 756
12.6399997845292 803
12.6599997840822 753
12.6799997836351 729
12.6999997831881 809
12.7199997827411 799
12.739999782294 785
12.759999781847 786
12.7799997814 790
12.7999997809529 791
12.8199997805059 731
12.8399997800589 709
12.8599997796118 733
12.8799997791648 799
12.8999997787178 742
12.9199997782707 820
12.9399997778237 807
12.9599997773767 765
12.9799997769296 756
12.9999997764826 732
13.0199997760355 790
13.0399997755885 763
13.0599997751415 778
13.0799997746944 779
13.0999997742474 785
13.1199997738004 726
13.1399997733533 787
13.1599997729063 742
13.1799997724593 766
13.1999997720122 807
13.2199997715652 802
13.2399997711182 819
13.2599997706711 782
13.2799997702241 845
13.2999997697771 886
13.31999976933 837
13.339999768883 781
13.359999768436 758
13.3799997679889 803
13.3999997675419 773
13.4199997670949 729
13.4399997666478 802
13.4599997662008 779
13.4799997657537 801
13.4999997653067 805
13.5199997648597 814
13.5399997644126 779
13.5599997639656 809
13.5799997635186 811
13.5999997630715 784
13.6199997626245 788
13.6399997621775 763
13.6599997617304 794
13.6799997612834 807
13.6999997608364 826
13.7199997603893 744
13.7399997599423 789
13.7599997594953 772
13.7799997590482 819
13.7999997586012 778
13.8199997581542 762
13.8399997577071 814
13.8599997572601 824
13.879999756813 791
13.899999756366 805
13.919999755919 813
13.9399997554719 864
13.9599997550249 798
13.9799997545779 804
13.9999997541308 799
14.0199997536838 850
14.0399997532368 764
14.0599997527897 827
14.0799997523427 819
14.0999997518957 817
14.1199997514486 822
14.1399997510016 823
14.1599997505546 858
14.1799997501075 830
14.1999997496605 807
14.2199997492135 801
14.2399997487664 814
14.2599997483194 830
14.2799997478724 869
14.2999997474253 866
14.3199997469783 868
14.3399997465312 830
14.3599997460842 817
14.3799997456372 800
14.3999997451901 835
14.4199997447431 863
14.4399997442961 813
14.459999743849 841
14.479999743402 860
14.499999742955 867
14.5199997425079 823
14.5399997420609 830
14.5599997416139 815
14.5799997411668 813
14.5999997407198 845
14.6199997402728 830
14.6399997398257 826
14.6599997393787 872
14.6799997389317 870
14.6999997384846 850
14.7199997380376 844
14.7399997375906 902
14.7599997371435 878
14.7799997366965 891
14.7999997362494 898
14.8199997358024 907
14.8399997353554 914
14.8599997349083 836
14.8799997344613 847
14.8999997340143 854
14.9199997335672 873
14.9399997331202 885
14.9599997326732 927
14.9799997322261 892
14.9999997317791 863
15.0199997313321 896
15.039999730885 874
15.059999730438 881
15.079999729991 886
15.0999997295439 882
15.1199997290969 891
15.1399997286499 944
15.1599997282028 935
15.1799997277558 950
15.1999997273088 948
15.2199997268617 907
15.2399997264147 952
15.2599997259676 934
15.2799997255206 877
15.2999997250736 937
15.3199997246265 931
15.3399997241795 909
15.3599997237325 940
15.3799997232854 948
15.3999997228384 941
15.4199997223914 926
15.4399997219443 943
15.4599997214973 924
15.4799997210503 942
15.4999997206032 947
15.5199997201562 972
15.5399997197092 984
15.5599997192621 976
15.5799997188151 982
15.5999997183681 932
15.619999717921 928
15.639999717474 1004
15.659999717027 943
15.6799997165799 925
15.6999997161329 954
15.7199997156858 904
15.7399997152388 953
15.7599997147918 977
15.7799997143447 979
15.7999997138977 996
15.8199997134507 986
15.8399997130036 952
15.8599997125566 963
15.8799997121096 912
15.8999997116625 968
15.9199997112155 1000
15.9399997107685 975
15.9599997103214 976
15.9799997098744 1022
15.9999997094274 1034
16.0199997089803 1022
16.0399997085333 1037
16.0599997080863 1039
16.0799997076392 1015
16.0999997071922 1018
16.1199997067451 1001
16.1399997062981 951
16.1599997058511 1014
16.179999705404 990
16.199999704957 983
16.21999970451 1048
16.2399997040629 1037
16.2599997036159 1074
16.2799997031689 1043
16.2999997027218 1040
16.3199997022748 1036
16.3399997018278 1082
16.3599997013807 1102
16.3799997009337 1065
16.3999997004867 1055
16.4199997000396 1068
16.4399996995926 1062
16.4599996991456 1066
16.4799996986985 1133
16.4999996982515 1063
16.5199996978045 1204
16.5399996973574 1081
16.5599996969104 1120
16.5799996964633 1200
16.5999996960163 1124
16.6199996955693 1212
16.6399996951222 1172
16.6599996946752 1235
16.6799996942282 1190
16.6999996937811 1274
16.7199996933341 1377
16.7399996928871 1337
16.75999969244 1416
16.779999691993 1508
16.799999691546 1685
16.8199996910989 1807
16.8399996906519 2092
16.8599996902049 2322
16.8799996897578 2519
16.8999996893108 2559
16.9199996888638 2510
16.9399996884167 2574
16.9599996879697 2539
16.9799996875226 2791
16.9999996870756 3024
17.0199996866286 3229
17.0399996861815 2849
17.0599996857345 2389
17.0799996852875 1913
17.0999996848404 1535
17.1199996843934 1292
17.1399996839464 1244
17.1599996834993 1281
17.1799996830523 1285
17.1999996826053 1150
17.2199996821582 1286
17.2399996817112 1231
17.2599996812642 1197
17.2799996808171 1182
17.2999996803701 1248
17.3199996799231 1208
17.339999679476 1175
17.359999679029 1227
17.379999678582 1242
17.3999996781349 1204
17.4199996776879 1198
17.4399996772408 1278
17.4599996767938 1282
17.4799996763468 1171
17.4999996758997 1238
17.5199996754527 1238
17.5399996750057 1300
17.5599996745586 1302
17.5799996741116 1173
17.5999996736646 1193
17.6199996732175 1178
17.6399996727705 1255
17.6599996723235 1257
17.6799996718764 1292
17.6999996714294 1263
17.7199996709824 1275
17.7399996705353 1261
17.7599996700883 1232
17.7799996696413 1283
17.7999996691942 1325
17.8199996687472 1373
17.8399996683002 1327
17.8599996678531 1311
17.8799996674061 1310
17.899999666959 1255
17.919999666512 1334
17.939999666065 1280
17.9599996656179 1341
17.9799996651709 1297
17.9999996647239 1331
18.0199996642768 1298
18.0399996638298 1334
18.0599996633828 1323
18.0799996629357 1280
18.0999996624887 1290
18.1199996620417 1322
18.1399996615946 1381
18.1599996611476 1275
18.1799996607006 1325
18.1999996602535 1365
18.2199996598065 1380
18.2399996593595 1408
18.2599996589124 1380
18.2799996584654 1387
18.2999996580184 1369
18.3199996575713 1369
18.3399996571243 1423
18.3599996566772 1370
18.3799996562302 1399
18.3999996557832 1422
18.4199996553361 1349
18.4399996548891 1339
18.4599996544421 1397
18.479999653995 1460
18.499999653548 1364
18.519999653101 1424
18.5399996526539 1406
18.5599996522069 1491
18.5799996517599 1402
18.5999996513128 1471
18.6199996508658 1396
18.6399996504188 1445
18.6599996499717 1365
18.6799996495247 1462
18.6999996490777 1444
18.7199996486306 1465
18.7399996481836 1384
18.7599996477366 1437
18.7799996472895 1474
18.7999996468425 1488
18.8199996463954 1486
18.8399996459484 1433
18.8599996455014 1489
18.8799996450543 1498
18.8999996446073 1442
18.9199996441603 1481
18.9399996437132 1438
18.9599996432662 1429
18.9799996428192 1412
18.9999996423721 1485
19.0199996419251 1579
19.0399996414781 1500
19.059999641031 1468
19.079999640584 1603
19.099999640137 1497
19.1199996396899 1460
19.1399996392429 1509
19.1599996387959 1457
19.1799996383488 1506
19.1999996379018 1522
19.2199996374547 1539
19.2399996370077 1535
19.2599996365607 1486
19.2799996361136 1493
19.2999996356666 1524
19.3199996352196 1572
19.3399996347725 1480
19.3599996343255 1531
19.3799996338785 1520
19.3999996334314 1496
19.4199996329844 1497
19.4399996325374 1528
19.4599996320903 1542
19.4799996316433 1502
19.4999996311963 1538
19.5199996307492 1568
19.5399996303022 1561
19.5599996298552 1537
19.5799996294081 1602
19.5999996289611 1580
19.6199996285141 1542
19.639999628067 1553
19.65999962762 1583
19.6799996271729 1589
19.6999996267259 1579
19.7199996262789 1599
19.7399996258318 1537
19.7599996253848 1510
19.7799996249378 1645
19.7999996244907 1553
19.8199996240437 1589
19.8399996235967 1613
19.8599996231496 1601
19.8799996227026 1674
19.8999996222556 1600
19.9199996218085 1574
19.9399996213615 1606
19.9599996209145 1586
19.9799996204674 1579
19.9999996200204 1580
