3 2049
3.01999999955297 1960
3.03999999910593 1725
3.0599999986589 1634
3.07999999821186 1509
3.09999999776483 1500
3.11999999731779 1420
3.13999999687076 1367
3.15999999642372 1363
3.17999999597669 1389
3.19999999552965 1367
3.21999999508262 1283
3.23999999463558 1340
3.25999999418855 1295
3.27999999374151 1270
3.29999999329448 1237
3.31999999284744 1275
3.33999999240041 1181
3.35999999195337 1197
3.37999999150634 1190
3.3999999910593 1180
3.41999999061227 1168
3.43999999016523 1181
3.4599999897182 1176
3.47999998927116 1094
3.49999998882413 1131
3.51999998837709 1060
3.53999998793006 1033
3.55999998748302 1125
3.57999998703599 1041
3.59999998658895 1025
3.61999998614192 1032
3.63999998569489 1069
3.65999998524785 1090
3.67999998480082 1016
3.69999998435378 1068
3.71999998390675 1014
3.73999998345971 960
3.75999998301268 999
3.77999998256564 981
3.79999998211861 991
3.81999998167157 993
3.83999998122454 952
3.8599999807775 911
3.87999998033047 991
3.89999997988343 950
3.9199999794364 969
3.93999997898936 965
3.95999997854233 943
3.97999997809529 886
3.99999997764826 927
4.01999997720122 881
4.03999997675419 903
4.05999997630715 870
4.07999997586012 924
4.09999997541308 825
4.11999997496605 876
4.13999997451901 879
4.15999997407198 841
4.17999997362494 870
4.19999997317791 811
4.21999997273087 825
4.23999997228384 841
4.25999997183681 795
4.27999997138977 766
4.29999997094274 793
4.3199999704957 864
4.33999997004867 795
4.35999996960163 818
4.3799999691546 820
4.39999996870756 782
4.41999996826053 813
4.43999996781349 720
4.45999996736646 799
4.47999996691942 740
4.49999996647239 822
4.51999996602535 791
4.53999996557832 759
4.55999996513128 778
4.57999996468425 762
4.59999996423721 722
4.61999996379018 774
4.63999996334314 718
4.65999996289611 742
4.67999996244907 704
4.69999996200204 719
4.719999961555 746
4.73999996110797 689
4.75999996066093 718
4.7799999602139 802
4.79999995976686 748
4.81999995931983 724
4.83999995887279 755
4.85999995842576 724
4.87999995797873 690
4.89999995753169 718
4.91999995708466 662
4.93999995663762 767
4.95999995619059 736
4.97999995574355 717
4.99999995529652 701
5.01999995484948 705
5.03999995440245 728
5.05999995395541 706
5.07999995350838 763
5.09999995306134 725
5.11999995261431 730
5.13999995216727 698
5.15999995172024 693
5.1799999512732 699
5.19999995082617 718
5.21999995037913 694
5.2399999499321 706
5.25999994948506 680
5.27999994903803 743
5.29999994859099 751
5.31999994814396 700
5.33999994769692 679
5.35999994724989 698
5.37999994680285 655
5.39999994635582 717
5.41999994590878 714
5.43999994546175 746
5.45999994501471 711
5.47999994456768 683
5.49999994412065 696
5.51999994367361 711
5.53999994322658 646
5.55999994277954 710
5.57999994233251 752
5.59999994188547 713
5.61999994143844 741
5.6399999409914 716
5.65999994054437 696
5.67999994009733 670
5.6999999396503 711
5.71999993920326 718
5.73999993875623 718
5.75999993830919 732
5.77999993786216 692
5.79999993741512 676
5.81999993696809 806
5.83999993652105 766
5.85999993607402 710
5.87999993562698 805
5.89999993517995 754
5.91999993473291 769
5.93999993428588 768
5.95999993383884 763
5.97999993339181 743
5.99999993294477 783
6.01999993249774 740
6.0399999320507 756
6.05999993160367 776
6.07999993115663 751
6.0999999307096 772
6.11999993026257 806
6.13999992981553 818
6.1599999293685 863
6.17999992892146 832
6.19999992847443 865
6.21999992802739 884
6.23999992758036 881
6.25999992713332 872
6.27999992668629 907
6.29999992623925 927
6.31999992579222 942
6.33999992534518 922
6.35999992489815 959
6.37999992445111 958
6.39999992400408 1021
6.41999992355704 1033
6.43999992311001 1062
6.45999992266297 1047
6.47999992221594 1094
6.4999999217689 1141
6.51999992132187 1218
6.53999992087483 1216
6.5599999204278 1187
6.57999991998076 1191
6.59999991953373 1113
6.61999991908669 1154
6.63999991863966 1116
6.65999991819262 1113
6.67999991774559 1124
6.69999991729855 1163
6.71999991685152 1046
6.73999991640449 1066
6.75999991595745 1065
6.77999991551042 979
6.79999991506338 995
6.81999991461635 970
6.83999991416931 973
6.85999991372228 993
6.87999991327524 948
6.89999991282821 914
6.91999991238117 979
6.93999991193414 907
6.9599999114871 965
6.97999991104007 933
6.99999991059303 882
7.019999910146 903
7.03999990969896 951
7.05999990925193 925
7.07999990880489 883
7.09999990835786 898
7.11999990791082 831
7.13999990746379 846
7.15999990701675 880
7.17999990656972 891
7.19999990612268 880
7.21999990567565 887
7.23999990522861 853
7.25999990478158 861
7.27999990433454 857
7.29999990388751 919
7.31999990344047 854
7.33999990299344 859
7.35999990254641 873
7.37999990209937 825
7.39999990165234 841
7.4199999012053 952
7.43999990075827 881
7.45999990031123 932
7.4799998998642 844
7.49999989941716 833
7.51999989897013 874
7.53999989852309 921
7.55999989807606 905
7.57999989762902 862
7.59999989718199 879
7.61999989673495 831
7.63999989628792 869
7.65999989584088 851
7.67999989539385 817
7.69999989494681 821
7.71999989449978 888
7.73999989405274 869
7.75999989360571 892
7.77999989315867 895
7.79999989271164 869
7.8199998922646 814
7.83999989181757 877
7.85999989137053 918
7.8799998909235 865
7.89999989047646 943
7.91999989002943 867
7.9399998895824 825
7.95999988913536 861
7.97999988868833 846
7.99999988824129 832
8.01999988779426 874
8.03999988734722 858
8.05999988690019 839
8.07999988645315 853
8.09999988600612 861
8.11999988555908 891
8.13999988511205 896
8.15999988466501 903
8.17999988421798 876
8.19999988377094 887
8.21999988332391 886
8.23999988287687 839
8.25999988242984 874
8.2799998819828 915
8.29999988153577 926
8.31999988108873 893
8.3399998806417 911
8.35999988019466 897
8.37999987974763 897
8.39999987930059 918
8.41999987885356 945
8.43999987840652 991
8.45999987795949 920
8.47999987751245 939
8.49999987706542 971
8.51999987661839 978
8.53999987617135 980
8.55999987572432 1021
8.57999987527728 1091
8.59999987483025 1057
8.61999987438321 1077
8.63999987393618 1086
8.65999987348914 1164
8.67999987304211 1195
8.69999987259507 1209
8.71999987214804 1246
8.739999871701 1314
8.75999987125397 1328
8.77999987080693 1373
8.7999998703599 1448
8.81999986991286 1587
8.83999986946583 1689
8.85999986901879 1691
8.87999986857176 1916
8.89999986812472 2179
8.91999986767769 2402
8.93999986723065 2718
8.95999986678362 3037
8.97999986633658 3221
8.99999986588955 3318
9.01999986544251 2934
9.03999986499548 2615
9.05999986454844 2408
9.07999986410141 2155
9.09999986365438 1971
9.11999986320734 1891
9.13999986276031 1787
9.15999986231327 1738
9.17999986186624 1671
9.1999998614192 1607
9.21999986097217 1558
9.23999986052513 1546
9.2599998600781 1502
9.27999985963106 1486
9.29999985918403 1487
9.31999985873699 1504
9.33999985828996 1368
9.35999985784292 1364
9.37999985739589 1339
9.39999985694885 1404
9.41999985650182 1303
9.43999985605478 1266
9.45999985560775 1301
9.47999985516071 1248
9.49999985471368 1292
9.51999985426664 1267
9.53999985381961 1253
9.55999985337257 1263
9.57999985292554 1258
9.5999998524785 1246
9.61999985203147 1312
9.63999985158443 1259
9.6599998511374 1308
9.67999985069037 1242
9.69999985024333 1274
9.7199998497963 1278
9.73999984934926 1396
9.75999984890223 1321
9.77999984845519 1384
9.79999984800816 1373
9.81999984756112 1371
9.83999984711409 1431
9.85999984666705 1474
9.87999984622002 1462
9.89999984577298 1504
9.91999984532595 1553
9.93999984487891 1652
9.95999984443188 1602
9.97999984398484 1626
9.99999984353781 1548
10.0199998430908 1592
10.0399998426437 1599
10.0599998421967 1613
10.0799998417497 1581
10.0999998413026 1566
10.1199998408556 1459
10.1399998404086 1566
10.1599998399615 1488
10.1799998395145 1397
10.1999998390675 1359
10.2199998386204 1371
10.2399998381734 1437
10.2599998377264 1318
10.2799998372793 1349
10.2999998368323 1281
10.3199998363853 1286
10.3399998359382 1273
10.3599998354912 1229
10.3799998350441 1243
10.3999998345971 1307
10.4199998341501 1272
10.439999833703 1287
10.459999833256 1242
10.479999832809 1165
10.4999998323619 1244
10.5199998319149 1247
10.5399998314679 1251
10.5599998310208 1245
10.5799998305738 1234
10.5999998301268 1274
10.6199998296797 1258
10.6399998292327 1263
10.6599998287857 1247
10.6799998283386 1302
10.6999998278916 1230
10.7199998274446 1272
10.7399998269975 1287
10.7599998265505 1273
10.7799998261034 1308
10.7999998256564 1309
10.8199998252094 1285
10.8399998247623 1337
10.8599998243153 1292
10.8799998238683 1310
10.8999998234212 1369
10.9199998229742 1365
10.9399998225272 1343
10.9599998220801 1347
10.9799998216331 1362
10.9999998211861 1344
11.019999820739 1266
11.039999820292 1280
11.059999819845 1296
11.0799998193979 1246
11.0999998189509 1234
11.1199998185039 1127
11.1399998180568 1136
11.1599998176098 1114
11.1799998171628 1122
11.1999998167157 1041
11.2199998162687 1055
11.2399998158216 1016
11.2599998153746 962
11.2799998149276 953
11.2999998144805 962
11.3199998140335 967
11.3399998135865 923
11.3599998131394 930
11.3799998126924 893
11.3999998122454 899
11.4199998117983 895
11.4399998113513 901
11.4599998109043 821
11.4799998104572 826
11.4999998100102 841
11.5199998095632 846
11.5399998091161 825
11.5599998086691 760
11.5799998082221 786
11.599999807775 834
11.619999807328 842
11.639999806881 804
11.6599998064339 792
11.6799998059869 778
11.6999998055398 788
11.7199998050928 797
11.7399998046458 790
11.7599998041987 781
11.7799998037517 798
11.7999998033047 763
11.8199998028576 764
11.8399998024106 761
11.8599998019636 797
11.8799998015165 770
11.8999998010695 788
11.9199998006225 796
11.9399998001754 793
11.9599997997284 796
11.9799997992814 799
11.9999997988343 763
12.0199997983873 757
12.0399997979403 735
12.0599997974932 829
12.0799997970462 772
12.0999997965992 783
12.1199997961521 786
12.1399997957051 816
12.159999795258 789
12.179999794811 759
12.199999794364 859
12.2199997939169 793
12.2399997934699 786
12.2599997930229 781
12.2799997925758 822
12.2999997921288 827
12.3199997916818 774
12.3399997912347 791
12.3599997907877 851
12.3799997903407 875
12.3999997898936 915
12.4199997894466 973
12.4399997889996 865
12.4599997885525 897
12.4799997881055 952
12.4999997876585 980
12.5199997872114 1074
12.5399997867644 1149
12.5599997863173 1220
12.5799997858703 1375
12.5999997854233 1427
12.6199997849762 1582
12.6399997845292 1730
12.6599997840822 1770
12.6799997836351 1822
12.6999997831881 1718
12.7199997827411 1714
12.739999782294 1477
12.759999781847 1353
12.7799997814 1212
12.7999997809529 1207
12.8199997805059 1097
12.8399997800589 1020
12.8599997796118 985
12.8799997791648 1019
12.8999997787178 971
12.9199997782707 987
12.9399997778237 935
12.9599997773767 966
12.9799997769296 948
12.9999997764826 904
13.0199997760355 954
13.0399997755885 865
13.0599997751415 921
13.0799997746944 879
13.0999997742474 913
13.1199997738004 916
13.1399997733533 879
13.1599997729063 932
13.1799997724593 900
13.1999997720122 851
13.2199997715652 893
13.2399997711182 840
13.2599997706711 845
13.2799997702241 834
13.2999997697771 887
13.31999976933 847
13.339999768883 897
13.359999768436 852
13.3799997679889 862
13.3999997675419 851
13.4199997670949 890
13.4399997666478 799
13.4599997662008 892
13.4799997657537 903
13.4999997653067 894
13.5199997648597 833
13.5399997644126 837
13.5599997639656 856
13.5799997635186 870
13.5999997630715 809
13.6199997626245 878
13.6399997621775 845
13.6599997617304 800
13.6799997612834 844
13.6999997608364 859
13.7199997603893 879
13.7399997599423 844
13.7599997594953 839
13.7799997590482 820
13.7999997586012 819
13.8199997581542 849
13.8399997577071 865
13.8599997572601 870
13.879999756813 825
13.899999756366 851
13.919999755919 880
13.9399997554719 822
13.9599997550249 843
13.9799997545779 860
13.9999997541308 900
14.0199997536838 857
14.0399997532368 873
14.0599997527897 886
14.0799997523427 880
14.0999997518957 867
14.1199997514486 844
14.1399997510016 885
14.1599997505546 888
14.1799997501075 850
14.1999997496605 951
14.2199997492135 882
14.2399997487664 867
14.2599997483194 861
14.2799997478724 921
14.2999997474253 905
14.3199997469783 919
14.3399997465312 860
14.3599997460842 879
14.3799997456372 863
14.3999997451901 890
14.4199997447431 896
14.4399997442961 867
14.459999743849 873
14.479999743402 887
14.499999742955 909
14.5199997425079 894
14.5399997420609 874
14.5599997416139 889
14.5799997411668 921
14.5999997407198 855
14.6199997402728 869
14.6399997398257 909
14.6599997393787 794
14.6799997389317 896
14.6999997384846 864
14.7199997380376 799
14.7399997375906 855
14.7599997371435 846
14.7799997366965 838
14.7999997362494 819
14.8199997358024 833
14.8399997353554 812
14.8599997349083 876
14.8799997344613 902
14.8999997340143 864
14.9199997335672 869
14.9399997331202 879
14.9599997326732 886
14.9799997322261 858
14.9999997317791 840
15.0199997313321 917
15.039999730885 879
15.059999730438 864
15.079999729991 893
15.0999997295439 870
15.1199997290969 886
15.1399997286499 835
15.1599997282028 893
15.1799997277558 849
15.1999997273088 854
15.2199997268617 865
15.2399997264147 866
15.2599997259676 894
15.2799997255206 891
15.2999997250736 843
15.3199997246265 877
15.3399997241795 876
15.3599997237325 905
15.3799997232854 860
15.3999997228384 866
15.4199997223914 865
15.4399997219443 890
15.4599997214973 845
15.4799997210503 894
15.4999997206032 872
15.5199997201562 876
15.5399997197092 878
15.5599997192621 880
15.5799997188151 929
15.5999997183681 852
15.619999717921 860
15.639999717474 905
15.659999717027 834
15.6799997165799 884
15.6999997161329 933
15.7199997156858 899
15.7399997152388 885
15.7599997147918 938
15.7799997143447 863
15.7999997138977 887
15.8199997134507 953
15.8399997130036 877
15.8599997125566 874
15.8799997121096 854
15.8999997116625 894
15.9199997112155 923
15.9399997107685 874
15.9599997103214 949
15.9799997098744 893
15.9999997094274 902
16.0199997089803 882
16.0399997085333 903
16.0599997080863 935
16.0799997076392 946
16.0999997071922 959
16.1199997067451 915
16.1399997062981 834
16.1599997058511 933
16.179999705404 913
16.199999704957 945
16.21999970451 897
16.2399997040629 969
16.2599997036159 993
16.2799997031689 905
16.2999997027218 955
16.3199997022748 936
16.3399997018278 963
16.3599997013807 973
16.3799997009337 993
16.3999997004867 919
16.4199997000396 949
16.4399996995926 950
16.4599996991456 1000
16.4799996986985 1011
16.4999996982515 931
16.5199996978045 975
16.5399996973574 964
16.5599996969104 1021
16.5799996964633 960
16.5999996960163 985
16.6199996955693 943
16.6399996951222 969
16.6599996946752 962
16.6799996942282 978
16.6999996937811 1044
16.7199996933341 1034
16.7399996928871 983
16.75999969244 1019
16.779999691993 1016
16.799999691546 1047
16.8199996910989 1075
16.8399996906519 1077
16.8599996902049 1162
16.8799996897578 1214
16.8999996893108 1281
16.9199996888638 1358
16.9399996884167 1442
16.9599996879697 1560
16.9799996875226 1703
16.9999996870756 1910
17.0199996866286 2083
17.0399996861815 2201
17.0599996857345 2136
17.0799996852875 1928
17.0999996848404 1675
17.1199996843934 1454
17.1399996839464 1256
17.1599996834993 1206
17.1799996830523 1154
17.1999996826053 1096
17.2199996821582 1142
17.2399996817112 1113
17.2599996812642 1052
17.2799996808171 1066
17.2999996803701 1039
17.3199996799231 1039
17.339999679476 1060
17.359999679029 1048
17.379999678582 1082
17.3999996781349 1055
17.4199996776879 1106
17.4399996772408 1084
17.4599996767938 1087
17.4799996763468 1142
17.4999996758997 1065
17.5199996754527 1128
17.5399996750057 1068
17.5599996745586 1017
17.5799996741116 1085
17.5999996736646 1093
17.6199996732175 1144
17.6399996727705 1038
17.6599996723235 1092
17.6799996718764 1155
17.6999996714294 1100
17.7199996709824 1153
17.7399996705353 1107
17.7599996700883 1118
17.7799996696413 1148
17.7999996691942 1155
17.8199996687472 1160
17.8399996683002 1204
17.8599996678531 1195
17.8799996674061 1253
17.899999666959 1195
17.919999666512 1200
17.939999666065 1214
17.9599996656179 1140
17.9799996651709 1202
17.9999996647239 1181
18.0199996642768 1173
18.0399996638298 1198
18.0599996633828 1173
18.0799996629357 1185
18.0999996624887 1214
18.1199996620417 1189
18.1399996615946 1254
18.1599996611476 1220
18.1799996607006 1200
18.1999996602535 1241
18.2199996598065 1247
18.2399996593595 1268
18.2599996589124 1216
18.2799996584654 1192
18.2999996580184 1290
18.3199996575713 1226
18.3399996571243 1270
18.3599996566772 1300
18.3799996562302 1334
18.3999996557832 1291
18.4199996553361 1283
18.4399996548891 1330
18.4599996544421 1286
18.479999653995 1252
18.499999653548 1368
18.519999653101 1304
18.5399996526539 1391
18.5599996522069 1277
18.5799996517599 1351
18.5999996513128 1313
18.6199996508658 1343
18.6399996504188 1316
18.6599996499717 1329
18.6799996495247 1311
18.6999996490777 1347
18.7199996486306 1323
18.7399996481836 1342
18.7599996477366 1334
18.7799996472895 1329
18.7999996468425 1350
18.8199996463954 1323
18.8399996459484 1358
18.8599996455014 1372
18.8799996450543 1442
18.8999996446073 1445
18.9199996441603 1468
18.9399996437132 1473
18.9599996432662 1465
18.9799996428192 1422
18.9999996423721 1447
19.0199996419251 1395
19.0399996414781 1456
19.059999641031 1420
19.079999640584 1433
19.099999640137 1456
19.1199996396899 1457
19.1399996392429 1427
19.1599996387959 1518
19.1799996383488 1505
19.1999996379018 1487
19.2199996374547 1465
19.2399996370077 1486
19.2599996365607 1411
19.2799996361136 1428
19.2999996356666 1430
19.3199996352196 1439
19.3399996347725 1467
19.3599996343255 1487
19.3799996338785 1522
19.3999996334314 1484
19.4199996329844 1491
19.4399996325374 1414
19.4599996320903 1534
19.4799996316433 1481
19.4999996311963 1538
19.5199996307492 1508
19.5399996303022 1478
19.5599996298552 1414
19.5799996294081 1499
19.5999996289611 1554
19.6199996285141 1557
19.639999628067 1551
19.65999962762 1508
19.6799996271729 1560
19.6999996267259 1538
19.7199996262789 1578
19.7399996258318 1495
19.7599996253848 1587
19.7799996249378 1525
19.7999996244907 1516
19.8199996240437 1582
19.8399996235967 1508
19.8599996231496 1524
19.8799996227026 1554
19.8999996222556 1605
19.9199996218085 1587
19.9399996213615 1637
19.9599996209145 1540
19.9799996204674 1661
19.9999996200204 1646
