3 2257
3.01999999955297 2081
3.03999999910593 1911
3.0599999986589 1821
3.07999999821186 1748
3.09999999776483 1708
3.11999999731779 1623
3.13999999687076 1614
3.15999999642372 1575
3.17999999597669 1602
3.19999999552965 1592
3.21999999508262 1529
3.23999999463558 1502
3.25999999418855 1445
3.27999999374151 1441
3.29999999329448 1337
3.31999999284744 1333
3.33999999240041 1328
3.35999999195337 1334
3.37999999150634 1335
3.3999999910593 1312
3.41999999061227 1253
3.43999999016523 1258
3.4599999897182 1235
3.47999998927116 1186
3.49999998882413 1239
3.51999998837709 1211
3.53999998793006 1210
3.55999998748302 1122
3.57999998703599 1117
3.59999998658895 1150
3.61999998614192 1161
3.63999998569489 1113
3.65999998524785 1135
3.67999998480082 1093
3.69999998435378 1084
3.71999998390675 1097
3.73999998345971 1076
3.75999998301268 1048
3.77999998256564 1024
3.79999998211861 981
3.81999998167157 980
3.83999998122454 1016
3.8599999807775 940
3.87999998033047 951
3.89999997988343 966
3.9199999794364 985
3.93999997898936 972
3.95999997854233 945
3.97999997809529 946
3.99999997764826 869
4.01999997720122 915
4.03999997675419 884
4.05999997630715 892
4.07999997586012 838
4.09999997541308 863
4.11999997496605 895
4.13999997451901 816
4.15999997407198 796
4.17999997362494 855
4.19999997317791 796
4.21999997273087 826
4.23999997228384 850
4.25999997183681 798
4.27999997138977 810
4.29999997094274 829
4.3199999704957 803
4.33999997004867 802
4.35999996960163 761
4.3799999691546 746
4.39999996870756 770
4.41999996826053 762
4.43999996781349 794
4.45999996736646 760
4.47999996691942 757
4.49999996647239 737
4.51999996602535 769
4.53999996557832 732
4.55999996513128 732
4.57999996468425 733
4.59999996423721 704
4.61999996379018 716
4.63999996334314 689
4.65999996289611 671
4.67999996244907 681
4.69999996200204 704
4.719999961555 645
4.73999996110797 666
4.75999996066093 669
4.7799999602139 715
4.79999995976686 730
4.81999995931983 684
4.83999995887279 643
4.85999995842576 657
4.87999995797873 642
4.89999995753169 680
4.91999995708466 631
4.93999995663762 680
4.95999995619059 609
4.97999995574355 638
4.99999995529652 685
5.01999995484948 638
5.03999995440245 647
5.05999995395541 661
5.07999995350838 614
5.09999995306134 594
5.11999995261431 618
5.13999995216727 671
5.15999995172024 619
5.1799999512732 595
5.19999995082617 640
5.21999995037913 635
5.2399999499321 656
5.25999994948506 630
5.27999994903803 630
5.29999994859099 585
5.31999994814396 596
5.33999994769692 651
5.35999994724989 604
5.37999994680285 619
5.39999994635582 625
5.41999994590878 682
5.43999994546175 594
5.45999994501471 617
5.47999994456768 608
5.49999994412065 601
5.51999994367361 614
5.53999994322658 596
5.55999994277954 612
5.57999994233251 602
5.59999994188547 584
5.61999994143844 572
5.6399999409914 609
5.65999994054437 585
5.67999994009733 608
5.6999999396503 616
5.71999993920326 636
5.73999993875623 604
5.75999993830919 654
5.77999993786216 645
5.79999993741512 601
5.81999993696809 624
5.83999993652105 599
5.85999993607402 597
5.87999993562698 592
5.89999993517995 593
5.91999993473291 589
5.93999993428588 612
5.95999993383884 616
5.97999993339181 627
5.99999993294477 585
6.01999993249774 581
6.0399999320507 580
6.05999993160367 623
6.07999993115663 559
6.0999999307096 622
6.11999993026257 612
6.13999992981553 593
6.1599999293685 629
6.17999992892146 591
6.19999992847443 593
6.21999992802739 601
6.23999992758036 573
6.25999992713332 591
6.27999992668629 598
6.29999992623925 613
6.31999992579222 578
6.33999992534518 594
6.35999992489815 575
6.37999992445111 583
6.39999992400408 612
6.41999992355704 632
6.43999992311001 567
6.45999992266297 614
6.47999992221594 567
6.4999999217689 605
6.51999992132187 583
6.53999992087483 575
6.5599999204278 551
6.57999991998076 573
6.59999991953373 623
6.61999991908669 566
6.63999991863966 561
6.65999991819262 628
6.67999991774559 586
6.69999991729855 547
6.71999991685152 593
6.73999991640449 570
6.75999991595745 590
6.77999991551042 578
6.79999991506338 590
6.81999991461635 598
6.83999991416931 601
6.85999991372228 568
6.87999991327524 605
6.89999991282821 568
6.91999991238117 534
6.93999991193414 617
6.9599999114871 555
6.97999991104007 563
6.99999991059303 554
7.019999910146 579
7.03999990969896 591
7.05999990925193 553
7.07999990880489 553
7.09999990835786 610
7.11999990791082 525
7.13999990746379 518
7.15999990701675 601
7.17999990656972 588
7.19999990612268 579
7.21999990567565 565
7.23999990522861 556
7.25999990478158 597
7.27999990433454 605
7.29999990388751 573
7.31999990344047 591
7.33999990299344 582
7.35999990254641 563
7.37999990209937 613
7.39999990165234 578
7.4199999012053 574
7.43999990075827 623
7.45999990031123 626
7.4799998998642 564
7.49999989941716 597
7.51999989897013 575
7.53999989852309 541
7.55999989807606 570
7.57999989762902 571
7.59999989718199 604
7.61999989673495 597
7.63999989628792 556
7.65999989584088 599
7.67999989539385 593
7.69999989494681 585
7.71999989449978 580
7.73999989405274 546
7.75999989360571 554
7.77999989315867 584
7.79999989271164 558
7.8199998922646 555
7.83999989181757 575
7.85999989137053 603
7.8799998909235 564
7.89999989047646 582
7.91999989002943 552
7.9399998895824 560
7.95999988913536 568
7.97999988868833 584
7.99999988824129 554
8.01999988779426 575
8.03999988734722 586
8.05999988690019 564
8.07999988645315 571
8.09999988600612 549
8.11999988555908 612
8.13999988511205 555
8.15999988466501 551
8.17999988421798 578
8.19999988377094 574
8.21999988332391 572
8.23999988287687 590
8.25999988242984 553
8.2799998819828 597
8.29999988153577 563
8.31999988108873 558
8.3399998806417 615
8.35999988019466 627
8.37999987974763 587
8.39999987930059 616
8.41999987885356 613
8.43999987840652 631
8.45999987795949 632
8.47999987751245 565
8.49999987706542 610
8.51999987661839 595
8.53999987617135 633
8.55999987572432 624
8.57999987527728 648
8.59999987483025 648
8.61999987438321 652
8.63999987393618 721
8.65999987348914 707
8.67999987304211 732
8.69999987259507 822
8.71999987214804 868
8.739999871701 846
8.75999987125397 909
8.77999987080693 965
8.7999998703599 996
8.81999986991286 1046
8.83999986946583 1023
8.85999986901879 1065
8.87999986857176 1012
8.89999986812472 1077
8.91999986767769 1082
8.93999986723065 1080
8.95999986678362 1165
8.97999986633658 1172
8.99999986588955 1137
9.01999986544251 1146
9.03999986499548 1044
9.05999986454844 997
9.07999986410141 914
9.09999986365438 898
9.11999986320734 857
9.13999986276031 802
9.15999986231327 758
9.17999986186624 704
9.1999998614192 697
9.21999986097217 706
9.23999986052513 737
9.2599998600781 724
9.27999985963106 714
9.29999985918403 726
9.31999985873699 733
9.33999985828996 728
9.35999985784292 719
9.37999985739589 675
9.39999985694885 704
9.41999985650182 711
9.43999985605478 665
9.45999985560775 642
9.47999985516071 658
9.49999985471368 670
9.51999985426664 658
9.53999985381961 639
9.55999985337257 615
9.57999985292554 678
9.5999998524785 633
9.61999985203147 679
9.63999985158443 698
9.6599998511374 729
9.67999985069037 700
9.69999985024333 696
9.7199998497963 676
9.73999984934926 748
9.75999984890223 790
9.77999984845519 786
9.79999984800816 877
9.81999984756112 914
9.83999984711409 896
9.85999984666705 968
9.87999984622002 1005
9.89999984577298 1082
9.91999984532595 1134
9.93999984487891 1144
9.95999984443188 1074
9.97999984398484 1064
9.99999984353781 1010
10.0199998430908 919
10.0399998426437 818
10.0599998421967 772
10.0799998417497 733
10.0999998413026 709
10.1199998408556 671
10.1399998404086 647
10.1599998399615 652
10.1799998395145 610
10.1999998390675 603
10.2199998386204 566
10.2399998381734 614
10.2599998377264 649
10.2799998372793 559
10.2999998368323 555
10.3199998363853 589
10.3399998359382 590
10.3599998354912 577
10.3799998350441 565
10.3999998345971 583
10.4199998341501 584
10.439999833703 600
10.459999833256 559
10.479999832809 530
10.4999998323619 532
10.5199998319149 530
10.5399998314679 539
10.5599998310208 555
10.5799998305738 522
10.5999998301268 565
10.6199998296797 586
10.6399998292327 564
10.6599998287857 548
10.6799998283386 519
10.6999998278916 550
10.7199998274446 547
10.7399998269975 570
10.7599998265505 526
10.7799998261034 520
10.7999998256564 577
10.8199998252094 521
10.8399998247623 512
10.8599998243153 571
10.8799998238683 573
10.8999998234212 584
10.9199998229742 589
10.9399998225272 570
10.9599998220801 551
10.9799998216331 556
10.9999998211861 578
11.019999820739 569
11.039999820292 556
11.059999819845 513
11.0799998193979 510
11.0999998189509 515
11.1199998185039 545
11.1399998180568 544
11.1599998176098 549
11.1799998171628 514
11.1999998167157 505
11.2199998162687 536
11.2399998158216 539
11.2599998153746 528
11.2799998149276 530
11.2999998144805 499
11.3199998140335 534
11.3399998135865 514
11.3599998131394 508
11.3799998126924 508
11.3999998122454 518
11.4199998117983 540
11.4399998113513 534
11.4599998109043 486
11.4799998104572 521
11.4999998100102 538
11.5199998095632 501
11.5399998091161 534
11.5599998086691 508
11.5799998082221 560
11.599999807775 499
11.619999807328 506
11.639999806881 570
11.6599998064339 508
11.6799998059869 523
11.6999998055398 528
11.7199998050928 516
11.7399998046458 486
11.7599998041987 521
11.7799998037517 510
11.7999998033047 540
11.8199998028576 530
11.8399998024106 534
11.8599998019636 555
11.8799998015165 532
11.8999998010695 545
11.9199998006225 530
11.9399998001754 515
11.9599997997284 540
11.9799997992814 514
11.9999997988343 518
12.0199997983873 479
12.0399997979403 519
12.0599997974932 513
12.0799997970462 526
12.0999997965992 536
12.1199997961521 498
12.1399997957051 503
12.159999795258 505
12.179999794811 509
12.199999794364 497
12.2199997939169 552
12.2399997934699 557
12.2599997930229 536
12.2799997925758 559
12.2999997921288 527
12.3199997916818 554
12.3399997912347 557
12.3599997907877 531
12.3799997903407 530
12.3999997898936 542
12.4199997894466 519
12.4399997889996 516
12.4599997885525 552
12.4799997881055 571
12.4999997876585 623
12.5199997872114 577
12.5399997867644 604
12.5599997863173 615
12.5799997858703 639
12.5999997854233 659
12.6199997849762 650
12.6399997845292 627
12.6599997840822 645
12.6799997836351 721
12.6999997831881 669
12.7199997827411 650
12.739999782294 606
12.759999781847 595
12.7799997814 648
12.7999997809529 540
12.8199997805059 568
12.8399997800589 575
12.8599997796118 609
12.8799997791648 531
12.8999997787178 547
12.9199997782707 505
12.9399997778237 531
12.9599997773767 493
12.9799997769296 561
12.9999997764826 552
13.0199997760355 578
13.0399997755885 537
13.0599997751415 565
13.0799997746944 557
13.0999997742474 589
13.1199997738004 605
13.1399997733533 583
13.1599997729063 518
13.1799997724593 595
13.1999997720122 567
13.2199997715652 592
13.2399997711182 614
13.2599997706711 617
13.2799997702241 606
13.2999997697771 669
13.31999976933 659
13.339999768883 645
13.359999768436 675
13.3799997679889 666
13.3999997675419 603
13.4199997670949 625
13.4399997666478 629
13.4599997662008 572
13.4799997657537 551
13.4999997653067 546
13.5199997648597 586
13.5399997644126 559
13.5599997639656 550
13.5799997635186 536
13.5999997630715 560
13.6199997626245 556
13.6399997621775 553
13.6599997617304 499
13.6799997612834 559
13.6999997608364 541
13.7199997603893 543
13.7399997599423 556
13.7599997594953 561
13.7799997590482 501
13.7999997586012 540
13.8199997581542 539
13.8399997577071 533
13.8599997572601 521
13.879999756813 538
13.899999756366 539
13.919999755919 516
13.9399997554719 549
13.9599997550249 572
13.9799997545779 506
13.9999997541308 561
14.0199997536838 527
14.0399997532368 516
14.0599997527897 543
14.0799997523427 515
14.0999997518957 553
14.1199997514486 540
14.1399997510016 600
14.1599997505546 551
14.1799997501075 548
14.1999997496605 556
14.2199997492135 494
14.2399997487664 561
14.2599997483194 531
14.2799997478724 535
14.2999997474253 521
14.3199997469783 556
14.3399997465312 526
14.3599997460842 560
14.3799997456372 558
14.3999997451901 574
14.4199997447431 530
14.4399997442961 572
14.459999743849 609
14.479999743402 604
14.499999742955 530
14.5199997425079 559
14.5399997420609 558
14.5599997416139 546
14.5799997411668 554
14.5999997407198 548
14.6199997402728 533
14.6399997398257 541
14.6599997393787 600
14.6799997389317 527
14.6999997384846 576
14.7199997380376 551
14.7399997375906 552
14.7599997371435 558
14.7799997366965 567
14.7999997362494 566
14.8199997358024 571
14.8399997353554 562
14.8599997349083 544
14.8799997344613 572
14.8999997340143 546
14.9199997335672 557
14.9399997331202 500
14.9599997326732 545
14.9799997322261 516
14.9999997317791 560
15.0199997313321 569
15.039999730885 605
15.059999730438 559
15.079999729991 563
15.0999997295439 553
15.1199997290969 602
15.1399997286499 557
15.1599997282028 559
15.1799997277558 549
15.1999997273088 539
15.2199997268617 586
15.2399997264147 581
15.2599997259676 585
15.2799997255206 565
15.2999997250736 609
15.3199997246265 594
15.3399997241795 586
15.3599997237325 545
15.3799997232854 614
15.3999997228384 582
15.4199997223914 612
15.4399997219443 584
15.4599997214973 620
15.4799997210503 575
15.4999997206032 544
15.5199997201562 545
15.5399997197092 595
15.5599997192621 588
15.5799997188151 560
15.5999997183681 614
15.619999717921 633
15.639999717474 591
15.659999717027 576
15.6799997165799 594
15.6999997161329 633
15.7199997156858 598
15.7399997152388 547
15.7599997147918 624
15.7799997143447 583
15.7999997138977 561
15.8199997134507 592
15.8399997130036 639
15.8599997125566 607
15.8799997121096 639
15.8999997116625 576
15.9199997112155 621
15.9399997107685 614
15.9599997103214 565
15.9799997098744 616
15.9999997094274 647
16.0199997089803 627
16.0399997085333 609
16.0599997080863 629
16.0799997076392 647
16.0999997071922 637
16.1199997067451 613
16.1399997062981 610
16.1599997058511 642
16.179999705404 628
16.199999704957 598
16.21999970451 634
16.2399997040629 644
16.2599997036159 644
16.2799997031689 642
16.2999997027218 628
16.3199997022748 638
16.3399997018278 602
16.3599997013807 631
16.3799997009337 630
16.3999997004867 609
16.4199997000396 656
16.4399996995926 571
16.4599996991456 643
16.4799996986985 637
16.4999996982515 630
16.5199996978045 646
16.5399996973574 667
16.5599996969104 626
16.5799996964633 653
16.5999996960163 655
16.6199996955693 675
16.6399996951222 690
16.6599996946752 657
16.6799996942282 684
16.6999996937811 665
16.7199996933341 729
16.7399996928871 699
16.75999969244 732
16.779999691993 706
16.799999691546 739
16.8199996910989 767
16.8399996906519 799
16.8599996902049 873
16.8799996897578 1001
16.8999996893108 1051
16.9199996888638 1134
16.9399996884167 1258
16.9599996879697 1408
16.9799996875226 1522
16.9999996870756 1643
17.0199996866286 1731
17.0399996861815 1651
17.0599996857345 1448
17.0799996852875 1326
17.0999996848404 1141
17.1199996843934 1046
17.1399996839464 886
17.1599996834993 846
17.1799996830523 761
17.1999996826053 720
17.2199996821582 691
17.2399996817112 701
17.2599996812642 721
17.2799996808171 740
17.2999996803701 711
17.3199996799231 708
17.339999679476 702
17.359999679029 754
17.379999678582 717
17.3999996781349 763
17.4199996776879 728
17.4399996772408 690
17.4599996767938 694
17.4799996763468 668
17.4999996758997 727
17.5199996754527 710
17.5399996750057 737
17.5599996745586 665
17.5799996741116 723
17.5999996736646 741
17.6199996732175 723
17.6399996727705 720
17.6599996723235 726
17.6799996718764 734
17.6999996714294 670
17.7199996709824 729
17.7399996705353 775
17.7599996700883 756
17.7799996696413 740
17.7999996691942 775
17.8199996687472 782
17.8399996683002 774
17.8599996678531 781
17.8799996674061 747
17.899999666959 734
17.919999666512 764
17.939999666065 763
17.9599996656179 771
17.9799996651709 785
17.9999996647239 761
18.0199996642768 759
18.0399996638298 720
18.0599996633828 777
18.0799996629357 753
18.0999996624887 776
18.1199996620417 759
18.1399996615946 756
18.1599996611476 771
18.1799996607006 754
18.1999996602535 752
18.2199996598065 781
18.2399996593595 754
18.2599996589124 841
18.2799996584654 741
18.2999996580184 757
18.3199996575713 785
18.3399996571243 752
18.3599996566772 783
18.3799996562302 762
18.3999996557832 820
18.4199996553361 812
18.4399996548891 840
18.4599996544421 789
18.479999653995 765
18.499999653548 821
18.519999653101 796
18.5399996526539 830
18.5599996522069 770
18.5799996517599 793
18.5999996513128 831
18.6199996508658 812
18.6399996504188 818
18.6599996499717 813
18.6799996495247 810
18.6999996490777 829
18.7199996486306 829
18.7399996481836 846
18.7599996477366 811
18.7799996472895 892
18.7999996468425 818
18.8199996463954 790
18.8399996459484 789
18.8599996455014 782
18.8799996450543 822
18.8999996446073 799
18.9199996441603 832
18.9399996437132 821
18.9599996432662 841
18.9799996428192 848
18.9999996423721 845
19.0199996419251 784
19.0399996414781 832
19.059999641031 880
19.079999640584 857
19.099999640137 856
19.1199996396899 808
19.1399996392429 822
19.1599996387959 856
19.1799996383488 801
19.1999996379018 821
19.2199996374547 826
19.2399996370077 862
19.2599996365607 839
19.2799996361136 855
19.2999996356666 914
19.3199996352196 858
19.3399996347725 863
19.3599996343255 883
19.3799996338785 880
19.3999996334314 851
19.4199996329844 860
19.4399996325374 962
19.4599996320903 858
19.4799996316433 818
19.4999996311963 880
19.5199996307492 872
19.5399996303022 839
19.5599996298552 940
19.5799996294081 919
19.5999996289611 915
19.6199996285141 928
19.639999628067 846
19.65999962762 942
19.6799996271729 902
19.6999996267259 895
19.7199996262789 903
19.7399996258318 975
19.7599996253848 923
19.7799996249378 960
19.7999996244907 970
19.8199996240437 1010
19.8399996235967 1015
19.8599996231496 1032
19.8799996227026 1098
19.8999996222556 1034
19.9199996218085 989
19.9399996213615 1034
19.9599996209145 1024
19.9799996204674 1027
19.9999996200204 968
