3 2075
3.01999999955297 1935
3.03999999910593 1719
3.0599999986589 1596
3.07999999821186 1621
3.09999999776483 1579
3.11999999731779 1470
3.13999999687076 1422
3.15999999642372 1450
3.17999999597669 1361
3.19999999552965 1339
3.21999999508262 1325
3.23999999463558 1372
3.25999999418855 1246
3.27999999374151 1310
3.29999999329448 1285
3.31999999284744 1270
3.33999999240041 1239
3.35999999195337 1219
3.37999999150634 1173
3.3999999910593 1243
3.41999999061227 1156
3.43999999016523 1199
3.4599999897182 1162
3.47999998927116 1219
3.49999998882413 1110
3.51999998837709 1155
3.53999998793006 1100
3.55999998748302 1068
3.57999998703599 1074
3.59999998658895 1098
3.61999998614192 1103
3.63999998569489 1041
3.65999998524785 1058
3.67999998480082 1028
3.69999998435378 1003
3.71999998390675 1012
3.73999998345971 1031
3.75999998301268 1034
3.77999998256564 993
3.79999998211861 971
3.81999998167157 955
3.83999998122454 1001
3.8599999807775 951
3.87999998033047 904
3.89999997988343 934
3.9199999794364 869
3.93999997898936 923
3.95999997854233 936
3.97999997809529 850
3.99999997764826 946
4.01999997720122 905
4.03999997675419 886
4.05999997630715 902
4.07999997586012 870
4.09999997541308 860
4.11999997496605 848
4.13999997451901 861
4.15999997407198 819
4.17999997362494 882
4.19999997317791 820
4.21999997273087 786
4.23999997228384 820
4.25999997183681 768
4.27999997138977 764
4.29999997094274 803
4.3199999704957 794
4.33999997004867 792
4.35999996960163 784
4.3799999691546 733
4.39999996870756 769
4.41999996826053 761
4.43999996781349 761
4.45999996736646 741
4.47999996691942 791
4.49999996647239 689
4.51999996602535 770
4.53999996557832 732
4.55999996513128 700
4.57999996468425 782
4.59999996423721 688
4.61999996379018 670
4.63999996334314 697
4.65999996289611 685
4.67999996244907 712
4.69999996200204 703
4.719999961555 699
4.73999996110797 719
4.75999996066093 725
4.7799999602139 705
4.79999995976686 673
4.81999995931983 648
4.83999995887279 654
4.85999995842576 640
4.87999995797873 655
4.89999995753169 648
4.91999995708466 692
4.93999995663762 659
4.95999995619059 657
4.97999995574355 659
4.99999995529652 667
5.01999995484948 692
5.03999995440245 658
5.05999995395541 672
5.07999995350838 642
5.09999995306134 671
5.11999995261431 615
5.13999995216727 618
5.15999995172024 630
5.1799999512732 628
5.19999995082617 634
5.21999995037913 612
5.2399999499321 626
5.25999994948506 673
5.27999994903803 657
5.29999994859099 608
5.31999994814396 627
5.33999994769692 610
5.35999994724989 610
5.37999994680285 629
5.39999994635582 630
5.41999994590878 610
5.43999994546175 563
5.45999994501471 626
5.47999994456768 576
5.49999994412065 592
5.51999994367361 607
5.53999994322658 644
5.55999994277954 612
5.57999994233251 605
5.59999994188547 591
5.61999994143844 608
5.6399999409914 599
5.65999994054437 615
5.67999994009733 628
5.6999999396503 602
5.71999993920326 619
5.73999993875623 613
5.75999993830919 636
5.77999993786216 596
5.79999993741512 580
5.81999993696809 621
5.83999993652105 612
5.85999993607402 583
5.87999993562698 585
5.89999993517995 586
5.91999993473291 600
5.93999993428588 617
5.95999993383884 602
5.97999993339181 597
5.99999993294477 610
6.01999993249774 569
6.0399999320507 597
6.05999993160367 612
6.07999993115663 587
6.0999999307096 615
6.11999993026257 573
6.13999992981553 532
6.1599999293685 620
6.17999992892146 624
6.19999992847443 605
6.21999992802739 604
6.23999992758036 575
6.25999992713332 591
6.27999992668629 589
6.29999992623925 581
6.31999992579222 605
6.33999992534518 544
6.35999992489815 586
6.37999992445111 580
6.39999992400408 631
6.41999992355704 547
6.43999992311001 543
6.45999992266297 553
6.47999992221594 598
6.4999999217689 596
6.51999992132187 579
6.53999992087483 571
6.5599999204278 583
6.57999991998076 600
6.59999991953373 540
6.61999991908669 576
6.63999991863966 582
6.65999991819262 585
6.67999991774559 578
6.69999991729855 568
6.71999991685152 587
6.73999991640449 609
6.75999991595745 607
6.77999991551042 580
6.79999991506338 650
6.81999991461635 644
6.83999991416931 585
6.85999991372228 559
6.87999991327524 567
6.89999991282821 553
6.91999991238117 615
6.93999991193414 544
6.9599999114871 605
6.97999991104007 594
6.99999991059303 553
7.019999910146 567
7.03999990969896 546
7.05999990925193 562
7.07999990880489 598
7.09999990835786 601
7.11999990791082 535
7.13999990746379 533
7.15999990701675 546
7.17999990656972 590
7.19999990612268 607
7.21999990567565 584
7.23999990522861 583
7.25999990478158 601
7.27999990433454 597
7.29999990388751 604
7.31999990344047 592
7.33999990299344 569
7.35999990254641 580
7.37999990209937 622
7.39999990165234 586
7.4199999012053 546
7.43999990075827 561
7.45999990031123 574
7.4799998998642 559
7.49999989941716 554
7.51999989897013 589
7.53999989852309 556
7.55999989807606 585
7.57999989762902 565
7.59999989718199 600
7.61999989673495 549
7.63999989628792 546
7.65999989584088 592
7.67999989539385 585
7.69999989494681 561
7.71999989449978 600
7.73999989405274 594
7.75999989360571 571
7.77999989315867 522
7.79999989271164 547
7.8199998922646 563
7.83999989181757 514
7.85999989137053 561
7.8799998909235 558
7.89999989047646 582
7.91999989002943 624
7.9399998895824 577
7.95999988913536 621
7.97999988868833 561
7.99999988824129 572
8.01999988779426 577
8.03999988734722 572
8.05999988690019 595
8.07999988645315 582
8.09999988600612 552
8.11999988555908 614
8.13999988511205 566
8.15999988466501 575
8.17999988421798 588
8.19999988377094 572
8.21999988332391 553
8.23999988287687 534
8.25999988242984 559
8.2799998819828 607
8.29999988153577 556
8.31999988108873 615
8.3399998806417 583
8.35999988019466 610
8.37999987974763 589
8.39999987930059 577
8.41999987885356 562
8.43999987840652 597
8.45999987795949 629
8.47999987751245 618
8.49999987706542 600
8.51999987661839 574
8.53999987617135 609
8.55999987572432 637
8.57999987527728 621
8.59999987483025 634
8.61999987438321 671
8.63999987393618 668
8.65999987348914 670
8.67999987304211 727
8.69999987259507 727
8.71999987214804 755
8.739999871701 791
8.75999987125397 814
8.77999987080693 825
8.7999998703599 891
8.81999986991286 921
8.83999986946583 1026
8.85999986901879 1022
8.87999986857176 1143
8.89999986812472 1173
8.91999986767769 1296
8.93999986723065 1385
8.95999986678362 1439
8.97999986633658 1517
8.99999986588955 1530
9.01999986544251 1572
9.03999986499548 1600
9.05999986454844 1555
9.07999986410141 1560
9.09999986365438 1484
9.11999986320734 1371
9.13999986276031 1242
9.15999986231327 1173
9.17999986186624 1027
9.1999998614192 975
9.21999986097217 826
9.23999986052513 793
9.2599998600781 795
9.27999985963106 730
9.29999985918403 772
9.31999985873699 758
9.33999985828996 699
9.35999985784292 668
9.37999985739589 665
9.39999985694885 623
9.41999985650182 625
9.43999985605478 679
9.45999985560775 666
9.47999985516071 625
9.49999985471368 639
9.51999985426664 698
9.53999985381961 658
9.55999985337257 650
9.57999985292554 673
9.5999998524785 653
9.61999985203147 695
9.63999985158443 679
9.6599998511374 716
9.67999985069037 730
9.69999985024333 679
9.7199998497963 770
9.73999984934926 772
9.75999984890223 786
9.77999984845519 815
9.79999984800816 797
9.81999984756112 866
9.83999984711409 860
9.85999984666705 921
9.87999984622002 986
9.89999984577298 1079
9.91999984532595 1164
9.93999984487891 1232
9.95999984443188 1210
9.97999984398484 1256
9.99999984353781 1321
10.0199998430908 1324
10.0399998426437 1293
10.0599998421967 1247
10.0799998417497 1176
10.0999998413026 1079
10.1199998408556 954
10.1399998404086 901
10.1599998399615 744
10.1799998395145 733
10.1999998390675 661
10.2199998386204 629
10.2399998381734 635
10.2599998377264 623
10.2799998372793 634
10.2999998368323 592
10.3199998363853 593
10.3399998359382 627
10.3599998354912 607
10.3799998350441 543
10.3999998345971 595
10.4199998341501 611
10.439999833703 550
10.459999833256 579
10.479999832809 573
10.4999998323619 545
10.5199998319149 543
10.5399998314679 536
10.5599998310208 550
10.5799998305738 566
10.5999998301268 567
10.6199998296797 515
10.6399998292327 545
10.6599998287857 576
10.6799998283386 553
10.6999998278916 529
10.7199998274446 517
10.7399998269975 506
10.7599998265505 508
10.7799998261034 533
10.7999998256564 516
10.8199998252094 530
10.8399998247623 502
10.8599998243153 523
10.8799998238683 558
10.8999998234212 524
10.9199998229742 520
10.9399998225272 498
10.9599998220801 532
10.9799998216331 541
10.9999998211861 547
11.019999820739 498
11.039999820292 536
11.059999819845 541
11.0799998193979 514
11.0999998189509 531
11.1199998185039 511
11.1399998180568 494
11.1599998176098 499
11.1799998171628 499
11.1999998167157 496
11.2199998162687 509
11.2399998158216 540
11.2599998153746 529
11.2799998149276 495
11.2999998144805 499
11.3199998140335 512
11.3399998135865 511
11.3599998131394 530
11.3799998126924 515
11.3999998122454 490
11.4199998117983 515
11.4399998113513 473
11.4599998109043 494
11.4799998104572 485
11.4999998100102 496
11.5199998095632 480
11.5399998091161 530
11.5599998086691 478
11.5799998082221 492
11.599999807775 498
11.619999807328 475
11.639999806881 460
11.6599998064339 516
11.6799998059869 490
11.6999998055398 477
11.7199998050928 495
11.7399998046458 475
11.7599998041987 509
11.7799998037517 514
11.7999998033047 498
11.8199998028576 527
11.8399998024106 482
11.8599998019636 441
11.8799998015165 503
11.8999998010695 474
11.9199998006225 510
11.9399998001754 497
11.9599997997284 517
11.9799997992814 482
11.9999997988343 475
12.0199997983873 488
12.0399997979403 501
12.0599997974932 520
12.0799997970462 528
12.0999997965992 527
12.1199997961521 467
12.1399997957051 486
12.159999795258 507
12.179999794811 486
12.199999794364 520
12.2199997939169 460
12.2399997934699 462
12.2599997930229 468
12.2799997925758 508
12.2999997921288 477
12.3199997916818 497
12.3399997912347 509
12.3599997907877 489
12.3799997903407 505
12.3999997898936 497
12.4199997894466 548
12.4399997889996 544
12.4599997885525 524
12.4799997881055 568
12.4999997876585 567
12.5199997872114 527
12.5399997867644 529
12.5599997863173 583
12.5799997858703 623
12.5999997854233 625
12.6199997849762 622
12.6399997845292 576
12.6599997840822 601
12.6799997836351 606
12.6999997831881 660
12.7199997827411 691
12.739999782294 631
12.759999781847 594
12.7799997814 602
12.7999997809529 612
12.8199997805059 586
12.8399997800589 562
12.8599997796118 553
12.8799997791648 550
12.8999997787178 556
12.9199997782707 543
12.9399997778237 504
12.9599997773767 521
12.9799997769296 544
12.9999997764826 559
13.0199997760355 579
13.0399997755885 508
13.0599997751415 539
13.0799997746944 552
13.0999997742474 534
13.1199997738004 518
13.1399997733533 539
13.1599997729063 507
13.1799997724593 532
13.1999997720122 541
13.2199997715652 539
13.2399997711182 561
13.2599997706711 559
13.2799997702241 545
13.2999997697771 608
13.31999976933 591
13.339999768883 590
13.359999768436 601
13.3799997679889 624
13.3999997675419 652
13.4199997670949 602
13.4399997666478 632
13.4599997662008 552
13.4799997657537 591
13.4999997653067 574
13.5199997648597 572
13.5399997644126 581
13.5599997639656 484
13.5799997635186 555
13.5999997630715 492
13.6199997626245 507
13.6399997621775 500
13.6599997617304 569
13.6799997612834 494
13.6999997608364 511
13.7199997603893 546
13.7399997599423 497
13.7599997594953 569
13.7799997590482 529
13.7999997586012 519
13.8199997581542 523
13.8399997577071 517
13.8599997572601 557
13.879999756813 513
13.899999756366 488
13.919999755919 536
13.9399997554719 464
13.9599997550249 511
13.9799997545779 497
13.9999997541308 499
14.0199997536838 518
14.0399997532368 496
14.0599997527897 507
14.0799997523427 540
14.0999997518957 486
14.1199997514486 528
14.1399997510016 497
14.1599997505546 534
14.1799997501075 525
14.1999997496605 551
14.2199997492135 490
14.2399997487664 525
14.2599997483194 510
14.2799997478724 496
14.2999997474253 548
14.3199997469783 504
14.3399997465312 531
14.3599997460842 489
14.3799997456372 492
14.3999997451901 521
14.4199997447431 508
14.4399997442961 539
14.459999743849 520
14.479999743402 539
14.499999742955 518
14.5199997425079 490
14.5399997420609 531
14.5599997416139 502
14.5799997411668 530
14.5999997407198 495
14.6199997402728 527
14.6399997398257 551
14.6599997393787 530
14.6799997389317 522
14.6999997384846 521
14.7199997380376 504
14.7399997375906 530
14.7599997371435 538
14.7799997366965 542
14.7999997362494 516
14.8199997358024 509
14.8399997353554 526
14.8599997349083 532
14.8799997344613 535
14.8999997340143 555
14.9199997335672 537
14.9399997331202 535
14.9599997326732 510
14.9799997322261 525
14.9999997317791 516
15.0199997313321 539
15.039999730885 521
15.059999730438 533
15.079999729991 509
15.0999997295439 525
15.1199997290969 555
15.1399997286499 528
15.1599997282028 550
15.1799997277558 524
15.1999997273088 539
15.2199997268617 578
15.2399997264147 551
15.2599997259676 525
15.2799997255206 558
15.2999997250736 516
15.3199997246265 561
15.3399997241795 517
15.3599997237325 560
15.3799997232854 582
15.3999997228384 518
15.4199997223914 544
15.4399997219443 568
15.4599997214973 573
15.4799997210503 545
15.4999997206032 575
15.5199997201562 564
15.5399997197092 571
15.5599997192621 561
15.5799997188151 577
15.5999997183681 571
15.619999717921 534
15.639999717474 578
15.659999717027 506
15.6799997165799 586
15.6999997161329 559
15.7199997156858 545
15.7399997152388 510
15.7599997147918 559
15.7799997143447 547
15.7999997138977 543
15.8199997134507 555
15.8399997130036 560
15.8599997125566 524
15.8799997121096 557
15.8999997116625 516
15.9199997112155 555
15.9399997107685 610
15.9599997103214 547
15.9799997098744 554
15.9999997094274 549
16.0199997089803 550
16.0399997085333 587
16.0599997080863 605
16.0799997076392 539
16.0999997071922 599
16.1199997067451 593
16.1399997062981 579
16.1599997058511 584
16.179999705404 563
16.199999704957 563
16.21999970451 599
16.2399997040629 554
16.2599997036159 548
16.2799997031689 567
16.2999997027218 572
16.3199997022748 575
16.3399997018278 587
16.3599997013807 583
16.3799997009337 600
16.3999997004867 569
16.4199997000396 596
16.4399996995926 622
16.4599996991456 605
16.4799996986985 567
16.4999996982515 596
16.5199996978045 602
16.5399996973574 614
16.5599996969104 629
16.5799996964633 615
16.5999996960163 626
16.6199996955693 639
16.6399996951222 647
16.6599996946752 642
16.6799996942282 661
16.6999996937811 630
16.7199996933341 685
16.7399996928871 632
16.75999969244 672
16.779999691993 703
16.799999691546 730
16.8199996910989 776
16.8399996906519 804
16.8599996902049 858
16.8799996897578 876
16.8999996893108 914
16.9199996888638 1057
16.9399996884167 1087
16.9599996879697 1202
16.9799996875226 1348
16.9999996870756 1419
17.0199996866286 1581
17.0399996861815 1620
17.0599996857345 1648
17.0799996852875 1745
17.0999996848404 1802
17.1199996843934 1727
17.1399996839464 1599
17.1599996834993 1484
17.1799996830523 1247
17.1999996826053 1028
17.2199996821582 891
17.2399996817112 780
17.2599996812642 712
17.2799996808171 730
17.2999996803701 711
17.3199996799231 721
17.339999679476 732
17.359999679029 702
17.379999678582 697
17.3999996781349 714
17.4199996776879 739
17.4399996772408 773
17.4599996767938 741
17.4799996763468 695
17.4999996758997 629
17.5199996754527 686
17.5399996750057 684
17.5599996745586 655
17.5799996741116 688
17.5999996736646 696
17.6199996732175 717
17.6399996727705 687
17.6599996723235 672
17.6799996718764 708
17.6999996714294 680
17.7199996709824 699
17.7399996705353 701
17.7599996700883 680
17.7799996696413 709
17.7999996691942 667
17.8199996687472 662
17.8399996683002 671
17.8599996678531 636
17.8799996674061 701
17.899999666959 722
17.919999666512 675
17.939999666065 670
17.9599996656179 662
17.9799996651709 723
17.9999996647239 674
18.0199996642768 667
18.0399996638298 637
18.0599996633828 698
18.0799996629357 663
18.0999996624887 719
18.1199996620417 721
18.1399996615946 696
18.1599996611476 675
18.1799996607006 708
18.1999996602535 712
18.2199996598065 713
18.2399996593595 717
18.2599996589124 698
18.2799996584654 693
18.2999996580184 689
18.3199996575713 721
18.3399996571243 770
18.3599996566772 678
18.3799996562302 709
18.3999996557832 704
18.4199996553361 714
18.4399996548891 748
18.4599996544421 756
18.479999653995 710
18.499999653548 739
18.519999653101 708
18.5399996526539 699
18.5599996522069 757
18.5799996517599 791
18.5999996513128 733
18.6199996508658 657
18.6399996504188 701
18.6599996499717 697
18.6799996495247 713
18.6999996490777 708
18.7199996486306 732
18.7399996481836 721
18.7599996477366 720
18.7799996472895 702
18.7999996468425 759
18.8199996463954 779
18.8399996459484 742
18.8599996455014 743
18.8799996450543 752
18.8999996446073 737
18.9199996441603 798
18.9399996437132 715
18.9599996432662 756
18.9799996428192 688
18.9999996423721 746
19.0199996419251 744
19.0399996414781 729
19.059999641031 736
19.079999640584 730
19.099999640137 773
19.1199996396899 740
19.1399996392429 709
19.1599996387959 767
19.1799996383488 743
19.1999996379018 782
19.2199996374547 746
19.2399996370077 772
19.2599996365607 771
19.2799996361136 751
19.2999996356666 755
19.3199996352196 829
19.3399996347725 709
19.3599996343255 777
19.3799996338785 809
19.3999996334314 801
19.4199996329844 818
19.4399996325374 791
19.4599996320903 764
19.4799996316433 811
19.4999996311963 820
19.5199996307492 761
19.5399996303022 783
19.5599996298552 799
19.5799996294081 799
19.5999996289611 748
19.6199996285141 798
19.639999628067 828
19.65999962762 777
19.6799996271729 845
19.6999996267259 834
19.7199996262789 813
19.7399996258318 823
19.7599996253848 853
19.7799996249378 761
19.7999996244907 858
19.8199996240437 821
19.8399996235967 872
19.8599996231496 869
19.8799996227026 921
19.8999996222556 934
19.9199996218085 922
19.9399996213615 923
19.9599996209145 943
19.9799996204674 967
19.9999996200204 998
