3 2506
3.01999999955297 2417
3.03999999910593 2107
3.0599999986589 2169
3.07999999821186 2002
3.09999999776483 1938
3.11999999731779 1872
3.13999999687076 1793
3.15999999642372 1663
3.17999999597669 1694
3.19999999552965 1678
3.21999999508262 1640
3.23999999463558 1583
3.25999999418855 1566
3.27999999374151 1542
3.29999999329448 1533
3.31999999284744 1569
3.33999999240041 1526
3.35999999195337 1479
3.37999999150634 1452
3.3999999910593 1368
3.41999999061227 1338
3.43999999016523 1305
3.4599999897182 1318
3.47999998927116 1350
3.49999998882413 1357
3.51999998837709 1305
3.53999998793006 1250
3.55999998748302 1323
3.57999998703599 1223
3.59999998658895 1292
3.61999998614192 1226
3.63999998569489 1216
3.65999998524785 1185
3.67999998480082 1147
3.69999998435378 1200
3.71999998390675 1143
3.73999998345971 1155
3.75999998301268 1111
3.77999998256564 1096
3.79999998211861 1060
3.81999998167157 1114
3.83999998122454 1096
3.8599999807775 1047
3.87999998033047 1078
3.89999997988343 1017
3.9199999794364 1055
3.93999997898936 1037
3.95999997854233 1021
3.97999997809529 1007
3.99999997764826 946
4.01999997720122 952
4.03999997675419 969
4.05999997630715 980
4.07999997586012 948
4.09999997541308 913
4.11999997496605 948
4.13999997451901 874
4.15999997407198 903
4.17999997362494 905
4.19999997317791 873
4.21999997273087 894
4.23999997228384 875
4.25999997183681 865
4.27999997138977 899
4.29999997094274 837
4.3199999704957 806
4.33999997004867 848
4.35999996960163 810
4.3799999691546 777
4.39999996870756 790
4.41999996826053 820
4.43999996781349 803
4.45999996736646 807
4.47999996691942 783
4.49999996647239 744
4.51999996602535 803
4.53999996557832 762
4.55999996513128 750
4.57999996468425 749
4.59999996423721 732
4.61999996379018 722
4.63999996334314 740
4.65999996289611 730
4.67999996244907 747
4.69999996200204 742
4.719999961555 718
4.73999996110797 706
4.75999996066093 698
4.7799999602139 702
4.79999995976686 696
4.81999995931983 688
4.83999995887279 713
4.85999995842576 710
4.87999995797873 654
4.89999995753169 697
4.91999995708466 658
4.93999995663762 722
4.95999995619059 600
4.97999995574355 654
4.99999995529652 642
5.01999995484948 655
5.03999995440245 648
5.05999995395541 624
5.07999995350838 619
5.09999995306134 641
5.11999995261431 637
5.13999995216727 638
5.15999995172024 642
5.1799999512732 634
5.19999995082617 637
5.21999995037913 617
5.2399999499321 642
5.25999994948506 598
5.27999994903803 601
5.29999994859099 637
5.31999994814396 586
5.33999994769692 629
5.35999994724989 631
5.37999994680285 643
5.39999994635582 609
5.41999994590878 622
5.43999994546175 593
5.45999994501471 635
5.47999994456768 638
5.49999994412065 565
5.51999994367361 544
5.53999994322658 560
5.55999994277954 575
5.57999994233251 599
5.59999994188547 612
5.61999994143844 610
5.6399999409914 597
5.65999994054437 639
5.67999994009733 625
5.6999999396503 585
5.71999993920326 632
5.73999993875623 552
5.75999993830919 609
5.77999993786216 608
5.79999993741512 552
5.81999993696809 622
5.83999993652105 612
5.85999993607402 579
5.87999993562698 585
5.89999993517995 595
5.91999993473291 585
5.93999993428588 600
5.95999993383884 589
5.97999993339181 591
5.99999993294477 601
6.01999993249774 609
6.0399999320507 589
6.05999993160367 606
6.07999993115663 591
6.0999999307096 604
6.11999993026257 574
6.13999992981553 564
6.1599999293685 561
6.17999992892146 586
6.19999992847443 531
6.21999992802739 587
6.23999992758036 588
6.25999992713332 588
6.27999992668629 608
6.29999992623925 584
6.31999992579222 589
6.33999992534518 562
6.35999992489815 548
6.37999992445111 589
6.39999992400408 588
6.41999992355704 553
6.43999992311001 564
6.45999992266297 594
6.47999992221594 543
6.4999999217689 589
6.51999992132187 572
6.53999992087483 614
6.5599999204278 570
6.57999991998076 560
6.59999991953373 603
6.61999991908669 591
6.63999991863966 583
6.65999991819262 527
6.67999991774559 557
6.69999991729855 562
6.71999991685152 538
6.73999991640449 547
6.75999991595745 511
6.77999991551042 578
6.79999991506338 584
6.81999991461635 582
6.83999991416931 578
6.85999991372228 561
6.87999991327524 584
6.89999991282821 570
6.91999991238117 559
6.93999991193414 545
6.9599999114871 580
6.97999991104007 564
6.99999991059303 575
7.019999910146 523
7.03999990969896 508
7.05999990925193 576
7.07999990880489 552
7.09999990835786 514
7.11999990791082 560
7.13999990746379 529
7.15999990701675 540
7.17999990656972 552
7.19999990612268 611
7.21999990567565 573
7.23999990522861 581
7.25999990478158 524
7.27999990433454 534
7.29999990388751 568
7.31999990344047 548
7.33999990299344 536
7.35999990254641 521
7.37999990209937 576
7.39999990165234 566
7.4199999012053 557
7.43999990075827 546
7.45999990031123 521
7.4799998998642 546
7.49999989941716 552
7.51999989897013 537
7.53999989852309 555
7.55999989807606 532
7.57999989762902 559
7.59999989718199 515
7.61999989673495 563
7.63999989628792 545
7.65999989584088 561
7.67999989539385 563
7.69999989494681 526
7.71999989449978 499
7.73999989405274 576
7.75999989360571 550
7.77999989315867 509
7.79999989271164 526
7.8199998922646 544
7.83999989181757 541
7.85999989137053 514
7.8799998909235 565
7.89999989047646 552
7.91999989002943 561
7.9399998895824 526
7.95999988913536 522
7.97999988868833 576
7.99999988824129 567
8.01999988779426 576
8.03999988734722 532
8.05999988690019 502
8.07999988645315 552
8.09999988600612 547
8.11999988555908 558
8.13999988511205 553
8.15999988466501 550
8.17999988421798 538
8.19999988377094 578
8.21999988332391 572
8.23999988287687 559
8.25999988242984 566
8.2799998819828 597
8.29999988153577 557
8.31999988108873 555
8.3399998806417 555
8.35999988019466 590
8.37999987974763 604
8.39999987930059 603
8.41999987885356 609
8.43999987840652 586
8.45999987795949 564
8.47999987751245 613
8.49999987706542 600
8.51999987661839 589
8.53999987617135 612
8.55999987572432 645
8.57999987527728 664
8.59999987483025 661
8.61999987438321 734
8.63999987393618 716
8.65999987348914 746
8.67999987304211 764
8.69999987259507 784
8.71999987214804 861
8.739999871701 889
8.75999987125397 912
8.77999987080693 926
8.7999998703599 1069
8.81999986991286 1087
8.83999986946583 1129
8.85999986901879 1211
8.87999986857176 1292
8.89999986812472 1313
8.91999986767769 1337
8.93999986723065 1456
8.95999986678362 1473
8.97999986633658 1486
8.99999986588955 1527
9.01999986544251 1361
9.03999986499548 1183
9.05999986454844 1104
9.07999986410141 1055
9.09999986365438 891
9.11999986320734 817
9.13999986276031 849
9.15999986231327 798
9.17999986186624 811
9.1999998614192 724
9.21999986097217 702
9.23999986052513 692
9.2599998600781 715
9.27999985963106 685
9.29999985918403 678
9.31999985873699 707
9.33999985828996 648
9.35999985784292 643
9.37999985739589 585
9.39999985694885 599
9.41999985650182 638
9.43999985605478 625
9.45999985560775 630
9.47999985516071 635
9.49999985471368 614
9.51999985426664 616
9.53999985381961 590
9.55999985337257 633
9.57999985292554 641
9.5999998524785 647
9.61999985203147 654
9.63999985158443 664
9.6599998511374 668
9.67999985069037 705
9.69999985024333 682
9.7199998497963 767
9.73999984934926 738
9.75999984890223 787
9.77999984845519 848
9.79999984800816 859
9.81999984756112 946
9.83999984711409 941
9.85999984666705 1091
9.87999984622002 1215
9.89999984577298 1217
9.91999984532595 1333
9.93999984487891 1326
9.95999984443188 1149
9.97999984398484 1000
9.99999984353781 854
10.0199998430908 795
10.0399998426437 692
10.0599998421967 635
10.0799998417497 621
10.0999998413026 610
10.1199998408556 575
10.1399998404086 568
10.1599998399615 561
10.1799998395145 535
10.1999998390675 504
10.2199998386204 527
10.2399998381734 504
10.2599998377264 540
10.2799998372793 479
10.2999998368323 503
10.3199998363853 494
10.3399998359382 483
10.3599998354912 468
10.3799998350441 484
10.3999998345971 516
10.4199998341501 499
10.439999833703 458
10.459999833256 539
10.479999832809 553
10.4999998323619 492
10.5199998319149 511
10.5399998314679 469
10.5599998310208 482
10.5799998305738 470
10.5999998301268 504
10.6199998296797 485
10.6399998292327 513
10.6599998287857 512
10.6799998283386 541
10.6999998278916 478
10.7199998274446 475
10.7399998269975 472
10.7599998265505 508
10.7799998261034 491
10.7999998256564 512
10.8199998252094 488
10.8399998247623 524
10.8599998243153 502
10.8799998238683 459
10.8999998234212 444
10.9199998229742 490
10.9399998225272 482
10.9599998220801 494
10.9799998216331 513
10.9999998211861 494
11.019999820739 494
11.039999820292 496
11.059999819845 468
11.0799998193979 494
11.0999998189509 457
11.1199998185039 459
11.1399998180568 493
11.1599998176098 490
11.1799998171628 474
11.1999998167157 458
11.2199998162687 445
11.2399998158216 496
11.2599998153746 477
11.2799998149276 495
11.2999998144805 420
11.3199998140335 474
11.3399998135865 438
11.3599998131394 462
11.3799998126924 462
11.3999998122454 467
11.4199998117983 493
11.4399998113513 459
11.4599998109043 477
11.4799998104572 480
11.4999998100102 443
11.5199998095632 447
11.5399998091161 476
11.5599998086691 463
11.5799998082221 422
11.599999807775 459
11.619999807328 457
11.639999806881 475
11.6599998064339 468
11.6799998059869 477
11.6999998055398 433
11.7199998050928 473
11.7399998046458 435
11.7599998041987 442
11.7799998037517 471
11.7999998033047 421
11.8199998028576 461
11.8399998024106 453
11.8599998019636 468
11.8799998015165 459
11.8999998010695 468
11.9199998006225 458
11.9399998001754 473
11.9599997997284 455
11.9799997992814 473
11.9999997988343 459
12.0199997983873 448
12.0399997979403 483
12.0599997974932 471
12.0799997970462 441
12.0999997965992 454
12.1199997961521 487
12.1399997957051 472
12.159999795258 482
12.179999794811 471
12.199999794364 484
12.2199997939169 468
12.2399997934699 450
12.2599997930229 466
12.2799997925758 448
12.2999997921288 448
12.3199997916818 463
12.3399997912347 470
12.3599997907877 427
12.3799997903407 473
12.3999997898936 459
12.4199997894466 486
12.4399997889996 502
12.4599997885525 495
12.4799997881055 511
12.4999997876585 497
12.5199997872114 515
12.5399997867644 552
12.5599997863173 593
12.5799997858703 582
12.5999997854233 608
12.6199997849762 573
12.6399997845292 575
12.6599997840822 549
12.6799997836351 587
12.6999997831881 532
12.7199997827411 559
12.739999782294 541
12.759999781847 515
12.7799997814 523
12.7999997809529 528
12.8199997805059 485
12.8399997800589 540
12.8599997796118 507
12.8799997791648 504
12.8999997787178 486
12.9199997782707 454
12.9399997778237 459
12.9599997773767 461
12.9799997769296 459
12.9999997764826 495
13.0199997760355 505
13.0399997755885 470
13.0599997751415 446
13.0799997746944 508
13.0999997742474 486
13.1199997738004 520
13.1399997733533 557
13.1599997729063 508
13.1799997724593 525
13.1999997720122 500
13.2199997715652 551
13.2399997711182 582
13.2599997706711 576
13.2799997702241 626
13.2999997697771 651
13.31999976933 610
13.339999768883 690
13.359999768436 654
13.3799997679889 663
13.3999997675419 628
13.4199997670949 631
13.4399997666478 583
13.4599997662008 590
13.4799997657537 542
13.4999997653067 559
13.5199997648597 500
13.5399997644126 518
13.5599997639656 502
13.5799997635186 505
13.5999997630715 509
13.6199997626245 476
13.6399997621775 481
13.6599997617304 447
13.6799997612834 444
13.6999997608364 445
13.7199997603893 460
13.7399997599423 433
13.7599997594953 480
13.7799997590482 476
13.7999997586012 464
13.8199997581542 450
13.8399997577071 492
13.8599997572601 482
13.879999756813 452
13.899999756366 460
13.919999755919 439
13.9399997554719 470
13.9599997550249 463
13.9799997545779 463
13.9999997541308 439
14.0199997536838 441
14.0399997532368 457
14.0599997527897 450
14.0799997523427 454
14.0999997518957 445
14.1199997514486 488
14.1399997510016 466
14.1599997505546 468
14.1799997501075 474
14.1999997496605 447
14.2199997492135 451
14.2399997487664 472
14.2599997483194 468
14.2799997478724 481
14.2999997474253 491
14.3199997469783 459
14.3399997465312 421
14.3599997460842 458
14.3799997456372 511
14.3999997451901 510
14.4199997447431 503
14.4399997442961 423
14.459999743849 455
14.479999743402 475
14.499999742955 458
14.5199997425079 438
14.5399997420609 475
14.5599997416139 448
14.5799997411668 496
14.5999997407198 495
14.6199997402728 443
14.6399997398257 504
14.6599997393787 464
14.6799997389317 464
14.6999997384846 477
14.7199997380376 470
14.7399997375906 468
14.7599997371435 471
14.7799997366965 484
14.7999997362494 492
14.8199997358024 486
14.8399997353554 478
14.8599997349083 486
14.8799997344613 480
14.8999997340143 438
14.9199997335672 476
14.9399997331202 449
14.9599997326732 469
14.9799997322261 524
14.9999997317791 486
15.0199997313321 472
15.039999730885 487
15.059999730438 489
15.079999729991 475
15.0999997295439 462
15.1199997290969 444
15.1399997286499 462
15.1599997282028 434
15.1799997277558 453
15.1999997273088 509
15.2199997268617 523
15.2399997264147 524
15.2599997259676 486
15.2799997255206 478
15.2999997250736 487
15.3199997246265 488
15.3399997241795 476
15.3599997237325 478
15.3799997232854 489
15.3999997228384 449
15.4199997223914 514
15.4399997219443 479
15.4599997214973 487
15.4799997210503 503
15.4999997206032 473
15.5199997201562 485
15.5399997197092 499
15.5599997192621 456
15.5799997188151 518
15.5999997183681 495
15.619999717921 472
15.639999717474 513
15.659999717027 508
15.6799997165799 521
15.6999997161329 468
15.7199997156858 516
15.7399997152388 526
15.7599997147918 502
15.7799997143447 501
15.7999997138977 492
15.8199997134507 504
15.8399997130036 495
15.8599997125566 480
15.8799997121096 472
15.8999997116625 491
15.9199997112155 524
15.9399997107685 524
15.9599997103214 514
15.9799997098744 501
15.9999997094274 535
16.0199997089803 560
16.0399997085333 490
16.0599997080863 451
16.0799997076392 522
16.0999997071922 505
16.1199997067451 519
16.1399997062981 506
16.1599997058511 506
16.179999705404 490
16.199999704957 500
16.21999970451 536
16.2399997040629 521
16.2599997036159 558
16.2799997031689 498
16.2999997027218 493
16.3199997022748 527
16.3399997018278 555
16.3599997013807 545
16.3799997009337 477
16.3999997004867 544
16.4199997000396 486
16.4399996995926 556
16.4599996991456 520
16.4799996986985 501
16.4999996982515 495
16.5199996978045 534
16.5399996973574 544
16.5599996969104 544
16.5799996964633 542
16.5999996960163 513
16.6199996955693 520
16.6399996951222 564
16.6599996946752 543
16.6799996942282 512
16.6999996937811 540
16.7199996933341 590
16.7399996928871 614
16.75999969244 583
16.779999691993 571
16.799999691546 606
16.8199996910989 636
16.8399996906519 666
16.8599996902049 681
16.8799996897578 671
16.8999996893108 748
16.9199996888638 802
16.9399996884167 840
16.9599996879697 851
16.9799996875226 901
16.9999996870756 924
17.0199996866286 862
17.0399996861815 731
17.0599996857345 727
17.0799996852875 657
17.0999996848404 582
17.1199996843934 589
17.1399996839464 588
17.1599996834993 571
17.1799996830523 597
17.1999996826053 565
17.2199996821582 546
17.2399996817112 538
17.2599996812642 566
17.2799996808171 540
17.2999996803701 558
17.3199996799231 603
17.339999679476 599
17.359999679029 586
17.379999678582 554
17.3999996781349 551
17.4199996776879 513
17.4399996772408 593
17.4599996767938 542
17.4799996763468 558
17.4999996758997 542
17.5199996754527 537
17.5399996750057 547
17.5599996745586 600
17.5799996741116 614
17.5999996736646 582
17.6199996732175 538
17.6399996727705 604
17.6599996723235 575
17.6799996718764 594
17.6999996714294 613
17.7199996709824 625
17.7399996705353 606
17.7599996700883 606
17.7799996696413 583
17.7999996691942 627
17.8199996687472 604
17.8399996683002 597
17.8599996678531 614
17.8799996674061 650
17.899999666959 582
17.919999666512 631
17.939999666065 611
17.9599996656179 591
17.9799996651709 620
17.9999996647239 581
18.0199996642768 625
18.0399996638298 647
18.0599996633828 615
18.0799996629357 593
18.0999996624887 589
18.1199996620417 609
18.1399996615946 596
18.1599996611476 622
18.1799996607006 643
18.1999996602535 650
18.2199996598065 608
18.2399996593595 616
18.2599996589124 596
18.2799996584654 637
18.2999996580184 654
18.3199996575713 666
18.3399996571243 648
18.3599996566772 685
18.3799996562302 649
18.3999996557832 662
18.4199996553361 648
18.4399996548891 647
18.4599996544421 670
18.479999653995 672
18.499999653548 606
18.519999653101 653
18.5399996526539 635
18.5599996522069 651
18.5799996517599 631
18.5999996513128 679
18.6199996508658 604
18.6399996504188 648
18.6599996499717 646
18.6799996495247 702
18.6999996490777 666
18.7199996486306 636
18.7399996481836 687
18.7599996477366 615
18.7799996472895 658
18.7999996468425 645
18.8199996463954 640
18.8399996459484 626
18.8599996455014 641
18.8799996450543 665
18.8999996446073 655
18.9199996441603 656
18.9399996437132 693
18.9599996432662 651
18.9799996428192 640
18.9999996423721 654
19.0199996419251 659
19.0399996414781 668
19.059999641031 666
19.079999640584 693
19.099999640137 685
19.1199996396899 665
19.1399996392429 655
19.1599996387959 638
19.1799996383488 678
19.1999996379018 666
19.2199996374547 648
19.2399996370077 669
19.2599996365607 663
19.2799996361136 672
19.2999996356666 653
19.3199996352196 628
19.3399996347725 658
19.3599996343255 677
19.3799996338785 689
19.3999996334314 677
19.4199996329844 710
19.4399996325374 711
19.4599996320903 699
19.4799996316433 650
19.4999996311963 698
19.5199996307492 693
19.5399996303022 700
19.5599996298552 653
19.5799996294081 718
19.5999996289611 765
19.6199996285141 738
19.639999628067 774
19.65999962762 765
19.6799996271729 754
19.6999996267259 774
19.7199996262789 774
19.7399996258318 798
19.7599996253848 809
19.7799996249378 833
19.7999996244907 898
19.8199996240437 940
19.8399996235967 945
19.8599996231496 888
19.8799996227026 887
19.8999996222556 910
19.9199996218085 938
19.9399996213615 926
19.9599996209145 830
19.9799996204674 866
19.9999996200204 906
