3 2397
3.01999999955297 2299
3.03999999910593 2137
3.0599999986589 2033
3.07999999821186 1834
3.09999999776483 1821
3.11999999731779 1760
3.13999999687076 1805
3.15999999642372 1705
3.17999999597669 1710
3.19999999552965 1686
3.21999999508262 1745
3.23999999463558 1676
3.25999999418855 1644
3.27999999374151 1611
3.29999999329448 1540
3.31999999284744 1545
3.33999999240041 1495
3.35999999195337 1462
3.37999999150634 1471
3.3999999910593 1566
3.41999999061227 1483
3.43999999016523 1464
3.4599999897182 1394
3.47999998927116 1330
3.49999998882413 1461
3.51999998837709 1427
3.53999998793006 1371
3.55999998748302 1401
3.57999998703599 1339
3.59999998658895 1355
3.61999998614192 1324
3.63999998569489 1313
3.65999998524785 1263
3.67999998480082 1190
3.69999998435378 1252
3.71999998390675 1241
3.73999998345971 1203
3.75999998301268 1176
3.77999998256564 1226
3.79999998211861 1194
3.81999998167157 1167
3.83999998122454 1141
3.8599999807775 1096
3.87999998033047 1181
3.89999997988343 1110
3.9199999794364 1061
3.93999997898936 1128
3.95999997854233 1134
3.97999997809529 1181
3.99999997764826 1080
4.01999997720122 1061
4.03999997675419 1016
4.05999997630715 1086
4.07999997586012 1009
4.09999997541308 981
4.11999997496605 1073
4.13999997451901 1003
4.15999997407198 981
4.17999997362494 989
4.19999997317791 1034
4.21999997273087 971
4.23999997228384 1033
4.25999997183681 962
4.27999997138977 958
4.29999997094274 964
4.3199999704957 950
4.33999997004867 939
4.35999996960163 933
4.3799999691546 905
4.39999996870756 924
4.41999996826053 946
4.43999996781349 954
4.45999996736646 891
4.47999996691942 906
4.49999996647239 914
4.51999996602535 865
4.53999996557832 936
4.55999996513128 887
4.57999996468425 903
4.59999996423721 889
4.61999996379018 870
4.63999996334314 843
4.65999996289611 790
4.67999996244907 842
4.69999996200204 830
4.719999961555 874
4.73999996110797 828
4.75999996066093 843
4.7799999602139 849
4.79999995976686 840
4.81999995931983 784
4.83999995887279 775
4.85999995842576 823
4.87999995797873 804
4.89999995753169 854
4.91999995708466 837
4.93999995663762 813
4.95999995619059 719
4.97999995574355 823
4.99999995529652 783
5.01999995484948 749
5.03999995440245 778
5.05999995395541 764
5.07999995350838 792
5.09999995306134 740
5.11999995261431 757
5.13999995216727 727
5.15999995172024 764
5.1799999512732 793
5.19999995082617 778
5.21999995037913 729
5.2399999499321 747
5.25999994948506 753
5.27999994903803 790
5.29999994859099 733
5.31999994814396 745
5.33999994769692 722
5.35999994724989 781
5.37999994680285 771
5.39999994635582 772
5.41999994590878 733
5.43999994546175 751
5.45999994501471 771
5.47999994456768 785
5.49999994412065 717
5.51999994367361 778
5.53999994322658 719
5.55999994277954 721
5.57999994233251 783
5.59999994188547 742
5.61999994143844 716
5.6399999409914 780
5.65999994054437 772
5.67999994009733 718
5.6999999396503 768
5.71999993920326 733
5.73999993875623 744
5.75999993830919 759
5.77999993786216 745
5.79999993741512 719
5.81999993696809 716
5.83999993652105 731
5.85999993607402 717
5.87999993562698 719
5.89999993517995 822
5.91999993473291 721
5.93999993428588 669
5.95999993383884 710
5.97999993339181 713
5.99999993294477 784
6.01999993249774 735
6.0399999320507 796
6.05999993160367 746
6.07999993115663 712
6.0999999307096 745
6.11999993026257 751
6.13999992981553 725
6.1599999293685 777
6.17999992892146 730
6.19999992847443 729
6.21999992802739 733
6.23999992758036 748
6.25999992713332 752
6.27999992668629 732
6.29999992623925 667
6.31999992579222 738
6.33999992534518 754
6.35999992489815 717
6.37999992445111 727
6.39999992400408 726
6.41999992355704 743
6.43999992311001 734
6.45999992266297 694
6.47999992221594 733
6.4999999217689 665
6.51999992132187 706
6.53999992087483 728
6.5599999204278 706
6.57999991998076 765
6.59999991953373 709
6.61999991908669 754
6.63999991863966 753
6.65999991819262 734
6.67999991774559 751
6.69999991729855 681
6.71999991685152 760
6.73999991640449 736
6.75999991595745 734
6.77999991551042 688
6.79999991506338 751
6.81999991461635 694
6.83999991416931 681
6.85999991372228 699
6.87999991327524 703
6.89999991282821 724
6.91999991238117 701
6.93999991193414 687
6.9599999114871 681
6.97999991104007 722
6.99999991059303 698
7.019999910146 719
7.03999990969896 680
7.05999990925193 731
7.07999990880489 722
7.09999990835786 711
7.11999990791082 703
7.13999990746379 699
7.15999990701675 720
7.17999990656972 735
7.19999990612268 721
7.21999990567565 704
7.23999990522861 706
7.25999990478158 729
7.27999990433454 703
7.29999990388751 708
7.31999990344047 699
7.33999990299344 703
7.35999990254641 716
7.37999990209937 739
7.39999990165234 712
7.4199999012053 760
7.43999990075827 749
7.45999990031123 714
7.4799998998642 683
7.49999989941716 690
7.51999989897013 702
7.53999989852309 714
7.55999989807606 687
7.57999989762902 669
7.59999989718199 700
7.61999989673495 738
7.63999989628792 717
7.65999989584088 701
7.67999989539385 689
7.69999989494681 695
7.71999989449978 752
7.73999989405274 695
7.75999989360571 717
7.77999989315867 684
7.79999989271164 714
7.8199998922646 738
7.83999989181757 793
7.85999989137053 771
7.8799998909235 703
7.89999989047646 684
7.91999989002943 682
7.9399998895824 695
7.95999988913536 714
7.97999988868833 707
7.99999988824129 714
8.01999988779426 659
8.03999988734722 723
8.05999988690019 708
8.07999988645315 695
8.09999988600612 736
8.11999988555908 681
8.13999988511205 641
8.15999988466501 676
8.17999988421798 691
8.19999988377094 638
8.21999988332391 712
8.23999988287687 671
8.25999988242984 714
8.2799998819828 721
8.29999988153577 726
8.31999988108873 766
8.3399998806417 735
8.35999988019466 763
8.37999987974763 734
8.39999987930059 716
8.41999987885356 747
8.43999987840652 692
8.45999987795949 750
8.47999987751245 710
8.49999987706542 770
8.51999987661839 753
8.53999987617135 804
8.55999987572432 757
8.57999987527728 784
8.59999987483025 762
8.61999987438321 820
8.63999987393618 765
8.65999987348914 844
8.67999987304211 829
8.69999987259507 869
8.71999987214804 854
8.739999871701 907
8.75999987125397 885
8.77999987080693 948
8.7999998703599 963
8.81999986991286 978
8.83999986946583 1037
8.85999986901879 1130
8.87999986857176 1138
8.89999986812472 1131
8.91999986767769 1206
8.93999986723065 1292
8.95999986678362 1308
8.97999986633658 1261
8.99999986588955 1276
9.01999986544251 1283
9.03999986499548 1319
9.05999986454844 1225
9.07999986410141 1165
9.09999986365438 1173
9.11999986320734 1100
9.13999986276031 1022
9.15999986231327 1053
9.17999986186624 977
9.1999998614192 998
9.21999986097217 909
9.23999986052513 937
9.2599998600781 956
9.27999985963106 928
9.29999985918403 889
9.31999985873699 836
9.33999985828996 807
9.35999985784292 844
9.37999985739589 826
9.39999985694885 775
9.41999985650182 802
9.43999985605478 816
9.45999985560775 788
9.47999985516071 809
9.49999985471368 831
9.51999985426664 805
9.53999985381961 809
9.55999985337257 826
9.57999985292554 823
9.5999998524785 800
9.61999985203147 815
9.63999985158443 818
9.6599998511374 867
9.67999985069037 814
9.69999985024333 904
9.7199998497963 932
9.73999984934926 898
9.75999984890223 907
9.77999984845519 964
9.79999984800816 919
9.81999984756112 1014
9.83999984711409 983
9.85999984666705 978
9.87999984622002 1040
9.89999984577298 1049
9.91999984532595 1110
9.93999984487891 1198
9.95999984443188 1154
9.97999984398484 1214
9.99999984353781 1210
10.0199998430908 1224
10.0399998426437 1222
10.0599998421967 1189
10.0799998417497 1117
10.0999998413026 1104
10.1199998408556 998
10.1399998404086 992
10.1599998399615 909
10.1799998395145 874
10.1999998390675 883
10.2199998386204 800
10.2399998381734 813
10.2599998377264 769
10.2799998372793 769
10.2999998368323 781
10.3199998363853 729
10.3399998359382 746
10.3599998354912 737
10.3799998350441 737
10.3999998345971 703
10.4199998341501 746
10.439999833703 699
10.459999833256 733
10.479999832809 775
10.4999998323619 750
10.5199998319149 736
10.5399998314679 718
10.5599998310208 712
10.5799998305738 664
10.5999998301268 721
10.6199998296797 684
10.6399998292327 738
10.6599998287857 662
10.6799998283386 642
10.6999998278916 718
10.7199998274446 637
10.7399998269975 708
10.7599998265505 652
10.7799998261034 719
10.7999998256564 687
10.8199998252094 707
10.8399998247623 689
10.8599998243153 650
10.8799998238683 681
10.8999998234212 707
10.9199998229742 702
10.9399998225272 679
10.9599998220801 662
10.9799998216331 735
10.9999998211861 613
11.019999820739 671
11.039999820292 637
11.059999819845 662
11.0799998193979 657
11.0999998189509 706
11.1199998185039 648
11.1399998180568 684
11.1599998176098 639
11.1799998171628 688
11.1999998167157 735
11.2199998162687 669
11.2399998158216 652
11.2599998153746 654
11.2799998149276 693
11.2999998144805 699
11.3199998140335 650
11.3399998135865 701
11.3599998131394 651
11.3799998126924 668
11.3999998122454 698
11.4199998117983 699
11.4399998113513 700
11.4599998109043 687
11.4799998104572 683
11.4999998100102 648
11.5199998095632 675
11.5399998091161 682
11.5599998086691 641
11.5799998082221 700
11.599999807775 673
11.619999807328 614
11.639999806881 705
11.6599998064339 645
11.6799998059869 650
11.6999998055398 681
11.7199998050928 658
11.7399998046458 674
11.7599998041987 643
11.7799998037517 617
11.7999998033047 718
11.8199998028576 694
11.8399998024106 693
11.8599998019636 674
11.8799998015165 713
11.8999998010695 641
11.9199998006225 725
11.9399998001754 693
11.9599997997284 672
11.9799997992814 669
11.9999997988343 671
12.0199997983873 655
12.0399997979403 681
12.0599997974932 678
12.0799997970462 620
12.0999997965992 695
12.1199997961521 688
12.1399997957051 728
12.159999795258 642
12.179999794811 668
12.199999794364 686
12.2199997939169 665
12.2399997934699 685
12.2599997930229 696
12.2799997925758 645
12.2999997921288 682
12.3199997916818 680
12.3399997912347 687
12.3599997907877 720
12.3799997903407 719
12.3999997898936 664
12.4199997894466 689
12.4399997889996 708
12.4599997885525 721
12.4799997881055 715
12.4999997876585 722
12.5199997872114 731
12.5399997867644 744
12.5599997863173 770
12.5799997858703 805
12.5999997854233 740
12.6199997849762 793
12.6399997845292 796
12.6599997840822 853
12.6799997836351 782
12.6999997831881 797
12.7199997827411 747
12.739999782294 776
12.759999781847 792
12.7799997814 721
12.7999997809529 758
12.8199997805059 712
12.8399997800589 694
12.8599997796118 732
12.8799997791648 667
12.8999997787178 720
12.9199997782707 712
12.9399997778237 756
12.9599997773767 690
12.9799997769296 725
12.9999997764826 710
13.0199997760355 718
13.0399997755885 715
13.0599997751415 734
13.0799997746944 751
13.0999997742474 704
13.1199997738004 705
13.1399997733533 735
13.1599997729063 705
13.1799997724593 738
13.1999997720122 707
13.2199997715652 747
13.2399997711182 744
13.2599997706711 726
13.2799997702241 730
13.2999997697771 697
13.31999976933 723
13.339999768883 714
13.359999768436 730
13.3799997679889 783
13.3999997675419 756
13.4199997670949 711
13.4399997666478 684
13.4599997662008 699
13.4799997657537 701
13.4999997653067 690
13.5199997648597 714
13.5399997644126 732
13.5599997639656 738
13.5799997635186 722
13.5999997630715 686
13.6199997626245 709
13.6399997621775 732
13.6599997617304 721
13.6799997612834 709
13.6999997608364 751
13.7199997603893 694
13.7399997599423 709
13.7599997594953 751
13.7799997590482 789
13.7999997586012 718
13.8199997581542 666
13.8399997577071 675
13.8599997572601 693
13.879999756813 704
13.899999756366 724
13.919999755919 709
13.9399997554719 681
13.9599997550249 685
13.9799997545779 739
13.9999997541308 750
14.0199997536838 671
14.0399997532368 781
14.0599997527897 688
14.0799997523427 674
14.0999997518957 677
14.1199997514486 676
14.1399997510016 776
14.1599997505546 722
14.1799997501075 789
14.1999997496605 728
14.2199997492135 743
14.2399997487664 766
14.2599997483194 688
14.2799997478724 732
14.2999997474253 734
14.3199997469783 743
14.3399997465312 673
14.3599997460842 703
14.3799997456372 764
14.3999997451901 748
14.4199997447431 734
14.4399997442961 774
14.459999743849 708
14.479999743402 787
14.499999742955 773
14.5199997425079 752
14.5399997420609 704
14.5599997416139 744
14.5799997411668 772
14.5999997407198 707
14.6199997402728 695
14.6399997398257 716
14.6599997393787 765
14.6799997389317 733
14.6999997384846 744
14.7199997380376 711
14.7399997375906 715
14.7599997371435 723
14.7799997366965 726
14.7999997362494 768
14.8199997358024 736
14.8399997353554 774
14.8599997349083 758
14.8799997344613 695
14.8999997340143 701
14.9199997335672 770
14.9399997331202 773
14.9599997326732 758
14.9799997322261 765
14.9999997317791 732
15.0199997313321 735
15.039999730885 737
15.059999730438 768
15.079999729991 748
15.0999997295439 713
15.1199997290969 783
15.1399997286499 756
15.1599997282028 723
15.1799997277558 790
15.1999997273088 807
15.2199997268617 747
15.2399997264147 772
15.2599997259676 774
15.2799997255206 749
15.2999997250736 801
15.3199997246265 745
15.3399997241795 741
15.3599997237325 777
15.3799997232854 783
15.3999997228384 767
15.4199997223914 801
15.4399997219443 848
15.4599997214973 796
15.4799997210503 780
15.4999997206032 763
15.5199997201562 807
15.5399997197092 756
15.5599997192621 779
15.5799997188151 812
15.5999997183681 868
15.619999717921 881
15.639999717474 747
15.659999717027 759
15.6799997165799 781
15.6999997161329 753
15.7199997156858 763
15.7399997152388 794
15.7599997147918 798
15.7799997143447 822
15.7999997138977 783
15.8199997134507 754
15.8399997130036 796
15.8599997125566 809
15.8799997121096 786
15.8999997116625 789
15.9199997112155 827
15.9399997107685 819
15.9599997103214 799
15.9799997098744 808
15.9999997094274 872
16.0199997089803 793
16.0399997085333 801
16.0599997080863 800
16.0799997076392 872
16.0999997071922 842
16.1199997067451 817
16.1399997062981 866
16.1599997058511 855
16.179999705404 805
16.199999704957 792
16.21999970451 835
16.2399997040629 864
16.2599997036159 852
16.2799997031689 873
16.2999997027218 845
16.3199997022748 859
16.3399997018278 838
16.3599997013807 832
16.3799997009337 826
16.3999997004867 881
16.4199997000396 871
16.4399996995926 848
16.4599996991456 840
16.4799996986985 813
16.4999996982515 877
16.5199996978045 850
16.5399996973574 890
16.5599996969104 889
16.5799996964633 841
16.5999996960163 883
16.6199996955693 915
16.6399996951222 937
16.6599996946752 927
16.6799996942282 900
16.6999996937811 856
16.7199996933341 866
16.7399996928871 901
16.75999969244 969
16.779999691993 954
16.799999691546 904
16.8199996910989 945
16.8399996906519 959
16.8599996902049 1026
16.8799996897578 983
16.8999996893108 1068
16.9199996888638 1111
16.9399996884167 1172
16.9599996879697 1356
16.9799996875226 1445
16.9999996870756 1465
17.0199996866286 1623
17.0399996861815 1554
17.0599996857345 1660
17.0799996852875 1539
17.0999996848404 1441
17.1199996843934 1314
17.1399996839464 1191
17.1599996834993 1108
17.1799996830523 1073
17.1999996826053 997
17.2199996821582 1017
17.2399996817112 1011
17.2599996812642 988
17.2799996808171 971
17.2999996803701 1001
17.3199996799231 952
17.339999679476 965
17.359999679029 965
17.379999678582 973
17.3999996781349 989
17.4199996776879 997
17.4399996772408 966
17.4599996767938 949
17.4799996763468 989
17.4999996758997 990
17.5199996754527 984
17.5399996750057 1011
17.5599996745586 1018
17.5799996741116 987
17.5999996736646 1046
17.6199996732175 1005
17.6399996727705 1040
17.6599996723235 1082
17.6799996718764 1047
17.6999996714294 1023
17.7199996709824 1035
17.7399996705353 980
17.7599996700883 1059
17.7799996696413 1003
17.7999996691942 1077
17.8199996687472 1056
17.8399996683002 1048
17.8599996678531 1063
17.8799996674061 1055
17.899999666959 1027
17.919999666512 1001
17.939999666065 1053
17.9599996656179 1037
17.9799996651709 1071
17.9999996647239 1079
18.0199996642768 1119
18.0399996638298 1097
18.0599996633828 1050
18.0799996629357 1048
18.0999996624887 1093
18.1199996620417 1122
18.1399996615946 1137
18.1599996611476 1092
18.1799996607006 1101
18.1999996602535 1110
18.2199996598065 1101
18.2399996593595 1122
18.2599996589124 1124
18.2799996584654 1176
18.2999996580184 1119
18.3199996575713 1073
18.3399996571243 1049
18.3599996566772 1080
18.3799996562302 1083
18.3999996557832 1174
18.4199996553361 1078
18.4399996548891 1106
18.4599996544421 1199
18.479999653995 1145
18.499999653548 1090
18.519999653101 1158
18.5399996526539 1195
18.5599996522069 1199
18.5799996517599 1150
18.5999996513128 1171
18.6199996508658 1162
18.6399996504188 1120
18.6599996499717 1184
18.6799996495247 1150
18.6999996490777 1131
18.7199996486306 1166
18.7399996481836 1207
18.7599996477366 1170
18.7799996472895 1179
18.7999996468425 1226
18.8199996463954 1166
18.8399996459484 1213
18.8599996455014 1217
18.8799996450543 1173
18.8999996446073 1192
18.9199996441603 1251
18.9399996437132 1211
18.9599996432662 1127
18.9799996428192 1223
18.9999996423721 1241
19.0199996419251 1219
19.0399996414781 1252
19.059999641031 1200
19.079999640584 1298
19.099999640137 1167
19.1199996396899 1204
19.1399996392429 1201
19.1599996387959 1250
19.1799996383488 1244
19.1999996379018 1225
19.2199996374547 1205
19.2399996370077 1265
19.2599996365607 1259
19.2799996361136 1269
19.2999996356666 1293
19.3199996352196 1242
19.3399996347725 1298
19.3599996343255 1303
19.3799996338785 1222
19.3999996334314 1267
19.4199996329844 1279
19.4399996325374 1224
19.4599996320903 1271
19.4799996316433 1255
19.4999996311963 1249
19.5199996307492 1293
19.5399996303022 1322
19.5599996298552 1309
19.5799996294081 1336
19.5999996289611 1348
19.6199996285141 1334
19.639999628067 1326
19.65999962762 1346
19.6799996271729 1370
19.6999996267259 1360
19.7199996262789 1357
19.7399996258318 1373
19.7599996253848 1426
19.7799996249378 1421
19.7999996244907 1455
19.8199996240437 1423
19.8399996235967 1423
19.8599996231496 1414
19.8799996227026 1420
19.8999996222556 1404
19.9199996218085 1397
19.9399996213615 1372
19.9599996209145 1422
19.9799996204674 1424
19.9999996200204 1517
