3 1911
3.01999999955297 1840
3.03999999910593 1650
3.0599999986589 1628
3.07999999821186 1540
3.09999999776483 1496
3.11999999731779 1479
3.13999999687076 1441
3.15999999642372 1352
3.17999999597669 1371
3.19999999552965 1364
3.21999999508262 1323
3.23999999463558 1322
3.25999999418855 1270
3.27999999374151 1329
3.29999999329448 1341
3.31999999284744 1276
3.33999999240041 1248
3.35999999195337 1213
3.37999999150634 1184
3.3999999910593 1223
3.41999999061227 1182
3.43999999016523 1212
3.4599999897182 1180
3.47999998927116 1114
3.49999998882413 1162
3.51999998837709 1120
3.53999998793006 1175
3.55999998748302 1144
3.57999998703599 1078
3.59999998658895 1057
3.61999998614192 1105
3.63999998569489 1094
3.65999998524785 1073
3.67999998480082 1059
3.69999998435378 1043
3.71999998390675 990
3.73999998345971 1059
3.75999998301268 1090
3.77999998256564 980
3.79999998211861 1005
3.81999998167157 980
3.83999998122454 1020
3.8599999807775 1029
3.87999998033047 991
3.89999997988343 969
3.9199999794364 880
3.93999997898936 946
3.95999997854233 930
3.97999997809529 890
3.99999997764826 904
4.01999997720122 871
4.03999997675419 931
4.05999997630715 886
4.07999997586012 945
4.09999997541308 923
4.11999997496605 881
4.13999997451901 806
4.15999997407198 890
4.17999997362494 819
4.19999997317791 845
4.21999997273087 817
4.23999997228384 794
4.25999997183681 856
4.27999997138977 823
4.29999997094274 782
4.3199999704957 853
4.33999997004867 780
4.35999996960163 802
4.3799999691546 741
4.39999996870756 760
4.41999996826053 749
4.43999996781349 823
4.45999996736646 796
4.47999996691942 764
4.49999996647239 712
4.51999996602535 770
4.53999996557832 768
4.55999996513128 739
4.57999996468425 759
4.59999996423721 798
4.61999996379018 734
4.63999996334314 732
4.65999996289611 758
4.67999996244907 722
4.69999996200204 698
4.719999961555 726
4.73999996110797 731
4.75999996066093 687
4.7799999602139 723
4.79999995976686 707
4.81999995931983 684
4.83999995887279 705
4.85999995842576 747
4.87999995797873 682
4.89999995753169 657
4.91999995708466 713
4.93999995663762 672
4.95999995619059 622
4.97999995574355 764
4.99999995529652 757
5.01999995484948 670
5.03999995440245 671
5.05999995395541 703
5.07999995350838 705
5.09999995306134 683
5.11999995261431 678
5.13999995216727 681
5.15999995172024 638
5.1799999512732 684
5.19999995082617 685
5.21999995037913 697
5.2399999499321 715
5.25999994948506 659
5.27999994903803 676
5.29999994859099 669
5.31999994814396 704
5.33999994769692 663
5.35999994724989 682
5.37999994680285 649
5.39999994635582 669
5.41999994590878 641
5.43999994546175 645
5.45999994501471 655
5.47999994456768 703
5.49999994412065 668
5.51999994367361 656
5.53999994322658 683
5.55999994277954 618
5.57999994233251 664
5.59999994188547 651
5.61999994143844 664
5.6399999409914 639
5.65999994054437 623
5.67999994009733 643
5.6999999396503 632
5.71999993920326 657
5.73999993875623 652
5.75999993830919 652
5.77999993786216 705
5.79999993741512 628
5.81999993696809 642
5.83999993652105 650
5.85999993607402 679
5.87999993562698 630
5.89999993517995 632
5.91999993473291 625
5.93999993428588 649
5.95999993383884 658
5.97999993339181 637
5.99999993294477 633
6.01999993249774 666
6.0399999320507 665
6.05999993160367 655
6.07999993115663 629
6.0999999307096 663
6.11999993026257 660
6.13999992981553 647
6.1599999293685 586
6.17999992892146 651
6.19999992847443 682
6.21999992802739 653
6.23999992758036 651
6.25999992713332 660
6.27999992668629 666
6.29999992623925 669
6.31999992579222 648
6.33999992534518 642
6.35999992489815 687
6.37999992445111 673
6.39999992400408 650
6.41999992355704 646
6.43999992311001 642
6.45999992266297 613
6.47999992221594 672
6.4999999217689 633
6.51999992132187 672
6.53999992087483 676
6.5599999204278 629
6.57999991998076 642
6.59999991953373 635
6.61999991908669 671
6.63999991863966 636
6.65999991819262 626
6.67999991774559 634
6.69999991729855 643
6.71999991685152 624
6.73999991640449 637
6.75999991595745 704
6.77999991551042 633
6.79999991506338 669
6.81999991461635 624
6.83999991416931 687
6.85999991372228 657
6.87999991327524 641
6.89999991282821 619
6.91999991238117 654
6.93999991193414 626
6.9599999114871 643
6.97999991104007 682
6.99999991059303 643
7.019999910146 652
7.03999990969896 646
7.05999990925193 651
7.07999990880489 675
7.09999990835786 636
7.11999990791082 595
7.13999990746379 678
7.15999990701675 633
7.17999990656972 606
7.19999990612268 619
7.21999990567565 666
7.23999990522861 675
7.25999990478158 636
7.27999990433454 644
7.29999990388751 614
7.31999990344047 649
7.33999990299344 670
7.35999990254641 647
7.37999990209937 653
7.39999990165234 634
7.4199999012053 645
7.43999990075827 654
7.45999990031123 659
7.4799998998642 670
7.49999989941716 653
7.51999989897013 643
7.53999989852309 641
7.55999989807606 631
7.57999989762902 624
7.59999989718199 652
7.61999989673495 658
7.63999989628792 649
7.65999989584088 637
7.67999989539385 611
7.69999989494681 655
7.71999989449978 653
7.73999989405274 664
7.75999989360571 656
7.77999989315867 660
7.79999989271164 679
7.8199998922646 655
7.83999989181757 684
7.85999989137053 666
7.8799998909235 639
7.89999989047646 619
7.91999989002943 645
7.9399998895824 656
7.95999988913536 670
7.97999988868833 633
7.99999988824129 696
8.01999988779426 664
8.03999988734722 633
8.05999988690019 645
8.07999988645315 612
8.09999988600612 630
8.11999988555908 681
8.13999988511205 632
8.15999988466501 652
8.17999988421798 647
8.19999988377094 623
8.21999988332391 666
8.23999988287687 602
8.25999988242984 603
8.2799998819828 633
8.29999988153577 670
8.31999988108873 615
8.3399998806417 635
8.35999988019466 656
8.37999987974763 634
8.39999987930059 649
8.41999987885356 662
8.43999987840652 678
8.45999987795949 630
8.47999987751245 667
8.49999987706542 642
8.51999987661839 618
8.53999987617135 679
8.55999987572432 694
8.57999987527728 681
8.59999987483025 652
8.61999987438321 709
8.63999987393618 671
8.65999987348914 721
8.67999987304211 678
8.69999987259507 688
8.71999987214804 718
8.739999871701 724
8.75999987125397 709
8.77999987080693 743
8.7999998703599 810
8.81999986991286 782
8.83999986946583 815
8.85999986901879 896
8.87999986857176 909
8.89999986812472 909
8.91999986767769 959
8.93999986723065 1014
8.95999986678362 1036
8.97999986633658 1094
8.99999986588955 1138
9.01999986544251 1157
9.03999986499548 1237
9.05999986454844 1274
9.07999986410141 1273
9.09999986365438 1302
9.11999986320734 1339
9.13999986276031 1292
9.15999986231327 1226
9.17999986186624 1092
9.1999998614192 1026
9.21999986097217 988
9.23999986052513 879
9.2599998600781 812
9.27999985963106 842
9.29999985918403 728
9.31999985873699 770
9.33999985828996 728
9.35999985784292 682
9.37999985739589 758
9.39999985694885 705
9.41999985650182 708
9.43999985605478 704
9.45999985560775 724
9.47999985516071 719
9.49999985471368 685
9.51999985426664 732
9.53999985381961 754
9.55999985337257 748
9.57999985292554 727
9.5999998524785 728
9.61999985203147 704
9.63999985158443 759
9.6599998511374 755
9.67999985069037 815
9.69999985024333 782
9.7199998497963 810
9.73999984934926 793
9.75999984890223 844
9.77999984845519 873
9.79999984800816 914
9.81999984756112 852
9.83999984711409 898
9.85999984666705 939
9.87999984622002 935
9.89999984577298 941
9.91999984532595 1000
9.93999984487891 1056
9.95999984443188 1129
9.97999984398484 1156
9.99999984353781 1196
10.0199998430908 1184
10.0399998426437 1211
10.0599998421967 1226
10.0799998417497 1285
10.0999998413026 1196
10.1199998408556 1083
10.1399998404086 1027
10.1599998399615 890
10.1799998395145 831
10.1999998390675 852
10.2199998386204 750
10.2399998381734 738
10.2599998377264 719
10.2799998372793 704
10.2999998368323 708
10.3199998363853 704
10.3399998359382 670
10.3599998354912 672
10.3799998350441 651
10.3999998345971 698
10.4199998341501 722
10.439999833703 605
10.459999833256 664
10.479999832809 642
10.4999998323619 634
10.5199998319149 650
10.5399998314679 635
10.5599998310208 685
10.5799998305738 613
10.5999998301268 633
10.6199998296797 663
10.6399998292327 606
10.6599998287857 649
10.6799998283386 649
10.6999998278916 665
10.7199998274446 616
10.7399998269975 655
10.7599998265505 607
10.7799998261034 639
10.7999998256564 636
10.8199998252094 623
10.8399998247623 616
10.8599998243153 646
10.8799998238683 643
10.8999998234212 667
10.9199998229742 623
10.9399998225272 627
10.9599998220801 596
10.9799998216331 601
10.9999998211861 635
11.019999820739 602
11.039999820292 622
11.059999819845 583
11.0799998193979 614
11.0999998189509 632
11.1199998185039 644
11.1399998180568 641
11.1599998176098 623
11.1799998171628 665
11.1999998167157 686
11.2199998162687 657
11.2399998158216 633
11.2599998153746 655
11.2799998149276 620
11.2999998144805 663
11.3199998140335 636
11.3399998135865 644
11.3599998131394 591
11.3799998126924 617
11.3999998122454 607
11.4199998117983 656
11.4399998113513 638
11.4599998109043 654
11.4799998104572 648
11.4999998100102 639
11.5199998095632 662
11.5399998091161 621
11.5599998086691 661
11.5799998082221 627
11.599999807775 660
11.619999807328 635
11.639999806881 654
11.6599998064339 625
11.6799998059869 641
11.6999998055398 632
11.7199998050928 613
11.7399998046458 631
11.7599998041987 627
11.7799998037517 587
11.7999998033047 641
11.8199998028576 570
11.8399998024106 631
11.8599998019636 668
11.8799998015165 653
11.8999998010695 631
11.9199998006225 612
11.9399998001754 603
11.9599997997284 616
11.9799997992814 615
11.9999997988343 599
12.0199997983873 632
12.0399997979403 640
12.0599997974932 634
12.0799997970462 592
12.0999997965992 627
12.1199997961521 599
12.1399997957051 638
12.159999795258 632
12.179999794811 681
12.199999794364 626
12.2199997939169 620
12.2399997934699 602
12.2599997930229 639
12.2799997925758 651
12.2999997921288 633
12.3199997916818 633
12.3399997912347 599
12.3599997907877 599
12.3799997903407 643
12.3999997898936 607
12.4199997894466 628
12.4399997889996 653
12.4599997885525 651
12.4799997881055 599
12.4999997876585 662
12.5199997872114 678
12.5399997867644 704
12.5599997863173 668
12.5799997858703 649
12.5999997854233 699
12.6199997849762 749
12.6399997845292 732
12.6599997840822 747
12.6799997836351 757
12.6999997831881 769
12.7199997827411 772
12.739999782294 722
12.759999781847 762
12.7799997814 673
12.7999997809529 728
12.8199997805059 696
12.8399997800589 687
12.8599997796118 667
12.8799997791648 618
12.8999997787178 695
12.9199997782707 703
12.9399997778237 636
12.9599997773767 656
12.9799997769296 681
12.9999997764826 638
13.0199997760355 632
13.0399997755885 666
13.0599997751415 615
13.0799997746944 603
13.0999997742474 661
13.1199997738004 660
13.1399997733533 678
13.1599997729063 663
13.1799997724593 695
13.1999997720122 657
13.2199997715652 645
13.2399997711182 667
13.2599997706711 662
13.2799997702241 653
13.2999997697771 682
13.31999976933 670
13.339999768883 728
13.359999768436 670
13.3799997679889 682
13.3999997675419 675
13.4199997670949 689
13.4399997666478 684
13.4599997662008 649
13.4799997657537 647
13.4999997653067 683
13.5199997648597 696
13.5399997644126 734
13.5599997639656 630
13.5799997635186 628
13.5999997630715 662
13.6199997626245 642
13.6399997621775 636
13.6599997617304 652
13.6799997612834 680
13.6999997608364 616
13.7199997603893 614
13.7399997599423 694
13.7599997594953 646
13.7799997590482 646
13.7999997586012 645
13.8199997581542 629
13.8399997577071 596
13.8599997572601 631
13.879999756813 589
13.899999756366 664
13.919999755919 668
13.9399997554719 672
13.9599997550249 615
13.9799997545779 655
13.9999997541308 641
14.0199997536838 650
14.0399997532368 640
14.0599997527897 627
14.0799997523427 638
14.0999997518957 657
14.1199997514486 664
14.1399997510016 644
14.1599997505546 651
14.1799997501075 634
14.1999997496605 652
14.2199997492135 695
14.2399997487664 674
14.2599997483194 661
14.2799997478724 632
14.2999997474253 647
14.3199997469783 685
14.3399997465312 634
14.3599997460842 628
14.3799997456372 672
14.3999997451901 654
14.4199997447431 679
14.4399997442961 709
14.459999743849 661
14.479999743402 676
14.499999742955 684
14.5199997425079 709
14.5399997420609 666
14.5599997416139 686
14.5799997411668 683
14.5999997407198 645
14.6199997402728 690
14.6399997398257 626
14.6599997393787 667
14.6799997389317 702
14.6999997384846 618
14.7199997380376 640
14.7399997375906 653
14.7599997371435 682
14.7799997366965 703
14.7999997362494 618
14.8199997358024 679
14.8399997353554 665
14.8599997349083 657
14.8799997344613 695
14.8999997340143 713
14.9199997335672 677
14.9399997331202 726
14.9599997326732 651
14.9799997322261 637
14.9999997317791 636
15.0199997313321 676
15.039999730885 668
15.059999730438 694
15.079999729991 671
15.0999997295439 679
15.1199997290969 629
15.1399997286499 676
15.1599997282028 675
15.1799997277558 626
15.1999997273088 630
15.2199997268617 704
15.2399997264147 726
15.2599997259676 716
15.2799997255206 705
15.2999997250736 708
15.3199997246265 754
15.3399997241795 671
15.3599997237325 690
15.3799997232854 693
15.3999997228384 661
15.4199997223914 702
15.4399997219443 704
15.4599997214973 674
15.4799997210503 722
15.4999997206032 706
15.5199997201562 739
15.5399997197092 682
15.5599997192621 631
15.5799997188151 703
15.5999997183681 720
15.619999717921 721
15.639999717474 681
15.659999717027 720
15.6799997165799 682
15.6999997161329 735
15.7199997156858 708
15.7399997152388 671
15.7599997147918 755
15.7799997143447 740
15.7999997138977 750
15.8199997134507 759
15.8399997130036 710
15.8599997125566 737
15.8799997121096 768
15.8999997116625 757
15.9199997112155 710
15.9399997107685 705
15.9599997103214 756
15.9799997098744 704
15.9999997094274 723
16.0199997089803 748
16.0399997085333 751
16.0599997080863 740
16.0799997076392 734
16.0999997071922 709
16.1199997067451 711
16.1399997062981 765
16.1599997058511 702
16.179999705404 705
16.199999704957 708
16.21999970451 744
16.2399997040629 747
16.2599997036159 764
16.2799997031689 791
16.2999997027218 762
16.3199997022748 755
16.3399997018278 718
16.3599997013807 760
16.3799997009337 791
16.3999997004867 750
16.4199997000396 792
16.4399996995926 734
16.4599996991456 801
16.4799996986985 731
16.4999996982515 785
16.5199996978045 708
16.5399996973574 726
16.5599996969104 771
16.5799996964633 787
16.5999996960163 789
16.6199996955693 762
16.6399996951222 804
16.6599996946752 848
16.6799996942282 820
16.6999996937811 821
16.7199996933341 794
16.7399996928871 793
16.75999969244 827
16.779999691993 898
16.799999691546 835
16.8199996910989 840
16.8399996906519 880
16.8599996902049 872
16.8799996897578 864
16.8999996893108 826
16.9199996888638 883
16.9399996884167 941
16.9599996879697 978
16.9799996875226 1001
16.9999996870756 1014
17.0199996866286 1045
17.0399996861815 1075
17.0599996857345 1031
17.0799996852875 1069
17.0999996848404 1175
17.1199996843934 1126
17.1399996839464 1149
17.1599996834993 1132
17.1799996830523 1027
17.1999996826053 1001
17.2199996821582 948
17.2399996817112 843
17.2599996812642 857
17.2799996808171 871
17.2999996803701 907
17.3199996799231 846
17.339999679476 834
17.359999679029 871
17.379999678582 893
17.3999996781349 864
17.4199996776879 882
17.4399996772408 874
17.4599996767938 853
17.4799996763468 863
17.4999996758997 897
17.5199996754527 928
17.5399996750057 894
17.5599996745586 865
17.5799996741116 866
17.5999996736646 916
17.6199996732175 912
17.6399996727705 832
17.6599996723235 879
17.6799996718764 856
17.6999996714294 921
17.7199996709824 968
17.7399996705353 885
17.7599996700883 938
17.7799996696413 939
17.7999996691942 866
17.8199996687472 874
17.8399996683002 939
17.8599996678531 1001
17.8799996674061 969
17.899999666959 939
17.919999666512 972
17.939999666065 894
17.9599996656179 942
17.9799996651709 928
17.9999996647239 939
18.0199996642768 914
18.0399996638298 972
18.0599996633828 935
18.0799996629357 941
18.0999996624887 923
18.1199996620417 943
18.1399996615946 978
18.1599996611476 1000
18.1799996607006 992
18.1999996602535 957
18.2199996598065 1004
18.2399996593595 913
18.2599996589124 953
18.2799996584654 978
18.2999996580184 1028
18.3199996575713 999
18.3399996571243 1016
18.3599996566772 969
18.3799996562302 936
18.3999996557832 1016
18.4199996553361 1014
18.4399996548891 1060
18.4599996544421 1028
18.479999653995 1041
18.499999653548 1041
18.519999653101 997
18.5399996526539 1016
18.5599996522069 1032
18.5799996517599 1018
18.5999996513128 985
18.6199996508658 1024
18.6399996504188 1063
18.6599996499717 1030
18.6799996495247 1022
18.6999996490777 1040
18.7199996486306 1059
18.7399996481836 1036
18.7599996477366 1057
18.7799996472895 1003
18.7999996468425 1048
18.8199996463954 1037
18.8399996459484 1007
18.8599996455014 1056
18.8799996450543 1047
18.8999996446073 994
18.9199996441603 1042
18.9399996437132 1026
18.9599996432662 1076
18.9799996428192 1057
18.9999996423721 1061
19.0199996419251 1026
19.0399996414781 1044
19.059999641031 1099
19.079999640584 1124
19.099999640137 1064
19.1199996396899 1090
19.1399996392429 1124
19.1599996387959 1155
19.1799996383488 1103
19.1999996379018 1119
19.2199996374547 1092
19.2399996370077 1064
19.2599996365607 1071
19.2799996361136 1130
19.2999996356666 1073
19.3199996352196 1128
19.3399996347725 1029
19.3599996343255 1081
19.3799996338785 1090
19.3999996334314 1108
19.4199996329844 1105
19.4399996325374 1147
19.4599996320903 1132
19.4799996316433 1171
19.4999996311963 1083
19.5199996307492 1115
19.5399996303022 1114
19.5599996298552 1160
19.5799996294081 1129
19.5999996289611 1111
19.6199996285141 1119
19.639999628067 1174
19.65999962762 1131
19.6799996271729 1223
19.6999996267259 1140
19.7199996262789 1154
19.7399996258318 1139
19.7599996253848 1178
19.7799996249378 1189
19.7999996244907 1263
19.8199996240437 1167
19.8399996235967 1198
19.8599996231496 1212
19.8799996227026 1225
19.8999996222556 1209
19.9199996218085 1353
19.9399996213615 1253
19.9599996209145 1333
19.9799996204674 1339
19.9999996200204 1322
