3 1939
3.01999999955297 1825
3.03999999910593 1804
3.0599999986589 1625
3.07999999821186 1586
3.09999999776483 1524
3.11999999731779 1395
3.13999999687076 1429
3.15999999642372 1397
3.17999999597669 1348
3.19999999552965 1345
3.21999999508262 1401
3.23999999463558 1281
3.25999999418855 1350
3.27999999374151 1221
3.29999999329448 1254
3.31999999284744 1252
3.33999999240041 1231
3.35999999195337 1246
3.37999999150634 1248
3.3999999910593 1187
3.41999999061227 1167
3.43999999016523 1161
3.4599999897182 1092
3.47999998927116 1130
3.49999998882413 1169
3.51999998837709 1134
3.53999998793006 1079
3.55999998748302 1066
3.57999998703599 1138
3.59999998658895 1089
3.61999998614192 1056
3.63999998569489 1051
3.65999998524785 1017
3.67999998480082 1006
3.69999998435378 1000
3.71999998390675 1025
3.73999998345971 951
3.75999998301268 966
3.77999998256564 993
3.79999998211861 1022
3.81999998167157 967
3.83999998122454 927
3.8599999807775 929
3.87999998033047 944
3.89999997988343 978
3.9199999794364 914
3.93999997898936 903
3.95999997854233 949
3.97999997809529 941
3.99999997764826 929
4.01999997720122 930
4.03999997675419 898
4.05999997630715 942
4.07999997586012 867
4.09999997541308 891
4.11999997496605 880
4.13999997451901 834
4.15999997407198 842
4.17999997362494 821
4.19999997317791 881
4.21999997273087 865
4.23999997228384 872
4.25999997183681 835
4.27999997138977 757
4.29999997094274 814
4.3199999704957 798
4.33999997004867 829
4.35999996960163 819
4.3799999691546 838
4.39999996870756 811
4.41999996826053 817
4.43999996781349 808
4.45999996736646 796
4.47999996691942 807
4.49999996647239 756
4.51999996602535 753
4.53999996557832 750
4.55999996513128 783
4.57999996468425 761
4.59999996423721 738
4.61999996379018 754
4.63999996334314 767
4.65999996289611 704
4.67999996244907 738
4.69999996200204 731
4.719999961555 718
4.73999996110797 739
4.75999996066093 712
4.7799999602139 720
4.79999995976686 723
4.81999995931983 673
4.83999995887279 702
4.85999995842576 695
4.87999995797873 751
4.89999995753169 706
4.91999995708466 715
4.93999995663762 718
4.95999995619059 744
4.97999995574355 692
4.99999995529652 692
5.01999995484948 768
5.03999995440245 771
5.05999995395541 753
5.07999995350838 750
5.09999995306134 785
5.11999995261431 757
5.13999995216727 768
5.15999995172024 753
5.1799999512732 720
5.19999995082617 811
5.21999995037913 831
5.2399999499321 798
5.25999994948506 857
5.27999994903803 861
5.29999994859099 935
5.31999994814396 950
5.33999994769692 1000
5.35999994724989 1044
5.37999994680285 1016
5.39999994635582 1108
5.41999994590878 1236
5.43999994546175 1243
5.45999994501471 1290
5.47999994456768 1390
5.49999994412065 1466
5.51999994367361 1466
5.53999994322658 1599
5.55999994277954 1592
5.57999994233251 1511
5.59999994188547 1420
5.61999994143844 1283
5.6399999409914 1285
5.65999994054437 1269
5.67999994009733 1319
5.6999999396503 1334
5.71999993920326 1305
5.73999993875623 1295
5.75999993830919 1375
5.77999993786216 1392
5.79999993741512 1427
5.81999993696809 1418
5.83999993652105 1382
5.85999993607402 1363
5.87999993562698 1312
5.89999993517995 1242
5.91999993473291 1136
5.93999993428588 1061
5.95999993383884 1033
5.97999993339181 907
5.99999993294477 884
6.01999993249774 806
6.0399999320507 802
6.05999993160367 710
6.07999993115663 741
6.0999999307096 716
6.11999993026257 695
6.13999992981553 702
6.1599999293685 724
6.17999992892146 693
6.19999992847443 661
6.21999992802739 671
6.23999992758036 706
6.25999992713332 646
6.27999992668629 608
6.29999992623925 660
6.31999992579222 669
6.33999992534518 683
6.35999992489815 650
6.37999992445111 616
6.39999992400408 650
6.41999992355704 613
6.43999992311001 673
6.45999992266297 688
6.47999992221594 682
6.4999999217689 652
6.51999992132187 654
6.53999992087483 661
6.5599999204278 683
6.57999991998076 644
6.59999991953373 676
6.61999991908669 655
6.63999991863966 717
6.65999991819262 673
6.67999991774559 711
6.69999991729855 753
6.71999991685152 705
6.73999991640449 755
6.75999991595745 798
6.77999991551042 787
6.79999991506338 758
6.81999991461635 817
6.83999991416931 768
6.85999991372228 778
6.87999991327524 801
6.89999991282821 776
6.91999991238117 835
6.93999991193414 776
6.9599999114871 800
6.97999991104007 784
6.99999991059303 779
7.019999910146 795
7.03999990969896 854
7.05999990925193 809
7.07999990880489 840
7.09999990835786 808
7.11999990791082 802
7.13999990746379 787
7.15999990701675 822
7.17999990656972 796
7.19999990612268 867
7.21999990567565 805
7.23999990522861 820
7.25999990478158 842
7.27999990433454 830
7.29999990388751 851
7.31999990344047 904
7.33999990299344 824
7.35999990254641 882
7.37999990209937 849
7.39999990165234 882
7.4199999012053 940
7.43999990075827 891
7.45999990031123 890
7.4799998998642 878
7.49999989941716 819
7.51999989897013 823
7.53999989852309 894
7.55999989807606 841
7.57999989762902 773
7.59999989718199 811
7.61999989673495 760
7.63999989628792 747
7.65999989584088 690
7.67999989539385 731
7.69999989494681 688
7.71999989449978 668
7.73999989405274 659
7.75999989360571 690
7.77999989315867 690
7.79999989271164 648
7.8199998922646 656
7.83999989181757 636
7.85999989137053 649
7.8799998909235 635
7.89999989047646 653
7.91999989002943 603
7.9399998895824 612
7.95999988913536 648
7.97999988868833 619
7.99999988824129 568
8.01999988779426 642
8.03999988734722 664
8.05999988690019 616
8.07999988645315 573
8.09999988600612 577
8.11999988555908 594
8.13999988511205 629
8.15999988466501 574
8.17999988421798 600
8.19999988377094 615
8.21999988332391 569
8.23999988287687 596
8.25999988242984 596
8.2799998819828 611
8.29999988153577 626
8.31999988108873 578
8.3399998806417 594
8.35999988019466 568
8.37999987974763 588
8.39999987930059 598
8.41999987885356 557
8.43999987840652 536
8.45999987795949 605
8.47999987751245 587
8.49999987706542 640
8.51999987661839 592
8.53999987617135 610
8.55999987572432 605
8.57999987527728 561
8.59999987483025 576
8.61999987438321 547
8.63999987393618 587
8.65999987348914 569
8.67999987304211 588
8.69999987259507 573
8.71999987214804 592
8.739999871701 537
8.75999987125397 574
8.77999987080693 557
8.7999998703599 530
8.81999986991286 589
8.83999986946583 591
8.85999986901879 552
8.87999986857176 564
8.89999986812472 546
8.91999986767769 531
8.93999986723065 558
8.95999986678362 570
8.97999986633658 558
8.99999986588955 564
9.01999986544251 599
9.03999986499548 558
9.05999986454844 608
9.07999986410141 569
9.09999986365438 524
9.11999986320734 614
9.13999986276031 597
9.15999986231327 624
9.17999986186624 623
9.1999998614192 597
9.21999986097217 599
9.23999986052513 634
9.2599998600781 689
9.27999985963106 691
9.29999985918403 710
9.31999985873699 781
9.33999985828996 801
9.35999985784292 805
9.37999985739589 877
9.39999985694885 982
9.41999985650182 900
9.43999985605478 1008
9.45999985560775 1038
9.47999985516071 944
9.49999985471368 833
9.51999985426664 718
9.53999985381961 635
9.55999985337257 630
9.57999985292554 651
9.5999998524785 599
9.61999985203147 563
9.63999985158443 553
9.6599998511374 637
9.67999985069037 607
9.69999985024333 593
9.7199998497963 626
9.73999984934926 576
9.75999984890223 624
9.77999984845519 550
9.79999984800816 619
9.81999984756112 569
9.83999984711409 580
9.85999984666705 564
9.87999984622002 598
9.89999984577298 586
9.91999984532595 601
9.93999984487891 578
9.95999984443188 580
9.97999984398484 553
9.99999984353781 578
10.0199998430908 582
10.0399998426437 538
10.0599998421967 579
10.0799998417497 575
10.0999998413026 578
10.1199998408556 576
10.1399998404086 597
10.1599998399615 579
10.1799998395145 595
10.1999998390675 626
10.2199998386204 604
10.2399998381734 616
10.2599998377264 600
10.2799998372793 594
10.2999998368323 633
10.3199998363853 578
10.3399998359382 615
10.3599998354912 591
10.3799998350441 602
10.3999998345971 587
10.4199998341501 550
10.439999833703 597
10.459999833256 566
10.479999832809 567
10.4999998323619 545
10.5199998319149 544
10.5399998314679 545
10.5599998310208 556
10.5799998305738 568
10.5999998301268 575
10.6199998296797 535
10.6399998292327 551
10.6599998287857 595
10.6799998283386 565
10.6999998278916 554
10.7199998274446 575
10.7399998269975 631
10.7599998265505 612
10.7799998261034 668
10.7999998256564 663
10.8199998252094 653
10.8399998247623 725
10.8599998243153 741
10.8799998238683 764
10.8999998234212 757
10.9199998229742 748
10.9399998225272 732
10.9599998220801 774
10.9799998216331 773
10.9999998211861 731
11.019999820739 766
11.039999820292 760
11.059999819845 729
11.0799998193979 755
11.0999998189509 764
11.1199998185039 649
11.1399998180568 622
11.1599998176098 624
11.1799998171628 595
11.1999998167157 582
11.2199998162687 560
11.2399998158216 555
11.2599998153746 528
11.2799998149276 541
11.2999998144805 582
11.3199998140335 572
11.3399998135865 548
11.3599998131394 561
11.3799998126924 528
11.3999998122454 531
11.4199998117983 617
11.4399998113513 566
11.4599998109043 624
11.4799998104572 595
11.4999998100102 569
11.5199998095632 550
11.5399998091161 569
11.5599998086691 579
11.5799998082221 601
11.599999807775 604
11.619999807328 559
11.639999806881 613
11.6599998064339 559
11.6799998059869 603
11.6999998055398 614
11.7199998050928 608
11.7399998046458 571
11.7599998041987 554
11.7799998037517 590
11.7999998033047 574
11.8199998028576 573
11.8399998024106 572
11.8599998019636 544
11.8799998015165 532
11.8999998010695 583
11.9199998006225 538
11.9399998001754 543
11.9599997997284 575
11.9799997992814 578
11.9999997988343 584
12.0199997983873 597
12.0399997979403 600
12.0599997974932 618
12.0799997970462 576
12.0999997965992 587
12.1199997961521 581
12.1399997957051 596
12.159999795258 586
12.179999794811 600
12.199999794364 622
12.2199997939169 596
12.2399997934699 591
12.2599997930229 593
12.2799997925758 633
12.2999997921288 627
12.3199997916818 587
12.3399997912347 610
12.3599997907877 587
12.3799997903407 615
12.3999997898936 628
12.4199997894466 599
12.4399997889996 556
12.4599997885525 586
12.4799997881055 560
12.4999997876585 587
12.5199997872114 576
12.5399997867644 555
12.5599997863173 531
12.5799997858703 533
12.5999997854233 573
12.6199997849762 541
12.6399997845292 580
12.6599997840822 588
12.6799997836351 575
12.6999997831881 564
12.7199997827411 525
12.739999782294 526
12.759999781847 553
12.7799997814 570
12.7999997809529 569
12.8199997805059 565
12.8399997800589 545
12.8599997796118 545
12.8799997791648 546
12.8999997787178 567
12.9199997782707 558
12.9399997778237 535
12.9599997773767 545
12.9799997769296 583
12.9999997764826 563
13.0199997760355 568
13.0399997755885 567
13.0599997751415 569
13.0799997746944 548
13.0999997742474 573
13.1199997738004 527
13.1399997733533 553
13.1599997729063 528
13.1799997724593 546
13.1999997720122 546
13.2199997715652 572
13.2399997711182 570
13.2599997706711 589
13.2799997702241 565
13.2999997697771 559
13.31999976933 607
13.339999768883 553
13.359999768436 564
13.3799997679889 563
13.3999997675419 551
13.4199997670949 564
13.4399997666478 587
13.4599997662008 582
13.4799997657537 590
13.4999997653067 537
13.5199997648597 605
13.5399997644126 620
13.5599997639656 577
13.5799997635186 592
13.5999997630715 593
13.6199997626245 543
13.6399997621775 568
13.6599997617304 616
13.6799997612834 557
13.6999997608364 562
13.7199997603893 606
13.7399997599423 567
13.7599997594953 611
13.7799997590482 585
13.7999997586012 593
13.8199997581542 587
13.8399997577071 610
13.8599997572601 606
13.879999756813 603
13.899999756366 568
13.919999755919 607
13.9399997554719 600
13.9599997550249 608
13.9799997545779 608
13.9999997541308 614
14.0199997536838 605
14.0399997532368 581
14.0599997527897 599
14.0799997523427 606
14.0999997518957 586
14.1199997514486 601
14.1399997510016 586
14.1599997505546 634
14.1799997501075 589
14.1999997496605 631
14.2199997492135 643
14.2399997487664 595
14.2599997483194 610
14.2799997478724 604
14.2999997474253 617
14.3199997469783 595
14.3399997465312 647
14.3599997460842 645
14.3799997456372 668
14.3999997451901 642
14.4199997447431 666
14.4399997442961 629
14.459999743849 640
14.479999743402 620
14.499999742955 592
14.5199997425079 598
14.5399997420609 618
14.5599997416139 595
14.5799997411668 615
14.5999997407198 600
14.6199997402728 633
14.6399997398257 607
14.6599997393787 615
14.6799997389317 580
14.6999997384846 606
14.7199997380376 675
14.7399997375906 634
14.7599997371435 672
14.7799997366965 659
14.7999997362494 617
14.8199997358024 639
14.8399997353554 646
14.8599997349083 650
14.8799997344613 606
14.8999997340143 631
14.9199997335672 636
14.9399997331202 628
14.9599997326732 668
14.9799997322261 645
14.9999997317791 625
15.0199997313321 618
15.039999730885 652
15.059999730438 618
15.079999729991 638
15.0999997295439 634
15.1199997290969 618
15.1399997286499 621
15.1599997282028 603
15.1799997277558 657
15.1999997273088 657
15.2199997268617 636
15.2399997264147 686
15.2599997259676 662
15.2799997255206 641
15.2999997250736 627
15.3199997246265 624
15.3399997241795 662
15.3599997237325 636
15.3799997232854 681
15.3999997228384 650
15.4199997223914 634
15.4399997219443 643
15.4599997214973 650
15.4799997210503 653
15.4999997206032 650
15.5199997201562 648
15.5399997197092 659
15.5599997192621 661
15.5799997188151 611
15.5999997183681 658
15.619999717921 669
15.639999717474 669
15.659999717027 683
15.6799997165799 662
15.6999997161329 640
15.7199997156858 676
15.7399997152388 709
15.7599997147918 699
15.7799997143447 657
15.7999997138977 673
15.8199997134507 706
15.8399997130036 694
15.8599997125566 725
15.8799997121096 691
15.8999997116625 671
15.9199997112155 703
15.9399997107685 676
15.9599997103214 743
15.9799997098744 716
15.9999997094274 703
16.0199997089803 745
16.0399997085333 745
16.0599997080863 652
16.0799997076392 702
16.0999997071922 675
16.1199997067451 689
16.1399997062981 730
16.1599997058511 734
16.179999705404 688
16.199999704957 757
16.21999970451 735
16.2399997040629 735
16.2599997036159 742
16.2799997031689 689
16.2999997027218 704
16.3199997022748 699
16.3399997018278 735
16.3599997013807 756
16.3799997009337 739
16.3999997004867 762
16.4199997000396 728
16.4399996995926 778
16.4599996991456 736
16.4799996986985 788
16.4999996982515 750
16.5199996978045 716
16.5399996973574 755
16.5599996969104 731
16.5799996964633 792
16.5999996960163 737
16.6199996955693 729
16.6399996951222 795
16.6599996946752 743
16.6799996942282 757
16.6999996937811 782
16.7199996933341 806
16.7399996928871 771
16.75999969244 804
16.779999691993 797
16.799999691546 793
16.8199996910989 756
16.8399996906519 784
16.8599996902049 782
16.8799996897578 773
16.8999996893108 829
16.9199996888638 826
16.9399996884167 846
16.9599996879697 899
16.9799996875226 966
16.9999996870756 1054
17.0199996866286 1064
17.0399996861815 1122
17.0599996857345 1164
17.0799996852875 1238
17.0999996848404 1161
17.1199996843934 1146
17.1399996839464 1151
17.1599996834993 1092
17.1799996830523 961
17.1999996826053 920
17.2199996821582 845
17.2399996817112 843
17.2599996812642 848
17.2799996808171 838
17.2999996803701 829
17.3199996799231 893
17.339999679476 822
17.359999679029 862
17.379999678582 884
17.3999996781349 866
17.4199996776879 824
17.4399996772408 838
17.4599996767938 870
17.4799996763468 868
17.4999996758997 865
17.5199996754527 847
17.5399996750057 815
17.5599996745586 887
17.5799996741116 843
17.5999996736646 893
17.6199996732175 868
17.6399996727705 909
17.6599996723235 887
17.6799996718764 861
17.6999996714294 844
17.7199996709824 853
17.7399996705353 883
17.7599996700883 861
17.7799996696413 968
17.7999996691942 883
17.8199996687472 863
17.8399996683002 856
17.8599996678531 889
17.8799996674061 897
17.899999666959 901
17.919999666512 870
17.939999666065 895
17.9599996656179 988
17.9799996651709 905
17.9999996647239 918
18.0199996642768 871
18.0399996638298 904
18.0599996633828 908
18.0799996629357 883
18.0999996624887 972
18.1199996620417 944
18.1399996615946 959
18.1599996611476 874
18.1799996607006 918
18.1999996602535 915
18.2199996598065 905
18.2399996593595 886
18.2599996589124 943
18.2799996584654 948
18.2999996580184 956
18.3199996575713 936
18.3399996571243 968
18.3599996566772 993
18.3799996562302 1016
18.3999996557832 954
18.4199996553361 1026
18.4399996548891 1020
18.4599996544421 1000
18.479999653995 984
18.499999653548 1001
18.519999653101 968
18.5399996526539 1014
18.5599996522069 998
18.5799996517599 970
18.5999996513128 1038
18.6199996508658 1056
18.6399996504188 1059
18.6599996499717 1045
18.6799996495247 983
18.6999996490777 1003
18.7199996486306 1043
18.7399996481836 1069
18.7599996477366 1091
18.7799996472895 1108
18.7999996468425 1046
18.8199996463954 1116
18.8399996459484 1102
18.8599996455014 1061
18.8799996450543 1057
18.8999996446073 1011
18.9199996441603 1038
18.9399996437132 1042
18.9599996432662 1064
18.9799996428192 1124
18.9999996423721 1104
19.0199996419251 1099
19.0399996414781 1059
19.059999641031 1107
19.079999640584 1035
19.099999640137 1119
19.1199996396899 1143
19.1399996392429 1143
19.1599996387959 1118
19.1799996383488 1173
19.1999996379018 1165
19.2199996374547 1155
19.2399996370077 1160
19.2599996365607 1126
19.2799996361136 1120
19.2999996356666 1155
19.3199996352196 1148
19.3399996347725 1116
19.3599996343255 1131
19.3799996338785 1129
19.3999996334314 1120
19.4199996329844 1173
19.4399996325374 1218
19.4599996320903 1106
19.4799996316433 1269
19.4999996311963 1188
19.5199996307492 1254
19.5399996303022 1289
19.5599996298552 1290
19.5799996294081 1255
19.5999996289611 1258
19.6199996285141 1325
19.639999628067 1273
19.65999962762 1277
19.6799996271729 1251
19.6999996267259 1281
19.7199996262789 1170
19.7399996258318 1218
19.7599996253848 1224
19.7799996249378 1150
19.7999996244907 1171
19.8199996240437 1184
19.8399996235967 1254
19.8599996231496 1151
19.8799996227026 1221
19.8999996222556 1218
19.9199996218085 1243
19.9399996213615 1213
19.9599996209145 1235
19.9799996204674 1203
19.9999996200204 1183
