3 1939
3.01999999955297 1776
3.03999999910593 1619
3.0599999986589 1482
3.07999999821186 1494
3.09999999776483 1425
3.11999999731779 1337
3.13999999687076 1332
3.15999999642372 1332
3.17999999597669 1297
3.19999999552965 1280
3.21999999508262 1220
3.23999999463558 1245
3.25999999418855 1262
3.27999999374151 1204
3.29999999329448 1187
3.31999999284744 1173
3.33999999240041 1227
3.35999999195337 1172
3.37999999150634 1223
3.3999999910593 1098
3.41999999061227 1173
3.43999999016523 1146
3.4599999897182 1131
3.47999998927116 1138
3.49999998882413 1059
3.51999998837709 1091
3.53999998793006 1101
3.55999998748302 1091
3.57999998703599 1085
3.59999998658895 1030
3.61999998614192 1003
3.63999998569489 1050
3.65999998524785 1057
3.67999998480082 1034
3.69999998435378 1038
3.71999998390675 931
3.73999998345971 913
3.75999998301268 975
3.77999998256564 972
3.79999998211861 944
3.81999998167157 927
3.83999998122454 914
3.8599999807775 904
3.87999998033047 933
3.89999997988343 890
3.9199999794364 874
3.93999997898936 904
3.95999997854233 870
3.97999997809529 921
3.99999997764826 806
4.01999997720122 806
4.03999997675419 845
4.05999997630715 834
4.07999997586012 797
4.09999997541308 793
4.11999997496605 798
4.13999997451901 765
4.15999997407198 810
4.17999997362494 838
4.19999997317791 831
4.21999997273087 781
4.23999997228384 790
4.25999997183681 745
4.27999997138977 737
4.29999997094274 763
4.3199999704957 705
4.33999997004867 755
4.35999996960163 793
4.3799999691546 714
4.39999996870756 717
4.41999996826053 745
4.43999996781349 668
4.45999996736646 702
4.47999996691942 721
4.49999996647239 708
4.51999996602535 727
4.53999996557832 716
4.55999996513128 722
4.57999996468425 721
4.59999996423721 745
4.61999996379018 692
4.63999996334314 678
4.65999996289611 634
4.67999996244907 662
4.69999996200204 587
4.719999961555 683
4.73999996110797 704
4.75999996066093 673
4.7799999602139 651
4.79999995976686 646
4.81999995931983 632
4.83999995887279 657
4.85999995842576 661
4.87999995797873 620
4.89999995753169 626
4.91999995708466 609
4.93999995663762 656
4.95999995619059 666
4.97999995574355 659
4.99999995529652 635
5.01999995484948 607
5.03999995440245 601
5.05999995395541 610
5.07999995350838 578
5.09999995306134 623
5.11999995261431 602
5.13999995216727 617
5.15999995172024 649
5.1799999512732 615
5.19999995082617 588
5.21999995037913 610
5.2399999499321 594
5.25999994948506 607
5.27999994903803 598
5.29999994859099 599
5.31999994814396 626
5.33999994769692 624
5.35999994724989 561
5.37999994680285 561
5.39999994635582 597
5.41999994590878 595
5.43999994546175 608
5.45999994501471 589
5.47999994456768 581
5.49999994412065 619
5.51999994367361 566
5.53999994322658 651
5.55999994277954 627
5.57999994233251 628
5.59999994188547 592
5.61999994143844 544
5.6399999409914 565
5.65999994054437 607
5.67999994009733 558
5.6999999396503 584
5.71999993920326 570
5.73999993875623 609
5.75999993830919 593
5.77999993786216 610
5.79999993741512 604
5.81999993696809 601
5.83999993652105 588
5.85999993607402 597
5.87999993562698 595
5.89999993517995 572
5.91999993473291 611
5.93999993428588 605
5.95999993383884 620
5.97999993339181 651
5.99999993294477 593
6.01999993249774 594
6.0399999320507 560
6.05999993160367 633
6.07999993115663 626
6.0999999307096 633
6.11999993026257 576
6.13999992981553 595
6.1599999293685 640
6.17999992892146 603
6.19999992847443 555
6.21999992802739 567
6.23999992758036 593
6.25999992713332 596
6.27999992668629 592
6.29999992623925 578
6.31999992579222 590
6.33999992534518 549
6.35999992489815 554
6.37999992445111 592
6.39999992400408 571
6.41999992355704 619
6.43999992311001 617
6.45999992266297 611
6.47999992221594 591
6.4999999217689 572
6.51999992132187 601
6.53999992087483 611
6.5599999204278 597
6.57999991998076 622
6.59999991953373 626
6.61999991908669 629
6.63999991863966 598
6.65999991819262 606
6.67999991774559 614
6.69999991729855 598
6.71999991685152 600
6.73999991640449 614
6.75999991595745 598
6.77999991551042 594
6.79999991506338 603
6.81999991461635 628
6.83999991416931 633
6.85999991372228 602
6.87999991327524 619
6.89999991282821 611
6.91999991238117 628
6.93999991193414 590
6.9599999114871 627
6.97999991104007 617
6.99999991059303 642
7.019999910146 599
7.03999990969896 618
7.05999990925193 596
7.07999990880489 629
7.09999990835786 639
7.11999990791082 629
7.13999990746379 619
7.15999990701675 651
7.17999990656972 614
7.19999990612268 618
7.21999990567565 568
7.23999990522861 621
7.25999990478158 653
7.27999990433454 570
7.29999990388751 589
7.31999990344047 584
7.33999990299344 617
7.35999990254641 616
7.37999990209937 595
7.39999990165234 644
7.4199999012053 595
7.43999990075827 611
7.45999990031123 625
7.4799998998642 628
7.49999989941716 664
7.51999989897013 593
7.53999989852309 611
7.55999989807606 632
7.57999989762902 590
7.59999989718199 606
7.61999989673495 586
7.63999989628792 624
7.65999989584088 631
7.67999989539385 570
7.69999989494681 612
7.71999989449978 600
7.73999989405274 640
7.75999989360571 644
7.77999989315867 619
7.79999989271164 670
7.8199998922646 590
7.83999989181757 615
7.85999989137053 670
7.8799998909235 574
7.89999989047646 639
7.91999989002943 627
7.9399998895824 652
7.95999988913536 658
7.97999988868833 617
7.99999988824129 652
8.01999988779426 638
8.03999988734722 635
8.05999988690019 609
8.07999988645315 625
8.09999988600612 619
8.11999988555908 644
8.13999988511205 645
8.15999988466501 715
8.17999988421798 628
8.19999988377094 649
8.21999988332391 685
8.23999988287687 672
8.25999988242984 647
8.2799998819828 662
8.29999988153577 691
8.31999988108873 707
8.3399998806417 699
8.35999988019466 698
8.37999987974763 736
8.39999987930059 717
8.41999987885356 738
8.43999987840652 686
8.45999987795949 755
8.47999987751245 731
8.49999987706542 769
8.51999987661839 746
8.53999987617135 827
8.55999987572432 804
8.57999987527728 872
8.59999987483025 922
8.61999987438321 928
8.63999987393618 931
8.65999987348914 1059
8.67999987304211 1029
8.69999987259507 1151
8.71999987214804 1176
8.739999871701 1231
8.75999987125397 1376
8.77999987080693 1418
8.7999998703599 1500
8.81999986991286 1711
8.83999986946583 1835
8.85999986901879 1913
8.87999986857176 2135
8.89999986812472 2362
8.91999986767769 2701
8.93999986723065 3039
8.95999986678362 3524
8.97999986633658 4009
8.99999986588955 4534
9.01999986544251 4597
9.03999986499548 4443
9.05999986454844 3816
9.07999986410141 3429
9.09999986365438 3326
9.11999986320734 3297
9.13999986276031 2643
9.15999986231327 1605
9.17999986186624 1004
9.1999998614192 936
9.21999986097217 852
9.23999986052513 819
9.2599998600781 779
9.27999985963106 820
9.29999985918403 755
9.31999985873699 737
9.33999985828996 746
9.35999985784292 765
9.37999985739589 780
9.39999985694885 802
9.41999985650182 769
9.43999985605478 794
9.45999985560775 819
9.47999985516071 771
9.49999985471368 790
9.51999985426664 795
9.53999985381961 786
9.55999985337257 827
9.57999985292554 847
9.5999998524785 855
9.61999985203147 866
9.63999985158443 908
9.6599998511374 920
9.67999985069037 965
9.69999985024333 1005
9.7199998497963 1051
9.73999984934926 1098
9.75999984890223 1133
9.77999984845519 1220
9.79999984800816 1276
9.81999984756112 1437
9.83999984711409 1508
9.85999984666705 1500
9.87999984622002 1814
9.89999984577298 1943
9.91999984532595 2192
9.93999984487891 2495
9.95999984443188 2890
9.97999984398484 3395
9.99999984353781 3807
10.0199998430908 4347
10.0399998426437 4484
10.0599998421967 3642
10.0799998417497 2405
10.0999998413026 1375
10.1199998408556 963
10.1399998404086 849
10.1599998399615 798
10.1799998395145 762
10.1999998390675 782
10.2199998386204 751
10.2399998381734 722
10.2599998377264 709
10.2799998372793 731
10.2999998368323 690
10.3199998363853 698
10.3399998359382 677
10.3599998354912 684
10.3799998350441 692
10.3999998345971 665
10.4199998341501 676
10.439999833703 677
10.459999833256 684
10.479999832809 681
10.4999998323619 717
10.5199998319149 712
10.5399998314679 701
10.5599998310208 677
10.5799998305738 716
10.5999998301268 693
10.6199998296797 723
10.6399998292327 693
10.6599998287857 676
10.6799998283386 683
10.6999998278916 648
10.7199998274446 695
10.7399998269975 705
10.7599998265505 650
10.7799998261034 649
10.7999998256564 643
10.8199998252094 686
10.8399998247623 679
10.8599998243153 674
10.8799998238683 628
10.8999998234212 656
10.9199998229742 733
10.9399998225272 669
10.9599998220801 647
10.9799998216331 696
10.9999998211861 645
11.019999820739 692
11.039999820292 707
11.059999819845 697
11.0799998193979 721
11.0999998189509 677
11.1199998185039 643
11.1399998180568 664
11.1599998176098 675
11.1799998171628 668
11.1999998167157 676
11.2199998162687 659
11.2399998158216 636
11.2599998153746 679
11.2799998149276 653
11.2999998144805 650
11.3199998140335 703
11.3399998135865 638
11.3599998131394 675
11.3799998126924 672
11.3999998122454 664
11.4199998117983 652
11.4399998113513 675
11.4599998109043 692
11.4799998104572 691
11.4999998100102 655
11.5199998095632 711
11.5399998091161 685
11.5599998086691 656
11.5799998082221 687
11.599999807775 703
11.619999807328 702
11.639999806881 704
11.6599998064339 651
11.6799998059869 663
11.6999998055398 633
11.7199998050928 676
11.7399998046458 623
11.7599998041987 676
11.7799998037517 676
11.7999998033047 671
11.8199998028576 690
11.8399998024106 617
11.8599998019636 650
11.8799998015165 674
11.8999998010695 677
11.9199998006225 666
11.9399998001754 688
11.9599997997284 671
11.9799997992814 689
11.9999997988343 698
12.0199997983873 634
12.0399997979403 684
12.0599997974932 696
12.0799997970462 708
12.0999997965992 701
12.1199997961521 688
12.1399997957051 668
12.159999795258 724
12.179999794811 729
12.199999794364 711
12.2199997939169 690
12.2399997934699 694
12.2599997930229 762
12.2799997925758 712
12.2999997921288 703
12.3199997916818 725
12.3399997912347 692
12.3599997907877 741
12.3799997903407 724
12.3999997898936 762
12.4199997894466 716
12.4399997889996 744
12.4599997885525 781
12.4799997881055 795
12.4999997876585 823
12.5199997872114 855
12.5399997867644 816
12.5599997863173 846
12.5799997858703 919
12.5999997854233 947
12.6199997849762 966
12.6399997845292 1109
12.6599997840822 1127
12.6799997836351 1237
12.6999997831881 1319
12.7199997827411 1413
12.739999782294 1343
12.759999781847 1324
12.7799997814 1245
12.7999997809529 1199
12.8199997805059 1076
12.8399997800589 902
12.8599997796118 870
12.8799997791648 788
12.8999997787178 780
12.9199997782707 765
12.9399997778237 768
12.9599997773767 759
12.9799997769296 785
12.9999997764826 767
13.0199997760355 819
13.0399997755885 807
13.0599997751415 760
13.0799997746944 765
13.0999997742474 784
13.1199997738004 826
13.1399997733533 858
13.1599997729063 853
13.1799997724593 884
13.1999997720122 865
13.2199997715652 945
13.2399997711182 1014
13.2599997706711 1052
13.2799997702241 1088
13.2999997697771 1120
13.31999976933 1142
13.339999768883 1321
13.359999768436 1464
13.3799997679889 1563
13.3999997675419 1777
13.4199997670949 1971
13.4399997666478 2188
13.4599997662008 2430
13.4799997657537 2591
13.4999997653067 2552
13.5199997648597 2251
13.5399997644126 1744
13.5599997639656 1320
13.5799997635186 1043
13.5999997630715 872
13.6199997626245 857
13.6399997621775 758
13.6599997617304 796
13.6799997612834 764
13.6999997608364 753
13.7199997603893 766
13.7399997599423 718
13.7599997594953 762
13.7799997590482 765
13.7999997586012 740
13.8199997581542 740
13.8399997577071 697
13.8599997572601 717
13.879999756813 727
13.899999756366 783
13.919999755919 733
13.9399997554719 739
13.9599997550249 739
13.9799997545779 773
13.9999997541308 783
14.0199997536838 775
14.0399997532368 708
14.0599997527897 700
14.0799997523427 693
14.0999997518957 729
14.1199997514486 731
14.1399997510016 758
14.1599997505546 751
14.1799997501075 745
14.1999997496605 724
14.2199997492135 763
14.2399997487664 710
14.2599997483194 760
14.2799997478724 701
14.2999997474253 717
14.3199997469783 777
14.3399997465312 742
14.3599997460842 743
14.3799997456372 766
14.3999997451901 767
14.4199997447431 741
14.4399997442961 696
14.459999743849 769
14.479999743402 781
14.499999742955 724
14.5199997425079 790
14.5399997420609 788
14.5599997416139 760
14.5799997411668 784
14.5999997407198 765
14.6199997402728 805
14.6399997398257 777
14.6599997393787 747
14.6799997389317 772
14.6999997384846 762
14.7199997380376 808
14.7399997375906 731
14.7599997371435 781
14.7799997366965 816
14.7999997362494 767
14.8199997358024 779
14.8399997353554 769
14.8599997349083 777
14.8799997344613 788
14.8999997340143 785
14.9199997335672 819
14.9399997331202 798
14.9599997326732 804
14.9799997322261 783
14.9999997317791 749
15.0199997313321 712
15.039999730885 778
15.059999730438 728
15.079999729991 757
15.0999997295439 784
15.1199997290969 845
15.1399997286499 808
15.1599997282028 799
15.1799997277558 780
15.1999997273088 774
15.2199997268617 790
15.2399997264147 799
15.2599997259676 776
15.2799997255206 809
15.2999997250736 809
15.3199997246265 799
15.3399997241795 805
15.3599997237325 806
15.3799997232854 833
15.3999997228384 802
15.4199997223914 805
15.4399997219443 849
15.4599997214973 857
15.4799997210503 811
15.4999997206032 809
15.5199997201562 849
15.5399997197092 861
15.5599997192621 818
15.5799997188151 768
15.5999997183681 840
15.619999717921 785
15.639999717474 822
15.659999717027 808
15.6799997165799 802
15.6999997161329 798
15.7199997156858 854
15.7399997152388 849
15.7599997147918 805
15.7799997143447 845
15.7999997138977 807
15.8199997134507 832
15.8399997130036 849
15.8599997125566 827
15.8799997121096 835
15.8999997116625 875
15.9199997112155 866
15.9399997107685 845
15.9599997103214 833
15.9799997098744 871
15.9999997094274 894
16.0199997089803 894
16.0399997085333 811
16.0599997080863 857
16.0799997076392 859
16.0999997071922 837
16.1199997067451 909
16.1399997062981 849
16.1599997058511 834
16.179999705404 843
16.199999704957 868
16.21999970451 860
16.2399997040629 871
16.2599997036159 891
16.2799997031689 899
16.2999997027218 844
16.3199997022748 892
16.3399997018278 888
16.3599997013807 854
16.3799997009337 855
16.3999997004867 831
16.4199997000396 861
16.4399996995926 916
16.4599996991456 917
16.4799996986985 933
16.4999996982515 909
16.5199996978045 903
16.5399996973574 938
16.5599996969104 917
16.5799996964633 944
16.5999996960163 884
16.6199996955693 965
16.6399996951222 885
16.6599996946752 940
16.6799996942282 877
16.6999996937811 997
16.7199996933341 999
16.7399996928871 998
16.75999969244 999
16.779999691993 913
16.799999691546 957
16.8199996910989 962
16.8399996906519 1043
16.8599996902049 993
16.8799996897578 1030
16.8999996893108 1022
16.9199996888638 1021
16.9399996884167 1032
16.9599996879697 1062
16.9799996875226 1088
16.9999996870756 1204
17.0199996866286 1321
17.0399996861815 1357
17.0599996857345 1495
17.0799996852875 1562
17.0999996848404 1584
17.1199996843934 1591
17.1399996839464 1469
17.1599996834993 1322
17.1799996830523 1189
17.1999996826053 1077
17.2199996821582 1047
17.2399996817112 1036
17.2599996812642 1038
17.2799996808171 1015
17.2999996803701 1048
17.3199996799231 1017
17.339999679476 983
17.359999679029 1003
17.379999678582 1012
17.3999996781349 1011
17.4199996776879 971
17.4399996772408 1000
17.4599996767938 1004
17.4799996763468 1002
17.4999996758997 1048
17.5199996754527 1022
17.5399996750057 987
17.5599996745586 1043
17.5799996741116 1084
17.5999996736646 1001
17.6199996732175 998
17.6399996727705 1104
17.6599996723235 1014
17.6799996718764 1061
17.6999996714294 1089
17.7199996709824 1074
17.7399996705353 1083
17.7599996700883 1093
17.7799996696413 1103
17.7999996691942 1179
17.8199996687472 1186
17.8399996683002 1209
17.8599996678531 1302
17.8799996674061 1235
17.899999666959 1241
17.919999666512 1220
17.939999666065 1255
17.9599996656179 1183
17.9799996651709 1169
17.9999996647239 1170
18.0199996642768 1145
18.0399996638298 1195
18.0599996633828 1194
18.0799996629357 1166
18.0999996624887 1225
18.1199996620417 1160
18.1399996615946 1172
18.1599996611476 1160
18.1799996607006 1231
18.1999996602535 1167
18.2199996598065 1129
18.2399996593595 1110
18.2599996589124 1177
18.2799996584654 1204
18.2999996580184 1151
18.3199996575713 1161
18.3399996571243 1260
18.3599996566772 1244
18.3799996562302 1273
18.3999996557832 1283
18.4199996553361 1371
18.4399996548891 1368
18.4599996544421 1339
18.479999653995 1365
18.499999653548 1370
18.519999653101 1342
18.5399996526539 1289
18.5599996522069 1372
18.5799996517599 1249
18.5999996513128 1289
18.6199996508658 1237
18.6399996504188 1209
18.6599996499717 1226
18.6799996495247 1179
18.6999996490777 1207
18.7199996486306 1185
18.7399996481836 1168
18.7599996477366 1208
18.7799996472895 1294
18.7999996468425 1218
18.8199996463954 1228
18.8399996459484 1243
18.8599996455014 1230
18.8799996450543 1244
18.8999996446073 1195
18.9199996441603 1236
18.9399996437132 1233
18.9599996432662 1245
18.9799996428192 1242
18.9999996423721 1203
19.0199996419251 1278
19.0399996414781 1277
19.059999641031 1286
19.079999640584 1273
19.099999640137 1267
19.1199996396899 1242
19.1399996392429 1227
19.1599996387959 1259
19.1799996383488 1286
19.1999996379018 1277
19.2199996374547 1269
19.2399996370077 1247
19.2599996365607 1331
19.2799996361136 1310
19.2999996356666 1298
19.3199996352196 1253
19.3399996347725 1314
19.3599996343255 1272
19.3799996338785 1355
19.3999996334314 1295
19.4199996329844 1307
19.4399996325374 1336
19.4599996320903 1329
19.4799996316433 1309
19.4999996311963 1325
19.5199996307492 1288
19.5399996303022 1378
19.5599996298552 1371
19.5799996294081 1273
19.5999996289611 1383
19.6199996285141 1421
19.639999628067 1329
19.65999962762 1396
19.6799996271729 1377
19.6999996267259 1443
19.7199996262789 1432
19.7399996258318 1445
19.7599996253848 1495
19.7799996249378 1556
19.7999996244907 1545
19.8199996240437 1591
19.8399996235967 1645
19.8599996231496 1784
19.8799996227026 1916
19.8999996222556 2065
19.9199996218085 2254
19.9399996213615 2384
19.9599996209145 2386
19.9799996204674 2459
19.9999996200204 2381
