3 1933
3.01999999955297 1666
3.03999999910593 1522
3.0599999986589 1388
3.07999999821186 1338
3.09999999776483 1257
3.11999999731779 1203
3.13999999687076 1192
3.15999999642372 1169
3.17999999597669 1221
3.19999999552965 1152
3.21999999508262 1147
3.23999999463558 1107
3.25999999418855 1112
3.27999999374151 1111
3.29999999329448 1063
3.31999999284744 1022
3.33999999240041 1120
3.35999999195337 1067
3.37999999150634 1070
3.3999999910593 1015
3.41999999061227 1036
3.43999999016523 1006
3.4599999897182 1047
3.47999998927116 1073
3.49999998882413 995
3.51999998837709 1015
3.53999998793006 985
3.55999998748302 972
3.57999998703599 981
3.59999998658895 955
3.61999998614192 952
3.63999998569489 957
3.65999998524785 968
3.67999998480082 954
3.69999998435378 931
3.71999998390675 928
3.73999998345971 924
3.75999998301268 841
3.77999998256564 955
3.79999998211861 900
3.81999998167157 878
3.83999998122454 885
3.8599999807775 866
3.87999998033047 872
3.89999997988343 791
3.9199999794364 826
3.93999997898936 820
3.95999997854233 858
3.97999997809529 812
3.99999997764826 798
4.01999997720122 818
4.03999997675419 818
4.05999997630715 777
4.07999997586012 783
4.09999997541308 781
4.11999997496605 758
4.13999997451901 770
4.15999997407198 742
4.17999997362494 753
4.19999997317791 772
4.21999997273087 777
4.23999997228384 805
4.25999997183681 739
4.27999997138977 731
4.29999997094274 780
4.3199999704957 725
4.33999997004867 688
4.35999996960163 759
4.3799999691546 672
4.39999996870756 706
4.41999996826053 712
4.43999996781349 668
4.45999996736646 672
4.47999996691942 685
4.49999996647239 725
4.51999996602535 671
4.53999996557832 671
4.55999996513128 672
4.57999996468425 686
4.59999996423721 710
4.61999996379018 657
4.63999996334314 658
4.65999996289611 672
4.67999996244907 617
4.69999996200204 611
4.719999961555 665
4.73999996110797 638
4.75999996066093 648
4.7799999602139 625
4.79999995976686 627
4.81999995931983 613
4.83999995887279 641
4.85999995842576 630
4.87999995797873 595
4.89999995753169 544
4.91999995708466 605
4.93999995663762 624
4.95999995619059 613
4.97999995574355 643
4.99999995529652 632
5.01999995484948 582
5.03999995440245 655
5.05999995395541 611
5.07999995350838 646
5.09999995306134 565
5.11999995261431 609
5.13999995216727 585
5.15999995172024 603
5.1799999512732 593
5.19999995082617 619
5.21999995037913 589
5.2399999499321 607
5.25999994948506 559
5.27999994903803 589
5.29999994859099 638
5.31999994814396 577
5.33999994769692 635
5.35999994724989 567
5.37999994680285 610
5.39999994635582 568
5.41999994590878 591
5.43999994546175 591
5.45999994501471 581
5.47999994456768 598
5.49999994412065 569
5.51999994367361 604
5.53999994322658 620
5.55999994277954 610
5.57999994233251 597
5.59999994188547 608
5.61999994143844 552
5.6399999409914 633
5.65999994054437 626
5.67999994009733 640
5.6999999396503 637
5.71999993920326 617
5.73999993875623 612
5.75999993830919 680
5.77999993786216 762
5.79999993741512 717
5.81999993696809 637
5.83999993652105 571
5.85999993607402 619
5.87999993562698 636
5.89999993517995 567
5.91999993473291 607
5.93999993428588 609
5.95999993383884 652
5.97999993339181 640
5.99999993294477 661
6.01999993249774 627
6.0399999320507 631
6.05999993160367 588
6.07999993115663 590
6.0999999307096 568
6.11999993026257 576
6.13999992981553 587
6.1599999293685 579
6.17999992892146 634
6.19999992847443 573
6.21999992802739 568
6.23999992758036 594
6.25999992713332 609
6.27999992668629 584
6.29999992623925 594
6.31999992579222 589
6.33999992534518 609
6.35999992489815 587
6.37999992445111 577
6.39999992400408 530
6.41999992355704 575
6.43999992311001 603
6.45999992266297 598
6.47999992221594 563
6.4999999217689 561
6.51999992132187 563
6.53999992087483 571
6.5599999204278 594
6.57999991998076 605
6.59999991953373 541
6.61999991908669 589
6.63999991863966 534
6.65999991819262 543
6.67999991774559 592
6.69999991729855 592
6.71999991685152 610
6.73999991640449 583
6.75999991595745 578
6.77999991551042 579
6.79999991506338 651
6.81999991461635 598
6.83999991416931 564
6.85999991372228 607
6.87999991327524 578
6.89999991282821 608
6.91999991238117 574
6.93999991193414 646
6.9599999114871 608
6.97999991104007 574
6.99999991059303 577
7.019999910146 570
7.03999990969896 551
7.05999990925193 543
7.07999990880489 554
7.09999990835786 606
7.11999990791082 602
7.13999990746379 639
7.15999990701675 593
7.17999990656972 570
7.19999990612268 605
7.21999990567565 571
7.23999990522861 579
7.25999990478158 569
7.27999990433454 604
7.29999990388751 569
7.31999990344047 606
7.33999990299344 553
7.35999990254641 604
7.37999990209937 614
7.39999990165234 601
7.4199999012053 626
7.43999990075827 597
7.45999990031123 595
7.4799998998642 590
7.49999989941716 633
7.51999989897013 605
7.53999989852309 600
7.55999989807606 605
7.57999989762902 566
7.59999989718199 567
7.61999989673495 593
7.63999989628792 571
7.65999989584088 555
7.67999989539385 581
7.69999989494681 574
7.71999989449978 590
7.73999989405274 588
7.75999989360571 563
7.77999989315867 632
7.79999989271164 574
7.8199998922646 555
7.83999989181757 603
7.85999989137053 574
7.8799998909235 558
7.89999989047646 614
7.91999989002943 599
7.9399998895824 587
7.95999988913536 581
7.97999988868833 595
7.99999988824129 614
8.01999988779426 585
8.03999988734722 619
8.05999988690019 621
8.07999988645315 614
8.09999988600612 656
8.11999988555908 571
8.13999988511205 628
8.15999988466501 633
8.17999988421798 573
8.19999988377094 619
8.21999988332391 620
8.23999988287687 608
8.25999988242984 589
8.2799998819828 601
8.29999988153577 562
8.31999988108873 565
8.3399998806417 553
8.35999988019466 609
8.37999987974763 614
8.39999987930059 577
8.41999987885356 576
8.43999987840652 589
8.45999987795949 580
8.47999987751245 594
8.49999987706542 583
8.51999987661839 567
8.53999987617135 584
8.55999987572432 553
8.57999987527728 616
8.59999987483025 623
8.61999987438321 606
8.63999987393618 595
8.65999987348914 569
8.67999987304211 582
8.69999987259507 654
8.71999987214804 603
8.739999871701 613
8.75999987125397 631
8.77999987080693 645
8.7999998703599 610
8.81999986991286 656
8.83999986946583 612
8.85999986901879 597
8.87999986857176 635
8.89999986812472 670
8.91999986767769 643
8.93999986723065 671
8.95999986678362 650
8.97999986633658 599
8.99999986588955 635
9.01999986544251 671
9.03999986499548 680
9.05999986454844 651
9.07999986410141 604
9.09999986365438 647
9.11999986320734 662
9.13999986276031 700
9.15999986231327 735
9.17999986186624 620
9.1999998614192 624
9.21999986097217 677
9.23999986052513 616
9.2599998600781 600
9.27999985963106 586
9.29999985918403 630
9.31999985873699 595
9.33999985828996 590
9.35999985784292 608
9.37999985739589 631
9.39999985694885 616
9.41999985650182 623
9.43999985605478 673
9.45999985560775 645
9.47999985516071 595
9.49999985471368 571
9.51999985426664 599
9.53999985381961 629
9.55999985337257 603
9.57999985292554 571
9.5999998524785 601
9.61999985203147 519
9.63999985158443 582
9.6599998511374 568
9.67999985069037 602
9.69999985024333 604
9.7199998497963 574
9.73999984934926 609
9.75999984890223 560
9.77999984845519 566
9.79999984800816 573
9.81999984756112 588
9.83999984711409 571
9.85999984666705 568
9.87999984622002 599
9.89999984577298 566
9.91999984532595 571
9.93999984487891 554
9.95999984443188 623
9.97999984398484 577
9.99999984353781 589
10.0199998430908 584
10.0399998426437 552
10.0599998421967 622
10.0799998417497 594
10.0999998413026 620
10.1199998408556 614
10.1399998404086 539
10.1599998399615 581
10.1799998395145 604
10.1999998390675 586
10.2199998386204 620
10.2399998381734 586
10.2599998377264 606
10.2799998372793 621
10.2999998368323 601
10.3199998363853 614
10.3399998359382 564
10.3599998354912 621
10.3799998350441 613
10.3999998345971 612
10.4199998341501 610
10.439999833703 593
10.459999833256 609
10.479999832809 603
10.4999998323619 628
10.5199998319149 642
10.5399998314679 603
10.5599998310208 644
10.5799998305738 589
10.5999998301268 574
10.6199998296797 538
10.6399998292327 620
10.6599998287857 627
10.6799998283386 632
10.6999998278916 582
10.7199998274446 612
10.7399998269975 548
10.7599998265505 597
10.7799998261034 616
10.7999998256564 583
10.8199998252094 620
10.8399998247623 614
10.8599998243153 564
10.8799998238683 597
10.8999998234212 575
10.9199998229742 595
10.9399998225272 593
10.9599998220801 568
10.9799998216331 608
10.9999998211861 555
11.019999820739 588
11.039999820292 609
11.059999819845 574
11.0799998193979 632
11.0999998189509 625
11.1199998185039 620
11.1399998180568 591
11.1599998176098 581
11.1799998171628 573
11.1999998167157 612
11.2199998162687 604
11.2399998158216 582
11.2599998153746 605
11.2799998149276 637
11.2999998144805 604
11.3199998140335 614
11.3399998135865 631
11.3599998131394 614
11.3799998126924 618
11.3999998122454 675
11.4199998117983 647
11.4399998113513 642
11.4599998109043 695
11.4799998104572 701
11.4999998100102 870
11.5199998095632 905
11.5399998091161 994
11.5599998086691 964
11.5799998082221 802
11.599999807775 682
11.619999807328 671
11.639999806881 679
11.6599998064339 672
11.6799998059869 662
11.6999998055398 620
11.7199998050928 648
11.7399998046458 663
11.7599998041987 676
11.7799998037517 611
11.7999998033047 656
11.8199998028576 644
11.8399998024106 612
11.8599998019636 630
11.8799998015165 673
11.8999998010695 612
11.9199998006225 602
11.9399998001754 673
11.9599997997284 638
11.9799997992814 646
11.9999997988343 657
12.0199997983873 653
12.0399997979403 628
12.0599997974932 585
12.0799997970462 623
12.0999997965992 606
12.1199997961521 638
12.1399997957051 668
12.159999795258 644
12.179999794811 617
12.199999794364 634
12.2199997939169 649
12.2399997934699 641
12.2599997930229 682
12.2799997925758 617
12.2999997921288 616
12.3199997916818 643
12.3399997912347 630
12.3599997907877 670
12.3799997903407 668
12.3999997898936 629
12.4199997894466 668
12.4399997889996 664
12.4599997885525 667
12.4799997881055 674
12.4999997876585 665
12.5199997872114 684
12.5399997867644 649
12.5599997863173 661
12.5799997858703 653
12.5999997854233 693
12.6199997849762 696
12.6399997845292 669
12.6599997840822 674
12.6799997836351 639
12.6999997831881 639
12.7199997827411 677
12.739999782294 671
12.759999781847 745
12.7799997814 680
12.7999997809529 642
12.8199997805059 726
12.8399997800589 647
12.8599997796118 676
12.8799997791648 728
12.8999997787178 687
12.9199997782707 704
12.9399997778237 671
12.9599997773767 732
12.9799997769296 687
12.9999997764826 693
13.0199997760355 649
13.0399997755885 675
13.0599997751415 740
13.0799997746944 681
13.0999997742474 676
13.1199997738004 743
13.1399997733533 684
13.1599997729063 687
13.1799997724593 700
13.1999997720122 720
13.2199997715652 715
13.2399997711182 710
13.2599997706711 719
13.2799997702241 751
13.2999997697771 726
13.31999976933 728
13.339999768883 714
13.359999768436 716
13.3799997679889 731
13.3999997675419 739
13.4199997670949 698
13.4399997666478 702
13.4599997662008 728
13.4799997657537 728
13.4999997653067 712
13.5199997648597 743
13.5399997644126 753
13.5599997639656 728
13.5799997635186 751
13.5999997630715 775
13.6199997626245 731
13.6399997621775 727
13.6599997617304 716
13.6799997612834 762
13.6999997608364 748
13.7199997603893 768
13.7399997599423 744
13.7599997594953 770
13.7799997590482 754
13.7999997586012 756
13.8199997581542 764
13.8399997577071 759
13.8599997572601 760
13.879999756813 763
13.899999756366 772
13.919999755919 770
13.9399997554719 794
13.9599997550249 756
13.9799997545779 781
13.9999997541308 775
14.0199997536838 692
14.0399997532368 715
14.0599997527897 757
14.0799997523427 770
14.0999997518957 794
14.1199997514486 774
14.1399997510016 804
14.1599997505546 803
14.1799997501075 812
14.1999997496605 799
14.2199997492135 750
14.2399997487664 727
14.2599997483194 854
14.2799997478724 773
14.2999997474253 829
14.3199997469783 809
14.3399997465312 788
14.3599997460842 791
14.3799997456372 827
14.3999997451901 842
14.4199997447431 874
14.4399997442961 841
14.459999743849 774
14.479999743402 824
14.499999742955 855
14.5199997425079 868
14.5399997420609 877
14.5599997416139 861
14.5799997411668 886
14.5999997407198 872
14.6199997402728 840
14.6399997398257 863
14.6599997393787 811
14.6799997389317 867
14.6999997384846 855
14.7199997380376 859
14.7399997375906 875
14.7599997371435 876
14.7799997366965 855
14.7999997362494 840
14.8199997358024 854
14.8399997353554 864
14.8599997349083 890
14.8799997344613 893
14.8999997340143 874
14.9199997335672 939
14.9399997331202 933
14.9599997326732 910
14.9799997322261 852
14.9999997317791 866
15.0199997313321 914
15.039999730885 958
15.059999730438 923
15.079999729991 963
15.0999997295439 930
15.1199997290969 972
15.1399997286499 985
15.1599997282028 955
15.1799997277558 960
15.1999997273088 988
15.2199997268617 933
15.2399997264147 898
15.2599997259676 898
15.2799997255206 940
15.2999997250736 947
15.3199997246265 1003
15.3399997241795 963
15.3599997237325 964
15.3799997232854 923
15.3999997228384 970
15.4199997223914 980
15.4399997219443 940
15.4599997214973 1009
15.4799997210503 956
15.4999997206032 963
15.5199997201562 996
15.5399997197092 996
15.5599997192621 935
15.5799997188151 980
15.5999997183681 1070
15.619999717921 951
15.639999717474 1045
15.659999717027 1027
15.6799997165799 1116
15.6999997161329 1039
15.7199997156858 994
15.7399997152388 1019
15.7599997147918 971
15.7799997143447 1005
15.7999997138977 1035
15.8199997134507 1009
15.8399997130036 1084
15.8599997125566 1057
15.8799997121096 1063
15.8999997116625 1088
15.9199997112155 1017
15.9399997107685 1070
15.9599997103214 1090
15.9799997098744 1076
15.9999997094274 1094
16.0199997089803 1072
16.0399997085333 1053
16.0599997080863 1088
16.0799997076392 1061
16.0999997071922 1130
16.1199997067451 1120
16.1399997062981 1061
16.1599997058511 1026
16.179999705404 1109
16.199999704957 1110
16.21999970451 1114
16.2399997040629 1091
16.2599997036159 1185
16.2799997031689 1131
16.2999997027218 1170
16.3199997022748 1117
16.3399997018278 1135
16.3599997013807 1144
16.3799997009337 1168
16.3999997004867 1135
16.4199997000396 1130
16.4399996995926 1180
16.4599996991456 1098
16.4799996986985 1196
16.4999996982515 1162
16.5199996978045 1145
16.5399996973574 1214
16.5599996969104 1185
16.5799996964633 1213
16.5999996960163 1186
16.6199996955693 1213
16.6399996951222 1170
16.6599996946752 1141
16.6799996942282 1235
16.6999996937811 1211
16.7199996933341 1254
16.7399996928871 1182
16.75999969244 1208
16.779999691993 1244
16.799999691546 1238
16.8199996910989 1270
16.8399996906519 1231
16.8599996902049 1241
16.8799996897578 1255
16.8999996893108 1232
16.9199996888638 1310
16.9399996884167 1329
16.9599996879697 1343
16.9799996875226 1309
16.9999996870756 1274
17.0199996866286 1314
17.0399996861815 1284
17.0599996857345 1272
17.0799996852875 1296
17.0999996848404 1350
17.1199996843934 1299
17.1399996839464 1336
17.1599996834993 1336
17.1799996830523 1262
17.1999996826053 1273
17.2199996821582 1320
17.2399996817112 1334
17.2599996812642 1379
17.2799996808171 1331
17.2999996803701 1384
17.3199996799231 1353
17.339999679476 1379
17.359999679029 1317
17.379999678582 1400
17.3999996781349 1336
17.4199996776879 1483
17.4399996772408 1419
17.4599996767938 1372
17.4799996763468 1353
17.4999996758997 1340
17.5199996754527 1361
17.5399996750057 1397
17.5599996745586 1396
17.5799996741116 1395
17.5999996736646 1476
17.6199996732175 1469
17.6399996727705 1473
17.6599996723235 1443
17.6799996718764 1488
17.6999996714294 1474
17.7199996709824 1437
17.7399996705353 1442
17.7599996700883 1430
17.7799996696413 1436
17.7999996691942 1386
17.8199996687472 1436
17.8399996683002 1454
17.8599996678531 1448
17.8799996674061 1451
17.899999666959 1498
17.919999666512 1506
17.939999666065 1408
17.9599996656179 1526
17.9799996651709 1482
17.9999996647239 1509
18.0199996642768 1517
18.0399996638298 1521
18.0599996633828 1527
18.0799996629357 1546
18.0999996624887 1547
18.1199996620417 1515
18.1399996615946 1575
18.1599996611476 1518
18.1799996607006 1515
18.1999996602535 1554
18.2199996598065 1544
18.2399996593595 1605
18.2599996589124 1547
18.2799996584654 1541
18.2999996580184 1540
18.3199996575713 1516
18.3399996571243 1586
18.3599996566772 1585
18.3799996562302 1523
18.3999996557832 1665
18.4199996553361 1584
18.4399996548891 1631
18.4599996544421 1573
18.479999653995 1585
18.499999653548 1607
18.519999653101 1632
18.5399996526539 1664
18.5599996522069 1639
18.5799996517599 1711
18.5999996513128 1623
18.6199996508658 1651
18.6399996504188 1635
18.6599996499717 1640
18.6799996495247 1671
18.6999996490777 1613
18.7199996486306 1754
18.7399996481836 1692
18.7599996477366 1704
18.7799996472895 1705
18.7999996468425 1709
18.8199996463954 1724
18.8399996459484 1695
18.8599996455014 1715
18.8799996450543 1763
18.8999996446073 1699
18.9199996441603 1772
18.9399996437132 1812
18.9599996432662 1750
18.9799996428192 1750
18.9999996423721 1796
19.0199996419251 1761
19.0399996414781 1686
19.059999641031 1797
19.079999640584 1777
19.099999640137 1784
19.1199996396899 1725
19.1399996392429 1738
19.1599996387959 1735
19.1799996383488 1743
19.1999996379018 1795
19.2199996374547 1772
19.2399996370077 1815
19.2599996365607 1804
19.2799996361136 1825
19.2999996356666 1849
19.3199996352196 1791
19.3399996347725 1854
19.3599996343255 1781
19.3799996338785 1769
19.3999996334314 1873
19.4199996329844 1786
19.4399996325374 1789
19.4599996320903 1716
19.4799996316433 1861
19.4999996311963 1842
19.5199996307492 1745
19.5399996303022 1807
19.5599996298552 1900
19.5799996294081 1772
19.5999996289611 1787
19.6199996285141 1900
19.639999628067 1883
19.65999962762 1847
19.6799996271729 1845
19.6999996267259 1931
19.7199996262789 1942
19.7399996258318 1844
19.7599996253848 1921
19.7799996249378 1903
19.7999996244907 1854
19.8199996240437 1836
19.8399996235967 1934
19.8599996231496 1960
19.8799996227026 1913
19.8999996222556 1896
19.9199996218085 1908
19.9399996213615 1941
19.9599996209145 1926
19.9799996204674 1949
19.9999996200204 1858
