3 2412
3.01999999955297 2249
3.03999999910593 2028
3.0599999986589 1909
3.07999999821186 1760
3.09999999776483 1724
3.11999999731779 1608
3.13999999687076 1495
3.15999999642372 1593
3.17999999597669 1565
3.19999999552965 1435
3.21999999508262 1431
3.23999999463558 1461
3.25999999418855 1432
3.27999999374151 1338
3.29999999329448 1358
3.31999999284744 1343
3.33999999240041 1422
3.35999999195337 1291
3.37999999150634 1316
3.3999999910593 1255
3.41999999061227 1251
3.43999999016523 1240
3.4599999897182 1243
3.47999998927116 1214
3.49999998882413 1245
3.51999998837709 1192
3.53999998793006 1200
3.55999998748302 1190
3.57999998703599 1153
3.59999998658895 1179
3.61999998614192 1129
3.63999998569489 1142
3.65999998524785 1089
3.67999998480082 1129
3.69999998435378 1138
3.71999998390675 1082
3.73999998345971 1053
3.75999998301268 1100
3.77999998256564 1001
3.79999998211861 1039
3.81999998167157 997
3.83999998122454 1033
3.8599999807775 1035
3.87999998033047 974
3.89999997988343 973
3.9199999794364 981
3.93999997898936 992
3.95999997854233 964
3.97999997809529 1037
3.99999997764826 882
4.01999997720122 967
4.03999997675419 916
4.05999997630715 922
4.07999997586012 936
4.09999997541308 968
4.11999997496605 915
4.13999997451901 918
4.15999997407198 911
4.17999997362494 902
4.19999997317791 899
4.21999997273087 871
4.23999997228384 876
4.25999997183681 868
4.27999997138977 805
4.29999997094274 844
4.3199999704957 817
4.33999997004867 832
4.35999996960163 816
4.3799999691546 814
4.39999996870756 817
4.41999996826053 827
4.43999996781349 858
4.45999996736646 821
4.47999996691942 809
4.49999996647239 770
4.51999996602535 798
4.53999996557832 780
4.55999996513128 840
4.57999996468425 827
4.59999996423721 785
4.61999996379018 731
4.63999996334314 779
4.65999996289611 735
4.67999996244907 787
4.69999996200204 745
4.719999961555 767
4.73999996110797 800
4.75999996066093 780
4.7799999602139 749
4.79999995976686 747
4.81999995931983 799
4.83999995887279 762
4.85999995842576 757
4.87999995797873 772
4.89999995753169 721
4.91999995708466 766
4.93999995663762 739
4.95999995619059 765
4.97999995574355 692
4.99999995529652 742
5.01999995484948 709
5.03999995440245 741
5.05999995395541 748
5.07999995350838 742
5.09999995306134 734
5.11999995261431 698
5.13999995216727 752
5.15999995172024 706
5.1799999512732 714
5.19999995082617 691
5.21999995037913 737
5.2399999499321 685
5.25999994948506 746
5.27999994903803 758
5.29999994859099 712
5.31999994814396 768
5.33999994769692 685
5.35999994724989 712
5.37999994680285 706
5.39999994635582 729
5.41999994590878 729
5.43999994546175 742
5.45999994501471 726
5.47999994456768 710
5.49999994412065 718
5.51999994367361 751
5.53999994322658 697
5.55999994277954 709
5.57999994233251 755
5.59999994188547 716
5.61999994143844 716
5.6399999409914 760
5.65999994054437 744
5.67999994009733 763
5.6999999396503 744
5.71999993920326 721
5.73999993875623 748
5.75999993830919 766
5.77999993786216 753
5.79999993741512 734
5.81999993696809 713
5.83999993652105 737
5.85999993607402 713
5.87999993562698 738
5.89999993517995 698
5.91999993473291 713
5.93999993428588 693
5.95999993383884 690
5.97999993339181 696
5.99999993294477 687
6.01999993249774 690
6.0399999320507 732
6.05999993160367 712
6.07999993115663 767
6.0999999307096 737
6.11999993026257 738
6.13999992981553 712
6.1599999293685 731
6.17999992892146 709
6.19999992847443 693
6.21999992802739 703
6.23999992758036 754
6.25999992713332 726
6.27999992668629 761
6.29999992623925 710
6.31999992579222 758
6.33999992534518 724
6.35999992489815 742
6.37999992445111 719
6.39999992400408 727
6.41999992355704 689
6.43999992311001 708
6.45999992266297 756
6.47999992221594 775
6.4999999217689 720
6.51999992132187 745
6.53999992087483 775
6.5599999204278 759
6.57999991998076 740
6.59999991953373 729
6.61999991908669 687
6.63999991863966 700
6.65999991819262 744
6.67999991774559 697
6.69999991729855 768
6.71999991685152 713
6.73999991640449 742
6.75999991595745 740
6.77999991551042 744
6.79999991506338 716
6.81999991461635 755
6.83999991416931 705
6.85999991372228 754
6.87999991327524 767
6.89999991282821 713
6.91999991238117 738
6.93999991193414 764
6.9599999114871 740
6.97999991104007 751
6.99999991059303 683
7.019999910146 745
7.03999990969896 764
7.05999990925193 726
7.07999990880489 742
7.09999990835786 711
7.11999990791082 773
7.13999990746379 742
7.15999990701675 782
7.17999990656972 748
7.19999990612268 773
7.21999990567565 762
7.23999990522861 765
7.25999990478158 695
7.27999990433454 792
7.29999990388751 749
7.31999990344047 776
7.33999990299344 735
7.35999990254641 737
7.37999990209937 728
7.39999990165234 696
7.4199999012053 722
7.43999990075827 752
7.45999990031123 706
7.4799998998642 761
7.49999989941716 738
7.51999989897013 754
7.53999989852309 747
7.55999989807606 777
7.57999989762902 741
7.59999989718199 771
7.61999989673495 744
7.63999989628792 742
7.65999989584088 766
7.67999989539385 784
7.69999989494681 781
7.71999989449978 796
7.73999989405274 780
7.75999989360571 758
7.77999989315867 781
7.79999989271164 744
7.8199998922646 757
7.83999989181757 772
7.85999989137053 759
7.8799998909235 795
7.89999989047646 786
7.91999989002943 782
7.9399998895824 817
7.95999988913536 838
7.97999988868833 829
7.99999988824129 888
8.01999988779426 844
8.03999988734722 835
8.05999988690019 821
8.07999988645315 806
8.09999988600612 799
8.11999988555908 873
8.13999988511205 887
8.15999988466501 870
8.17999988421798 835
8.19999988377094 818
8.21999988332391 916
8.23999988287687 920
8.25999988242984 955
8.2799998819828 881
8.29999988153577 942
8.31999988108873 876
8.3399998806417 947
8.35999988019466 1042
8.37999987974763 1014
8.39999987930059 960
8.41999987885356 1068
8.43999987840652 1053
8.45999987795949 1080
8.47999987751245 1164
8.49999987706542 1201
8.51999987661839 1240
8.53999987617135 1321
8.55999987572432 1377
8.57999987527728 1472
8.59999987483025 1511
8.61999987438321 1612
8.63999987393618 1676
8.65999987348914 1832
8.67999987304211 1858
8.69999987259507 2090
8.71999987214804 2248
8.739999871701 2465
8.75999987125397 2687
8.77999987080693 2919
8.7999998703599 3218
8.81999986991286 3773
8.83999986946583 4046
8.85999986901879 4735
8.87999986857176 4974
8.89999986812472 4956
8.91999986767769 4824
8.93999986723065 4577
8.95999986678362 4515
8.97999986633658 4680
8.99999986588955 4849
9.01999986544251 4641
9.03999986499548 3624
9.05999986454844 2645
9.07999986410141 1917
9.09999986365438 1624
9.11999986320734 1504
9.13999986276031 1405
9.15999986231327 1350
9.17999986186624 1321
9.1999998614192 1299
9.21999986097217 1270
9.23999986052513 1268
9.2599998600781 1269
9.27999985963106 1182
9.29999985918403 1239
9.31999985873699 1262
9.33999985828996 1223
9.35999985784292 1215
9.37999985739589 1190
9.39999985694885 1207
9.41999985650182 1203
9.43999985605478 1227
9.45999985560775 1268
9.47999985516071 1222
9.49999985471368 1233
9.51999985426664 1248
9.53999985381961 1239
9.55999985337257 1376
9.57999985292554 1392
9.5999998524785 1371
9.61999985203147 1471
9.63999985158443 1553
9.6599998511374 1543
9.67999985069037 1722
9.69999985024333 1776
9.7199998497963 1981
9.73999984934926 2076
9.75999984890223 2155
9.77999984845519 2356
9.79999984800816 2635
9.81999984756112 2859
9.83999984711409 3198
9.85999984666705 3611
9.87999984622002 4224
9.89999984577298 4707
9.91999984532595 5268
9.93999984487891 5147
9.95999984443188 4421
9.97999984398484 3377
9.99999984353781 2639
10.0199998430908 2107
10.0399998426437 1714
10.0599998421967 1592
10.0799998417497 1416
10.0999998413026 1317
10.1199998408556 1199
10.1399998404086 1199
10.1599998399615 1127
10.1799998395145 1113
10.1999998390675 1048
10.2199998386204 1025
10.2399998381734 1064
10.2599998377264 996
10.2799998372793 954
10.2999998368323 969
10.3199998363853 967
10.3399998359382 981
10.3599998354912 915
10.3799998350441 893
10.3999998345971 941
10.4199998341501 898
10.439999833703 907
10.459999833256 892
10.479999832809 909
10.4999998323619 913
10.5199998319149 888
10.5399998314679 910
10.5599998310208 870
10.5799998305738 849
10.5999998301268 904
10.6199998296797 843
10.6399998292327 920
10.6599998287857 842
10.6799998283386 917
10.6999998278916 912
10.7199998274446 880
10.7399998269975 934
10.7599998265505 946
10.7799998261034 928
10.7999998256564 908
10.8199998252094 964
10.8399998247623 908
10.8599998243153 881
10.8799998238683 951
10.8999998234212 879
10.9199998229742 853
10.9399998225272 846
10.9599998220801 902
10.9799998216331 872
10.9999998211861 880
11.019999820739 874
11.039999820292 863
11.059999819845 872
11.0799998193979 839
11.0999998189509 866
11.1199998185039 868
11.1399998180568 838
11.1599998176098 846
11.1799998171628 818
11.1999998167157 850
11.2199998162687 833
11.2399998158216 866
11.2599998153746 852
11.2799998149276 820
11.2999998144805 853
11.3199998140335 814
11.3399998135865 865
11.3599998131394 904
11.3799998126924 851
11.3999998122454 852
11.4199998117983 843
11.4399998113513 891
11.4599998109043 816
11.4799998104572 860
11.4999998100102 818
11.5199998095632 854
11.5399998091161 848
11.5599998086691 882
11.5799998082221 855
11.599999807775 793
11.619999807328 809
11.639999806881 874
11.6599998064339 795
11.6799998059869 818
11.6999998055398 881
11.7199998050928 854
11.7399998046458 800
11.7599998041987 811
11.7799998037517 855
11.7999998033047 896
11.8199998028576 853
11.8399998024106 799
11.8599998019636 858
11.8799998015165 842
11.8999998010695 836
11.9199998006225 825
11.9399998001754 849
11.9599997997284 856
11.9799997992814 838
11.9999997988343 819
12.0199997983873 899
12.0399997979403 848
12.0599997974932 907
12.0799997970462 910
12.0999997965992 923
12.1199997961521 868
12.1399997957051 897
12.159999795258 912
12.179999794811 890
12.199999794364 882
12.2199997939169 902
12.2399997934699 911
12.2599997930229 914
12.2799997925758 908
12.2999997921288 934
12.3199997916818 970
12.3399997912347 1003
12.3599997907877 1006
12.3799997903407 973
12.3999997898936 1026
12.4199997894466 1116
12.4399997889996 1128
12.4599997885525 1142
12.4799997881055 1179
12.4999997876585 1271
12.5199997872114 1312
12.5399997867644 1374
12.5599997863173 1446
12.5799997858703 1443
12.5999997854233 1554
12.6199997849762 1687
12.6399997845292 1661
12.6599997840822 1622
12.6799997836351 1553
12.6999997831881 1450
12.7199997827411 1339
12.739999782294 1282
12.759999781847 1176
12.7799997814 1152
12.7999997809529 1124
12.8199997805059 1091
12.8399997800589 1063
12.8599997796118 975
12.8799997791648 991
12.8999997787178 1055
12.9199997782707 1055
12.9399997778237 1026
12.9599997773767 1070
12.9799997769296 1064
12.9999997764826 1049
13.0199997760355 1053
13.0399997755885 1026
13.0599997751415 1085
13.0799997746944 1072
13.0999997742474 1142
13.1199997738004 1159
13.1399997733533 1267
13.1599997729063 1218
13.1799997724593 1253
13.1999997720122 1392
13.2199997715652 1395
13.2399997711182 1543
13.2599997706711 1543
13.2799997702241 1825
13.2999997697771 1897
13.31999976933 2019
13.339999768883 2174
13.359999768436 2354
13.3799997679889 2405
13.3999997675419 2310
13.4199997670949 2199
13.4399997666478 1898
13.4599997662008 1517
13.4799997657537 1328
13.4999997653067 1187
13.5199997648597 1105
13.5399997644126 1095
13.5599997639656 995
13.5799997635186 1029
13.5999997630715 1036
13.6199997626245 996
13.6399997621775 942
13.6599997617304 997
13.6799997612834 987
13.6999997608364 962
13.7199997603893 963
13.7399997599423 942
13.7599997594953 970
13.7799997590482 1031
13.7999997586012 1007
13.8199997581542 984
13.8399997577071 946
13.8599997572601 978
13.879999756813 965
13.899999756366 952
13.919999755919 946
13.9399997554719 938
13.9599997550249 986
13.9799997545779 975
13.9999997541308 947
14.0199997536838 942
14.0399997532368 976
14.0599997527897 972
14.0799997523427 964
14.0999997518957 1001
14.1199997514486 959
14.1399997510016 1029
14.1599997505546 955
14.1799997501075 983
14.1999997496605 957
14.2199997492135 1001
14.2399997487664 934
14.2599997483194 964
14.2799997478724 965
14.2999997474253 1017
14.3199997469783 954
14.3399997465312 998
14.3599997460842 989
14.3799997456372 943
14.3999997451901 912
14.4199997447431 961
14.4399997442961 968
14.459999743849 976
14.479999743402 1044
14.499999742955 986
14.5199997425079 1027
14.5399997420609 1003
14.5599997416139 1019
14.5799997411668 1005
14.5999997407198 973
14.6199997402728 987
14.6399997398257 992
14.6599997393787 1027
14.6799997389317 1018
14.6999997384846 1013
14.7199997380376 977
14.7399997375906 1020
14.7599997371435 983
14.7799997366965 1026
14.7999997362494 1007
14.8199997358024 984
14.8399997353554 1029
14.8599997349083 980
14.8799997344613 1044
14.8999997340143 997
14.9199997335672 986
14.9399997331202 980
14.9599997326732 1062
14.9799997322261 971
14.9999997317791 1033
15.0199997313321 1002
15.039999730885 1036
15.059999730438 1005
15.079999729991 1027
15.0999997295439 1052
15.1199997290969 988
15.1399997286499 1076
15.1599997282028 1057
15.1799997277558 1033
15.1999997273088 1038
15.2199997268617 1042
15.2399997264147 1087
15.2599997259676 1072
15.2799997255206 1080
15.2999997250736 1066
15.3199997246265 1014
15.3399997241795 1002
15.3599997237325 1036
15.3799997232854 1037
15.3999997228384 1074
15.4199997223914 1017
15.4399997219443 1087
15.4599997214973 1043
15.4799997210503 1047
15.4999997206032 996
15.5199997201562 1074
15.5399997197092 1095
15.5599997192621 1078
15.5799997188151 1042
15.5999997183681 1126
15.619999717921 1077
15.639999717474 1050
15.659999717027 1034
15.6799997165799 1064
15.6999997161329 1056
15.7199997156858 1071
15.7399997152388 1097
15.7599997147918 1082
15.7799997143447 1169
15.7999997138977 1061
15.8199997134507 1119
15.8399997130036 1117
15.8599997125566 1105
15.8799997121096 1077
15.8999997116625 1092
15.9199997112155 1108
15.9399997107685 1097
15.9599997103214 1106
15.9799997098744 1127
15.9999997094274 1108
16.0199997089803 1130
16.0399997085333 1106
16.0599997080863 1127
16.0799997076392 1133
16.0999997071922 1164
16.1199997067451 1155
16.1399997062981 1105
16.1599997058511 1137
16.179999705404 1049
16.199999704957 1141
16.21999970451 1097
16.2399997040629 1139
16.2599997036159 1122
16.2799997031689 1130
16.2999997027218 1140
16.3199997022748 1100
16.3399997018278 1077
16.3599997013807 1099
16.3799997009337 1144
16.3999997004867 1200
16.4199997000396 1167
16.4399996995926 1155
16.4599996991456 1169
16.4799996986985 1143
16.4999996982515 1154
16.5199996978045 1184
16.5399996973574 1153
16.5599996969104 1167
16.5799996964633 1196
16.5999996960163 1195
16.6199996955693 1210
16.6399996951222 1106
16.6599996946752 1178
16.6799996942282 1194
16.6999996937811 1264
16.7199996933341 1270
16.7399996928871 1372
16.75999969244 1305
16.779999691993 1388
16.799999691546 1418
16.8199996910989 1439
16.8399996906519 1378
16.8599996902049 1465
16.8799996897578 1596
16.8999996893108 1643
16.9199996888638 1730
16.9399996884167 1836
16.9599996879697 1974
16.9799996875226 2051
16.9999996870756 2165
17.0199996866286 2253
17.0399996861815 2201
17.0599996857345 1939
17.0799996852875 1643
17.0999996848404 1469
17.1199996843934 1369
17.1399996839464 1224
17.1599996834993 1264
17.1799996830523 1247
17.1999996826053 1269
17.2199996821582 1284
17.2399996817112 1204
17.2599996812642 1261
17.2799996808171 1281
17.2999996803701 1208
17.3199996799231 1168
17.339999679476 1247
17.359999679029 1329
17.379999678582 1238
17.3999996781349 1249
17.4199996776879 1211
17.4399996772408 1226
17.4599996767938 1271
17.4799996763468 1300
17.4999996758997 1258
17.5199996754527 1261
17.5399996750057 1346
17.5599996745586 1315
17.5799996741116 1304
17.5999996736646 1298
17.6199996732175 1312
17.6399996727705 1323
17.6599996723235 1399
17.6799996718764 1352
17.6999996714294 1347
17.7199996709824 1374
17.7399996705353 1357
17.7599996700883 1457
17.7799996696413 1372
17.7999996691942 1391
17.8199996687472 1384
17.8399996683002 1373
17.8599996678531 1416
17.8799996674061 1398
17.899999666959 1415
17.919999666512 1382
17.939999666065 1390
17.9599996656179 1367
17.9799996651709 1385
17.9999996647239 1414
18.0199996642768 1340
18.0399996638298 1354
18.0599996633828 1361
18.0799996629357 1357
18.0999996624887 1365
18.1199996620417 1405
18.1399996615946 1353
18.1599996611476 1375
18.1799996607006 1466
18.1999996602535 1376
18.2199996598065 1400
18.2399996593595 1422
18.2599996589124 1409
18.2799996584654 1389
18.2999996580184 1495
18.3199996575713 1448
18.3399996571243 1540
18.3599996566772 1450
18.3799996562302 1469
18.3999996557832 1431
18.4199996553361 1408
18.4399996548891 1481
18.4599996544421 1494
18.479999653995 1394
18.499999653548 1434
18.519999653101 1424
18.5399996526539 1414
18.5599996522069 1422
18.5799996517599 1419
18.5999996513128 1394
18.6199996508658 1509
18.6399996504188 1445
18.6599996499717 1385
18.6799996495247 1437
18.6999996490777 1418
18.7199996486306 1404
18.7399996481836 1402
18.7599996477366 1377
18.7799996472895 1452
18.7999996468425 1468
18.8199996463954 1475
18.8399996459484 1497
18.8599996455014 1467
18.8799996450543 1480
18.8999996446073 1433
18.9199996441603 1360
18.9399996437132 1427
18.9599996432662 1391
18.9799996428192 1417
18.9999996423721 1452
19.0199996419251 1490
19.0399996414781 1438
19.059999641031 1481
19.079999640584 1470
19.099999640137 1420
19.1199996396899 1445
19.1399996392429 1437
19.1599996387959 1483
19.1799996383488 1432
19.1999996379018 1526
19.2199996374547 1493
19.2399996370077 1542
19.2599996365607 1461
19.2799996361136 1544
19.2999996356666 1527
19.3199996352196 1517
19.3399996347725 1419
19.3599996343255 1608
19.3799996338785 1494
19.3999996334314 1512
19.4199996329844 1566
19.4399996325374 1490
19.4599996320903 1555
19.4799996316433 1470
19.4999996311963 1524
19.5199996307492 1600
19.5399996303022 1526
19.5599996298552 1576
19.5799996294081 1605
19.5999996289611 1521
19.6199996285141 1625
19.639999628067 1643
19.65999962762 1660
19.6799996271729 1692
19.6999996267259 1651
19.7199996262789 1751
19.7399996258318 1867
19.7599996253848 1898
19.7799996249378 1897
19.7999996244907 2037
19.8199996240437 2067
19.8399996235967 2243
19.8599996231496 2175
19.8799996227026 2261
19.8999996222556 2132
19.9199996218085 2097
19.9399996213615 2122
19.9599996209145 2025
19.9799996204674 2028
19.9999996200204 2046
