3 2334
3.01999999955297 2096
3.03999999910593 1929
3.0599999986589 1878
3.07999999821186 1757
3.09999999776483 1702
3.11999999731779 1665
3.13999999687076 1616
3.15999999642372 1587
3.17999999597669 1547
3.19999999552965 1514
3.21999999508262 1477
3.23999999463558 1492
3.25999999418855 1479
3.27999999374151 1468
3.29999999329448 1364
3.31999999284744 1402
3.33999999240041 1367
3.35999999195337 1374
3.37999999150634 1379
3.3999999910593 1384
3.41999999061227 1353
3.43999999016523 1313
3.4599999897182 1300
3.47999998927116 1301
3.49999998882413 1312
3.51999998837709 1283
3.53999998793006 1203
3.55999998748302 1197
3.57999998703599 1242
3.59999998658895 1167
3.61999998614192 1162
3.63999998569489 1186
3.65999998524785 1141
3.67999998480082 1151
3.69999998435378 1152
3.71999998390675 1114
3.73999998345971 1074
3.75999998301268 1159
3.77999998256564 1054
3.79999998211861 1081
3.81999998167157 1045
3.83999998122454 1085
3.8599999807775 1055
3.87999998033047 1032
3.89999997988343 1053
3.9199999794364 1016
3.93999997898936 994
3.95999997854233 965
3.97999997809529 993
3.99999997764826 1000
4.01999997720122 1016
4.03999997675419 958
4.05999997630715 963
4.07999997586012 908
4.09999997541308 876
4.11999997496605 960
4.13999997451901 963
4.15999997407198 932
4.17999997362494 957
4.19999997317791 930
4.21999997273087 902
4.23999997228384 898
4.25999997183681 893
4.27999997138977 856
4.29999997094274 847
4.3199999704957 853
4.33999997004867 819
4.35999996960163 815
4.3799999691546 854
4.39999996870756 857
4.41999996826053 796
4.43999996781349 787
4.45999996736646 820
4.47999996691942 859
4.49999996647239 852
4.51999996602535 813
4.53999996557832 797
4.55999996513128 782
4.57999996468425 785
4.59999996423721 760
4.61999996379018 814
4.63999996334314 815
4.65999996289611 789
4.67999996244907 780
4.69999996200204 765
4.719999961555 772
4.73999996110797 771
4.75999996066093 742
4.7799999602139 787
4.79999995976686 741
4.81999995931983 748
4.83999995887279 793
4.85999995842576 765
4.87999995797873 746
4.89999995753169 775
4.91999995708466 759
4.93999995663762 721
4.95999995619059 758
4.97999995574355 721
4.99999995529652 702
5.01999995484948 696
5.03999995440245 709
5.05999995395541 742
5.07999995350838 731
5.09999995306134 740
5.11999995261431 736
5.13999995216727 744
5.15999995172024 724
5.1799999512732 700
5.19999995082617 745
5.21999995037913 667
5.2399999499321 719
5.25999994948506 743
5.27999994903803 693
5.29999994859099 714
5.31999994814396 707
5.33999994769692 757
5.35999994724989 715
5.37999994680285 725
5.39999994635582 697
5.41999994590878 692
5.43999994546175 695
5.45999994501471 699
5.47999994456768 710
5.49999994412065 730
5.51999994367361 730
5.53999994322658 746
5.55999994277954 717
5.57999994233251 680
5.59999994188547 731
5.61999994143844 671
5.6399999409914 696
5.65999994054437 724
5.67999994009733 730
5.6999999396503 694
5.71999993920326 674
5.73999993875623 738
5.75999993830919 654
5.77999993786216 658
5.79999993741512 670
5.81999993696809 707
5.83999993652105 718
5.85999993607402 683
5.87999993562698 675
5.89999993517995 727
5.91999993473291 674
5.93999993428588 691
5.95999993383884 705
5.97999993339181 690
5.99999993294477 674
6.01999993249774 689
6.0399999320507 663
6.05999993160367 683
6.07999993115663 719
6.0999999307096 675
6.11999993026257 649
6.13999992981553 691
6.1599999293685 714
6.17999992892146 675
6.19999992847443 680
6.21999992802739 668
6.23999992758036 689
6.25999992713332 722
6.27999992668629 720
6.29999992623925 722
6.31999992579222 682
6.33999992534518 656
6.35999992489815 692
6.37999992445111 691
6.39999992400408 677
6.41999992355704 677
6.43999992311001 687
6.45999992266297 631
6.47999992221594 663
6.4999999217689 688
6.51999992132187 685
6.53999992087483 675
6.5599999204278 731
6.57999991998076 666
6.59999991953373 659
6.61999991908669 710
6.63999991863966 677
6.65999991819262 662
6.67999991774559 686
6.69999991729855 679
6.71999991685152 671
6.73999991640449 711
6.75999991595745 731
6.77999991551042 694
6.79999991506338 619
6.81999991461635 675
6.83999991416931 698
6.85999991372228 703
6.87999991327524 680
6.89999991282821 694
6.91999991238117 715
6.93999991193414 674
6.9599999114871 676
6.97999991104007 725
6.99999991059303 719
7.019999910146 696
7.03999990969896 677
7.05999990925193 687
7.07999990880489 721
7.09999990835786 680
7.11999990791082 660
7.13999990746379 667
7.15999990701675 714
7.17999990656972 693
7.19999990612268 629
7.21999990567565 701
7.23999990522861 702
7.25999990478158 757
7.27999990433454 699
7.29999990388751 710
7.31999990344047 686
7.33999990299344 711
7.35999990254641 718
7.37999990209937 669
7.39999990165234 719
7.4199999012053 664
7.43999990075827 683
7.45999990031123 652
7.4799998998642 683
7.49999989941716 671
7.51999989897013 693
7.53999989852309 674
7.55999989807606 725
7.57999989762902 717
7.59999989718199 638
7.61999989673495 686
7.63999989628792 684
7.65999989584088 689
7.67999989539385 676
7.69999989494681 638
7.71999989449978 639
7.73999989405274 739
7.75999989360571 685
7.77999989315867 713
7.79999989271164 714
7.8199998922646 687
7.83999989181757 696
7.85999989137053 686
7.8799998909235 660
7.89999989047646 666
7.91999989002943 661
7.9399998895824 698
7.95999988913536 666
7.97999988868833 676
7.99999988824129 712
8.01999988779426 701
8.03999988734722 722
8.05999988690019 663
8.07999988645315 683
8.09999988600612 696
8.11999988555908 726
8.13999988511205 708
8.15999988466501 676
8.17999988421798 715
8.19999988377094 712
8.21999988332391 705
8.23999988287687 701
8.25999988242984 658
8.2799998819828 699
8.29999988153577 721
8.31999988108873 671
8.3399998806417 710
8.35999988019466 702
8.37999987974763 702
8.39999987930059 662
8.41999987885356 724
8.43999987840652 721
8.45999987795949 734
8.47999987751245 734
8.49999987706542 756
8.51999987661839 765
8.53999987617135 725
8.55999987572432 803
8.57999987527728 749
8.59999987483025 759
8.61999987438321 759
8.63999987393618 819
8.65999987348914 849
8.67999987304211 807
8.69999987259507 869
8.71999987214804 847
8.739999871701 940
8.75999987125397 915
8.77999987080693 907
8.7999998703599 982
8.81999986991286 1082
8.83999986946583 1060
8.85999986901879 1117
8.87999986857176 1198
8.89999986812472 1263
8.91999986767769 1286
8.93999986723065 1332
8.95999986678362 1287
8.97999986633658 1436
8.99999986588955 1447
9.01999986544251 1289
9.03999986499548 1343
9.05999986454844 1348
9.07999986410141 1267
9.09999986365438 1263
9.11999986320734 1155
9.13999986276031 1119
9.15999986231327 1088
9.17999986186624 1070
9.1999998614192 1058
9.21999986097217 964
9.23999986052513 953
9.2599998600781 898
9.27999985963106 939
9.29999985918403 879
9.31999985873699 893
9.33999985828996 864
9.35999985784292 844
9.37999985739589 824
9.39999985694885 817
9.41999985650182 818
9.43999985605478 784
9.45999985560775 827
9.47999985516071 798
9.49999985471368 810
9.51999985426664 792
9.53999985381961 850
9.55999985337257 795
9.57999985292554 835
9.5999998524785 778
9.61999985203147 819
9.63999985158443 853
9.6599998511374 802
9.67999985069037 810
9.69999985024333 888
9.7199998497963 884
9.73999984934926 915
9.75999984890223 884
9.77999984845519 959
9.79999984800816 1014
9.81999984756112 990
9.83999984711409 1049
9.85999984666705 1126
9.87999984622002 1099
9.89999984577298 1160
9.91999984532595 1231
9.93999984487891 1171
9.95999984443188 1209
9.97999984398484 1213
9.99999984353781 1262
10.0199998430908 1205
10.0399998426437 1199
10.0599998421967 1118
10.0799998417497 1062
10.0999998413026 1085
10.1199998408556 1022
10.1399998404086 970
10.1599998399615 972
10.1799998395145 871
10.1999998390675 933
10.2199998386204 859
10.2399998381734 849
10.2599998377264 866
10.2799998372793 779
10.2999998368323 839
10.3199998363853 770
10.3399998359382 784
10.3599998354912 725
10.3799998350441 770
10.3999998345971 733
10.4199998341501 713
10.439999833703 726
10.459999833256 690
10.479999832809 699
10.4999998323619 682
10.5199998319149 721
10.5399998314679 731
10.5599998310208 677
10.5799998305738 725
10.5999998301268 683
10.6199998296797 696
10.6399998292327 701
10.6599998287857 698
10.6799998283386 697
10.6999998278916 618
10.7199998274446 688
10.7399998269975 675
10.7599998265505 658
10.7799998261034 659
10.7999998256564 663
10.8199998252094 660
10.8399998247623 683
10.8599998243153 676
10.8799998238683 609
10.8999998234212 686
10.9199998229742 661
10.9399998225272 681
10.9599998220801 655
10.9799998216331 630
10.9999998211861 604
11.019999820739 641
11.039999820292 628
11.059999819845 683
11.0799998193979 640
11.0999998189509 649
11.1199998185039 656
11.1399998180568 624
11.1599998176098 681
11.1799998171628 635
11.1999998167157 605
11.2199998162687 623
11.2399998158216 653
11.2599998153746 631
11.2799998149276 647
11.2999998144805 630
11.3199998140335 637
11.3399998135865 686
11.3599998131394 639
11.3799998126924 654
11.3999998122454 654
11.4199998117983 588
11.4399998113513 661
11.4599998109043 675
11.4799998104572 632
11.4999998100102 669
11.5199998095632 627
11.5399998091161 643
11.5599998086691 619
11.5799998082221 639
11.599999807775 610
11.619999807328 661
11.639999806881 592
11.6599998064339 644
11.6799998059869 607
11.6999998055398 623
11.7199998050928 627
11.7399998046458 674
11.7599998041987 623
11.7799998037517 600
11.7999998033047 667
11.8199998028576 623
11.8399998024106 627
11.8599998019636 597
11.8799998015165 658
11.8999998010695 630
11.9199998006225 668
11.9399998001754 663
11.9599997997284 600
11.9799997992814 663
11.9999997988343 618
12.0199997983873 686
12.0399997979403 676
12.0599997974932 636
12.0799997970462 675
12.0999997965992 684
12.1199997961521 631
12.1399997957051 617
12.159999795258 622
12.179999794811 625
12.199999794364 684
12.2199997939169 634
12.2399997934699 668
12.2599997930229 677
12.2799997925758 655
12.2999997921288 679
12.3199997916818 641
12.3399997912347 620
12.3599997907877 645
12.3799997903407 700
12.3999997898936 640
12.4199997894466 654
12.4399997889996 714
12.4599997885525 680
12.4799997881055 672
12.4999997876585 709
12.5199997872114 746
12.5399997867644 716
12.5599997863173 706
12.5799997858703 691
12.5999997854233 759
12.6199997849762 759
12.6399997845292 721
12.6599997840822 738
12.6799997836351 708
12.6999997831881 757
12.7199997827411 708
12.739999782294 776
12.759999781847 726
12.7799997814 711
12.7999997809529 708
12.8199997805059 758
12.8399997800589 735
12.8599997796118 712
12.8799997791648 662
12.8999997787178 732
12.9199997782707 700
12.9399997778237 691
12.9599997773767 704
12.9799997769296 670
12.9999997764826 639
13.0199997760355 666
13.0399997755885 679
13.0599997751415 685
13.0799997746944 651
13.0999997742474 671
13.1199997738004 671
13.1399997733533 669
13.1599997729063 666
13.1799997724593 672
13.1999997720122 708
13.2199997715652 687
13.2399997711182 680
13.2599997706711 706
13.2799997702241 665
13.2999997697771 671
13.31999976933 667
13.339999768883 645
13.359999768436 708
13.3799997679889 711
13.3999997675419 655
13.4199997670949 631
13.4399997666478 678
13.4599997662008 719
13.4799997657537 668
13.4999997653067 670
13.5199997648597 649
13.5399997644126 643
13.5599997639656 660
13.5799997635186 644
13.5999997630715 663
13.6199997626245 623
13.6399997621775 688
13.6599997617304 685
13.6799997612834 634
13.6999997608364 658
13.7199997603893 671
13.7399997599423 635
13.7599997594953 656
13.7799997590482 658
13.7999997586012 686
13.8199997581542 671
13.8399997577071 672
13.8599997572601 660
13.879999756813 629
13.899999756366 663
13.919999755919 681
13.9399997554719 629
13.9599997550249 627
13.9799997545779 649
13.9999997541308 626
14.0199997536838 681
14.0399997532368 651
14.0599997527897 672
14.0799997523427 688
14.0999997518957 658
14.1199997514486 720
14.1399997510016 665
14.1599997505546 636
14.1799997501075 705
14.1999997496605 693
14.2199997492135 635
14.2399997487664 637
14.2599997483194 676
14.2799997478724 660
14.2999997474253 650
14.3199997469783 650
14.3399997465312 691
14.3599997460842 633
14.3799997456372 691
14.3999997451901 667
14.4199997447431 687
14.4399997442961 687
14.459999743849 682
14.479999743402 691
14.499999742955 707
14.5199997425079 644
14.5399997420609 709
14.5599997416139 707
14.5799997411668 742
14.5999997407198 718
14.6199997402728 709
14.6399997398257 721
14.6599997393787 720
14.6799997389317 697
14.6999997384846 683
14.7199997380376 689
14.7399997375906 688
14.7599997371435 745
14.7799997366965 702
14.7999997362494 643
14.8199997358024 680
14.8399997353554 710
14.8599997349083 722
14.8799997344613 673
14.8999997340143 720
14.9199997335672 716
14.9399997331202 695
14.9599997326732 738
14.9799997322261 689
14.9999997317791 716
15.0199997313321 696
15.039999730885 690
15.059999730438 731
15.079999729991 712
15.0999997295439 685
15.1199997290969 683
15.1399997286499 729
15.1599997282028 717
15.1799997277558 729
15.1999997273088 736
15.2199997268617 716
15.2399997264147 693
15.2599997259676 694
15.2799997255206 740
15.2999997250736 720
15.3199997246265 738
15.3399997241795 730
15.3599997237325 688
15.3799997232854 706
15.3999997228384 722
15.4199997223914 699
15.4399997219443 752
15.4599997214973 706
15.4799997210503 766
15.4999997206032 715
15.5199997201562 726
15.5399997197092 752
15.5599997192621 762
15.5799997188151 723
15.5999997183681 727
15.619999717921 796
15.639999717474 728
15.659999717027 773
15.6799997165799 789
15.6999997161329 716
15.7199997156858 713
15.7399997152388 757
15.7599997147918 788
15.7799997143447 770
15.7999997138977 761
15.8199997134507 721
15.8399997130036 709
15.8599997125566 781
15.8799997121096 769
15.8999997116625 793
15.9199997112155 728
15.9399997107685 789
15.9599997103214 761
15.9799997098744 799
15.9999997094274 706
16.0199997089803 756
16.0399997085333 756
16.0599997080863 784
16.0799997076392 771
16.0999997071922 787
16.1199997067451 796
16.1399997062981 756
16.1599997058511 765
16.179999705404 763
16.199999704957 762
16.21999970451 773
16.2399997040629 791
16.2599997036159 766
16.2799997031689 802
16.2999997027218 832
16.3199997022748 820
16.3399997018278 762
16.3599997013807 794
16.3799997009337 763
16.3999997004867 852
16.4199997000396 824
16.4399996995926 780
16.4599996991456 788
16.4799996986985 832
16.4999996982515 774
16.5199996978045 791
16.5399996973574 775
16.5599996969104 763
16.5799996964633 752
16.5999996960163 815
16.6199996955693 788
16.6399996951222 829
16.6599996946752 793
16.6799996942282 846
16.6999996937811 851
16.7199996933341 872
16.7399996928871 874
16.75999969244 888
16.779999691993 842
16.799999691546 882
16.8199996910989 902
16.8399996906519 855
16.8599996902049 915
16.8799996897578 945
16.8999996893108 985
16.9199996888638 1044
16.9399996884167 1062
16.9599996879697 1142
16.9799996875226 1251
16.9999996870756 1375
17.0199996866286 1330
17.0399996861815 1222
17.0599996857345 1144
17.0799996852875 1090
17.0999996848404 1158
17.1199996843934 1039
17.1399996839464 1046
17.1599996834993 1049
17.1799996830523 1040
17.1999996826053 1015
17.2199996821582 996
17.2399996817112 993
17.2599996812642 929
17.2799996808171 936
17.2999996803701 932
17.3199996799231 921
17.339999679476 955
17.359999679029 920
17.379999678582 901
17.3999996781349 929
17.4199996776879 893
17.4399996772408 944
17.4599996767938 876
17.4799996763468 916
17.4999996758997 978
17.5199996754527 920
17.5399996750057 899
17.5599996745586 934
17.5799996741116 933
17.5999996736646 956
17.6199996732175 915
17.6399996727705 1018
17.6599996723235 944
17.6799996718764 950
17.6999996714294 938
17.7199996709824 916
17.7399996705353 947
17.7599996700883 974
17.7799996696413 973
17.7999996691942 957
17.8199996687472 970
17.8399996683002 958
17.8599996678531 927
17.8799996674061 962
17.899999666959 975
17.919999666512 992
17.939999666065 976
17.9599996656179 1026
17.9799996651709 1036
17.9999996647239 1017
18.0199996642768 1043
18.0399996638298 1003
18.0599996633828 1003
18.0799996629357 995
18.0999996624887 962
18.1199996620417 1020
18.1399996615946 965
18.1599996611476 1030
18.1799996607006 1013
18.1999996602535 954
18.2199996598065 984
18.2399996593595 1037
18.2599996589124 1040
18.2799996584654 1094
18.2999996580184 1021
18.3199996575713 1074
18.3399996571243 1071
18.3599996566772 1033
18.3799996562302 1103
18.3999996557832 1063
18.4199996553361 1011
18.4399996548891 1056
18.4599996544421 1105
18.479999653995 1114
18.499999653548 1088
18.519999653101 1051
18.5399996526539 1054
18.5599996522069 1018
18.5799996517599 1034
18.5999996513128 1008
18.6199996508658 1020
18.6399996504188 1063
18.6599996499717 1096
18.6799996495247 1023
18.6999996490777 1109
18.7199996486306 1094
18.7399996481836 1117
18.7599996477366 1100
18.7799996472895 1107
18.7999996468425 1091
18.8199996463954 1121
18.8399996459484 1090
18.8599996455014 1113
18.8799996450543 1099
18.8999996446073 1060
18.9199996441603 1162
18.9399996437132 1119
18.9599996432662 1074
18.9799996428192 1178
18.9999996423721 1102
19.0199996419251 1104
19.0399996414781 1149
19.059999641031 1103
19.079999640584 1189
19.099999640137 1129
19.1199996396899 1114
19.1399996392429 1129
19.1599996387959 1134
19.1799996383488 1083
19.1999996379018 1109
19.2199996374547 1118
19.2399996370077 1136
19.2599996365607 1179
19.2799996361136 1158
19.2999996356666 1159
19.3199996352196 1192
19.3399996347725 1178
19.3599996343255 1130
19.3799996338785 1205
19.3999996334314 1166
19.4199996329844 1239
19.4399996325374 1214
19.4599996320903 1182
19.4799996316433 1169
19.4999996311963 1273
19.5199996307492 1241
19.5399996303022 1225
19.5599996298552 1225
19.5799996294081 1228
19.5999996289611 1178
19.6199996285141 1158
19.639999628067 1222
19.65999962762 1249
19.6799996271729 1206
19.6999996267259 1250
19.7199996262789 1229
19.7399996258318 1310
19.7599996253848 1264
19.7799996249378 1275
19.7999996244907 1294
19.8199996240437 1262
19.8399996235967 1310
19.8599996231496 1327
19.8799996227026 1354
19.8999996222556 1343
19.9199996218085 1295
19.9399996213615 1275
19.9599996209145 1314
19.9799996204674 1310
19.9999996200204 1323
